Timestamp,Cleaned_PPG
1710826325661,0.0
1710826325701,0.0
1710826325744,0.0
1710826325782,0.0
1710826325822,0.0
1710826325862,0.0
1710826325902,0.0
1710826325942,0.0
1710826325983,0.0
1710826326022,0.0
1710826326062,0.0
1710826326102,0.0
1710826326142,0.0
1710826326183,0.0
1710826326223,0.0
1710826326262,0.0
1710826326303,0.0
1710826326343,0.0
1710826326384,0.0
1710826326423,0.0
1710826326463,0.0
1710826326503,0.0
1710826326543,0.0
1710826326584,0.0
1710826326623,0.0
1710826326663,0.0
1710826326703,0.0
1710826326743,0.0
1710826326784,0.0
1710826326824,0.0
1710826326864,0.0
1710826326904,0.0
1710826326944,2116376.0
1710826326985,1985343.977832273
1710826327024,1862523.4511434662
1710826327064,1747477.7191373883
1710826327104,1639920.4762821442
1710826327144,1538699.137702698
1710826327186,1443243.6856764853
1710826327225,1355477.517508536
1710826327265,1277468.8581832594
1710826327305,1210590.899005163
1710826327345,1153501.1045164075
1710826327386,1097127.9474617057
1710826327425,1045422.845325782
1710826327465,996251.4908510526
1710826327505,939813.572632405
1710826327545,882777.657845415
1710826327586,827818.4544120608
1710826327625,767102.8597801188
1710826327666,695451.7683808063
1710826327705,616276.1772885039
1710826327746,547378.7288272798
1710826327787,491916.67490826873
1710826327826,455886.7475183881
1710826327866,423216.73660410685
1710826327906,386246.0092221652
1710826327949,354779.00022835843
1710826327987,336118.0929613088
1710826328027,318497.4584764261
1710826328067,303201.10124889296
1710826328107,282652.11519595236
1710826328147,260802.0381324445
1710826328188,230516.12388282688
1710826328227,143187.5870667908
1710826328267,129563.4705934478
1710826328307,100881.18366234191
1710826328347,86110.41525733704
1710826328389,77404.3128415409
1710826328428,74220.64447288006
1710826328468,73319.77140087634
1710826328508,64265.37482459587
1710826328548,46146.78857712378
1710826328589,20191.771932582604
1710826328628,-15419.01032771077
1710826328668,-36349.7006624504
1710826328708,-56895.60171841644
1710826328748,-73803.4750863025
1710826328789,-66146.18557415484
1710826328828,-57879.50061808061
1710826328869,-50891.13496699091
1710826328909,-40646.870090816636
1710826328949,193.87630240479484
1710826328990,43035.805425910046
1710826329029,72639.98000716884
1710826329069,89730.8727384163
1710826329109,87158.185493391
1710826329149,83416.67764189048
1710826329190,84323.98796840361
1710826329230,82312.03822646895
1710826329270,68439.74006666895
1710826329310,53311.62710417737
1710826329350,38521.09160287306
1710826329391,31660.230387886055
1710826329430,29410.01983490726
1710826329470,35296.94499436556
1710826329510,103328.81026506657
1710826329550,96795.75801433204
1710826329591,105776.10492497357
1710826329630,102706.80149334832
1710826329671,95763.6841153081
1710826329711,84724.9960937656
1710826329751,73317.64943152783
1710826329792,68828.54361685645
1710826329831,67068.5980449263
1710826329871,63966.71602036711
1710826329911,62838.37566833664
1710826329951,58629.59572957968
1710826329992,52701.9785381048
1710826330031,48357.42518831184
1710826330072,39051.90233003255
1710826330112,35021.85109723522
1710826330155,35272.25918963039
1710826330193,45340.52448355453
1710826330232,39812.88657182595
1710826330272,41721.48012266145
1710826330312,40434.229854105506
1710826330352,45396.885468822904
1710826330393,46343.29546477692
1710826330433,45838.54877339234
1710826330473,45394.42751386808
1710826330513,44928.134750762256
1710826330553,40577.594524351414
1710826330594,37006.046040113084
1710826330633,36907.0799264689
1710826330673,36683.01233050879
1710826330713,36458.67592764832
1710826330753,43943.26977277151
1710826330794,47281.85657396633
1710826330834,56096.35133274272
1710826330874,68535.27941262769
1710826330914,79778.03495205473
1710826330954,90200.05339305755
1710826330995,95722.73515883181
1710826331034,96433.90367387701
1710826331074,95554.88387872791
1710826331114,96480.44111865945
1710826331155,96267.20638348744
1710826331195,99491.94695663406
1710826331235,103596.40793000604
1710826331275,101110.91414644942
1710826331315,95514.3620366992
1710826331355,91693.52417791355
1710826331396,86147.65619172272
1710826331435,77580.61619671411
1710826331475,69055.28467993811
1710826331516,59476.437138987705
1710826331556,49755.12490888871
1710826331597,43767.942189961206
1710826331636,30365.044238404837
1710826331676,24275.287272725254
1710826331716,19116.244330686517
1710826331756,14467.531546517275
1710826331797,12116.11553443037
1710826331837,12467.490351203829
1710826331877,11822.801377864555
1710826331917,10551.569888346829
1710826331957,11118.968426043168
1710826331998,17222.66849401174
1710826332037,17737.568693046458
1710826332077,24736.557309819385
1710826332118,25074.437189246528
1710826332157,22962.100554570556
1710826332198,19064.63170730276
1710826332238,9469.613749464974
1710826332278,3327.2159019415267
1710826332318,-1769.042782687582
1710826332358,-5367.602478703484
1710826332399,-8249.412546718027
1710826332439,-10099.099708447233
1710826332479,-12378.696495880373
1710826332519,-12631.387259901501
1710826332559,-12454.662690246012
1710826332601,-9447.384236237966
1710826332640,-11964.534295253456
1710826332680,-13025.743107291404
1710826332721,-9354.838346020319
1710826332761,-5266.099532223772
1710826332802,505.2053446434438
1710826332842,7741.0999372415245
1710826332881,12741.175297953188
1710826332924,15356.225000817329
1710826332965,9985.46664714627
1710826333005,-232.455083232373
1710826333045,-5040.485457096249
1710826333085,-4564.802187114023
1710826333125,-2493.642756488174
1710826333165,-1974.7131092706695
1710826333206,-7437.358481153846
1710826333246,-13502.57858548779
1710826333286,-17036.557403582614
1710826333326,-18942.88740745047
1710826333366,-18449.770489524584
1710826333407,-16319.39215050172
1710826333447,-14702.8485587365
1710826333487,-9442.67327988334
1710826333527,-5291.001914865337
1710826333567,-6696.231374262832
1710826333608,-6965.809733932838
1710826333648,-9454.206722118892
1710826333688,-11251.975179812871
1710826333728,-9728.043837915175
1710826333768,-8670.827976525761
1710826333810,-11715.653012846597
1710826333849,-14013.76774421893
1710826333889,-21098.922628398985
1710826333930,-22190.06414867798
1710826333970,-20773.75454511121
1710826334011,-21587.594576044474
1710826334050,-22147.35774573777
1710826334090,-21596.19886833802
1710826334131,-22648.18353397306
1710826334171,-21021.271359136328
1710826334212,-18508.142483123578
1710826334251,-10835.644789674785
1710826334292,-4724.217943233438
1710826334332,-5407.193120375276
1710826334372,-10318.132752485573
1710826334413,-14064.75594227761
1710826334453,-16346.053586105816
1710826334493,-16895.26461739745
1710826334533,-15359.216658840422
1710826334573,-14685.113322657999
1710826334614,-15076.852393568493
1710826334654,-16016.386431713589
1710826334694,-18557.922148763202
1710826334734,-20660.251961503178
1710826334775,-24018.466443216428
1710826334817,-24344.669811831787
1710826334857,-21476.360171210486
1710826334897,-18149.19748814311
1710826334937,-12961.311978642363
1710826334978,-8007.427172634983
1710826335019,-6340.11694234563
1710826335058,-4503.097634422826
1710826335098,-2388.1372877887916
1710826335139,45.076317336410284
1710826335179,3924.899736822583
1710826335220,5923.260403460823
1710826335259,5692.385778586613
1710826335300,5336.926062890096
1710826335340,3963.8054383397102
1710826335380,1338.3668847563677
1710826335421,-2556.749277020339
1710826335460,-9045.001173262717
1710826335501,-13839.083734834567
1710826335541,-15512.638315329794
1710826335581,-12675.612825631863
1710826335622,-9241.524038285948
1710826335661,-6273.276469438337
1710826335702,-5823.1003752257675
1710826335742,-4330.671039949637
1710826335782,-207.30881865299307
1710826335823,3308.7256052349694
1710826335862,7117.373320804676
1710826335904,7916.419189387234
1710826335944,6367.853738068603
1710826335985,5573.417725988897
1710826336026,5002.758115976816
1710826336065,4301.249631079845
1710826336105,4168.139298263006
1710826336145,3970.860250957543
1710826336186,2887.4067974714562
1710826336227,1778.473055871902
1710826336266,204.18750762939453
1710826336306,1743.3147109195124
1710826336347,1523.5878061882686
1710826336387,3071.653807168361
1710826336428,2280.716312564444
1710826336467,266.4137924022507
1710826336507,-2913.3090103087015
1710826336547,-2877.4371967767365
1710826336588,-2337.3610827173106
1710826336629,-145.04190702247433
1710826336668,909.9486179822125
1710826336709,2082.9778421402443
1710826336749,3041.3033605269156
1710826336789,4575.498795679305
1710826336830,4405.1561930840835
1710826336869,4323.80303657474
1710826336911,3460.805978346616
1710826336952,3096.94464978599
1710826336992,4080.4329847579356
1710826337033,5972.204449071316
1710826337072,7098.099180911435
1710826337113,7182.393216881668
1710826337153,5304.375065753236
1710826337193,4774.881052243756
1710826337234,4886.267135036644
1710826337274,4463.457508215448
1710826337314,4543.773595449515
1710826337354,3191.457063225331
1710826337394,2816.0367103917524
1710826337435,2731.4587146639824
1710826337475,2618.7717110300437
1710826337515,2201.183459339896
1710826337555,2221.162998056039
1710826337595,2158.1673756621312
1710826337636,-1955.6012277386617
1710826337676,-4174.793323745951
1710826337715,-2925.323935186956
1710826337754,-727.2120264424011
1710826337793,2062.3344322128687
1710826337832,3274.946709322743
1710826337871,2443.886900766287
1710826337910,238.66611097147688
1710826337949,-2434.0664631135296
1710826337988,-2448.311928932555
1710826338027,-892.8513482850976
1710826338066,-331.57427639118396
1710826338105,2149.85853061988
1710826338144,2940.4001467667986
1710826338183,2510.7959836740047
1710826338222,-168.5687157965731
1710826338261,-2530.0958431065083
1710826338300,-4473.752615955193
1710826338339,-5796.348122077528
1710826338378,-6200.94988930691
1710826338417,-7465.165875950828
1710826338456,-7837.499982358189
1710826338495,-7116.66528384015
1710826338534,-5213.8768245917745
1710826338573,-3472.0262917981017
1710826338612,-32.65463702240959
1710826338651,3202.198171177879
1710826338690,5511.296004028525
1710826338729,6822.376484100008
1710826338768,6755.218816296896
1710826338807,4851.55575418286
1710826338846,1118.6826238641515
1710826338885,2552.6311150616966
1710826338925,2438.02612861502
1710826338965,-768.8748265458271
1710826339005,-3836.402156875469
1710826339045,-5470.822009186028
1710826339085,-8492.468839380192
1710826339125,-10576.860649421345
1710826339165,-12257.548395423684
1710826339205,-10511.560679675546
1710826339245,-8472.103340940317
1710826339285,-6632.215937510366
1710826339325,-5301.270440398483
1710826339365,-4819.202431861311
1710826339405,-3537.253196043428
1710826339445,-1090.9361484663095
1710826339485,-264.92367921210825
1710826339525,-2417.4701406699605
1710826339565,-3544.5400149698835
1710826339605,-1428.5930220109876
1710826339645,1358.2641407656483
1710826339685,2335.1150662861764
1710826339725,693.6367569691502
1710826339765,-2906.674057221506
1710826339805,-5644.709450491238
1710826339845,-7742.085188400932
1710826339885,-7476.188389419811
1710826339925,-8598.159074353054
1710826339965,-10894.071039294358
1710826340005,-11559.345039873384
1710826340045,-11508.74936452508
1710826340085,-10342.759430769598
1710826340125,-8375.560741575435
1710826340165,-5886.390609319089
1710826340205,-4754.829622108024
1710826340245,-2413.85349035915
1710826340285,-1427.4570353724994
1710826340325,-226.2833879662212
1710826340365,2666.007078923518
1710826340405,5053.522451940458
1710826340445,6772.2980408356525
1710826340485,4218.234256219119
1710826340525,1250.4946067882702
1710826340565,-311.7633323157206
1710826340605,-1406.7024728159886
1710826340645,-3930.996897699777
1710826340685,-6100.928060587263
1710826340725,-8468.69389264239
1710826340765,-8269.728458113968
1710826340805,-5658.423721163301
1710826340845,-3221.448106334079
1710826340885,-4057.9087726192083
1710826340925,-5743.437863014173
1710826340965,-5516.5707935986575
1710826341005,-4333.6875332570635
1710826341045,-3248.966283433605
1710826341085,-2375.087995183654
1710826341125,-670.6584073998965
1710826341165,-340.2797306806315
1710826341205,1302.1968746357597
1710826341245,2962.982457824517
1710826341285,1886.8567020595074
1710826341325,-793.1561169186607
1710826341365,-2650.7700120173395
1710826341405,-3480.068075108109
1710826341445,-4611.236582806334
1710826341485,-3758.061013872735
1710826341525,-7160.101923702052
1710826341565,-6066.70689661568
1710826341605,-5890.633899746463
1710826341645,-6380.805112449918
1710826341685,-6318.018091461621
1710826341725,-5524.81720277993
1710826341765,-5148.580172912218
1710826341805,-5859.327796350233
1710826341845,-6887.48315499397
1710826341885,-11674.636640556855
1710826341925,-8991.974243085366
1710826341965,-6470.463539532153
1710826342005,-5472.652795179281
1710826342045,-5371.211991628632
1710826342085,-5879.800720957108
1710826342125,-8031.584744106745
1710826342165,-8856.83144637756
1710826342205,-6789.614742484875
1710826342245,-6612.869170953054
1710826342285,-6100.028081633383
1710826342325,-4205.269973356742
1710826342365,1456.4286411867943
1710826342405,7933.382758831605
1710826342445,8854.191731129773
1710826342485,6599.744082007557
1710826342525,17962.85071115056
1710826342565,23769.393428659765
1710826342605,11304.227254948113
1710826342645,-4960.029829127016
1710826342685,-13426.343294463353
1710826342725,-15286.787783990614
1710826342765,-17495.892228803597
1710826342805,-16431.758006466553
1710826342845,-17189.049174910644
1710826342885,-13235.173043309245
1710826342925,-14548.874200284481
1710826342965,-12094.395373977488
1710826343005,-11016.407218812732
1710826343045,-16059.507593533723
1710826343085,-18456.13123245095
1710826343125,-11433.273931139847
1710826343165,9417.739103796892
1710826343205,21561.725255962927
1710826343245,27064.32175934827
1710826343285,33143.41720181471
1710826343325,30839.707785741426
1710826343365,19562.56563214981
1710826343405,1654.888889370719
1710826343445,-3771.4428605786525
1710826343485,-10237.02873421833
1710826343525,-6226.249806083273
1710826343565,5137.274141756818
1710826343605,16930.910795329604
1710826343645,24887.206500681117
1710826343685,13497.429260289762
1710826343725,749.9352547312155
1710826343765,-15464.940209446475
1710826343805,-48089.61142327171
1710826343845,-72458.9870790653
1710826343885,-59128.06754223956
1710826343925,-50605.18378264597
1710826343965,-35532.73443766683
1710826344005,-41960.902898466215
1710826344045,-66690.89934013598
1710826344085,-85219.40318902582
1710826344125,-93857.36024471791
1710826344165,-90871.28485412057
1710826344205,-68138.59395576641
1710826344245,-56268.144986921456
1710826344285,-53340.24157634191
1710826344325,-32832.91015265882
1710826344365,-17790.151085216086
1710826344405,-10261.394844877534
1710826344445,-21448.31042083958
1710826344485,-24876.753532132134
1710826344525,-18010.22579855984
1710826344565,-18704.43391241366
1710826344605,-6138.9701737668365
1710826344645,14066.287603822537
1710826344685,12302.128944439813
1710826344725,-982.3180504944175
1710826344765,-20092.972572378814
1710826344805,-41456.373587106355
1710826344845,-34504.50117330998
1710826344885,-25486.46234995406
1710826344925,-27629.955053673126
1710826344965,693.4172835755162
1710826345005,33553.50506824488
1710826345045,51198.18425302999
1710826345085,88609.44983203989
1710826345125,112428.29685709067
1710826345165,130176.37345946115
1710826345205,143171.66002506483
1710826345245,110153.43373734131
1710826345285,100315.28567965794
1710826345325,130075.33062473731
1710826345365,132564.80164769525
1710826345405,116260.78286494501
1710826345445,94400.06151724374
1710826345485,67163.97866826039
1710826345525,50146.28399750218
1710826345565,36966.96779589867
1710826345605,14634.533829512075
1710826345645,-5158.182829620782
1710826345685,-19691.844272298273
1710826345725,-17935.223345944192
1710826345765,-18150.073240348138
1710826345805,-27487.98544861842
1710826345845,-10682.550761694089
1710826345885,-3606.6588031272404
1710826345925,10458.48441760987
1710826345965,45542.27116975421
1710826346005,77631.46625451557
1710826346045,108885.29308768455
1710826346085,129031.36488628108
1710826346125,113328.65469129663
1710826346165,93698.929752836
1710826346205,84610.7454023119
1710826346245,54097.18138615461
1710826346285,32978.4844165938
1710826346325,36864.94621337345
1710826346365,20037.892298914492
1710826346405,6572.495909126941
1710826346445,-7417.114207237493
1710826346485,-12441.289623323828
1710826346525,19530.8574294704
1710826346565,39520.228130868636
1710826346605,37393.119990312494
1710826346645,59769.55726747401
1710826346685,83204.01955855219
1710826346725,98500.72556828009
1710826346765,109325.3386343075
1710826346805,118090.50892764144
1710826346845,128836.85558843426
1710826346885,127488.38674286753
1710826346925,114418.97377550695
1710826346965,95665.16220904049
1710826347005,77342.06241682917
1710826347045,62123.396941344254
1710826347085,58554.598421046045
1710826347125,35689.18375531025
1710826347165,25740.76949807536
1710826347205,10377.449749055319
1710826347245,9048.882140548434
1710826347285,11705.710990392603
1710826347325,19053.85473687481
1710826347365,30048.541213671677
1710826347405,45926.96567302989
1710826347445,66807.69474725146
1710826347485,90123.24928589724
1710826347525,122198.83336796332
1710826347565,134407.8005540343
1710826347605,148515.42045931658
1710826347645,148099.8513845154
1710826347685,151297.0081379502
1710826347725,148798.03949940298
1710826347765,151746.18985983916
1710826347805,119598.56730213901
1710826347845,86656.01248368621
1710826347885,76501.48016833467
1710826347925,46237.15838020295
1710826347965,21393.675717310514
1710826348005,125.46837932476774
1710826348045,-25766.069167884067
1710826348085,-42549.72759475326
1710826348125,-74092.0472642309
1710826348165,-69850.78052860312
1710826348205,-70635.29506782955
1710826348245,-52897.34288886003
1710826348285,-65231.16018269863
1710826348325,-59069.3027197402
1710826348365,-34006.39982382581
1710826348405,-10969.7919730125
1710826348445,28189.396459226497
1710826348485,48251.58935486572
1710826348525,44257.9628046751
1710826348565,25918.517400602344
1710826348605,-15885.170434821397
1710826348645,-90583.10373227997
1710826348685,-155187.77823769161
1710826348725,-230011.53723875247
1710826348765,-268142.4311542851
1710826348805,-280715.0180994915
1710826348845,-238549.214020662
1710826348885,-216977.19340601703
1710826348925,-179505.23216091096
1710826348965,-151103.10475728847
1710826349005,-149860.67476858897
1710826349045,-146622.95787659287
1710826349085,-116009.3367398358
1710826349125,-84573.44218482124
1710826349165,-88325.12001244817
1710826349205,-84628.97134828288
1710826349245,-82318.54180253297
1710826349285,-74086.4054059051
1710826349325,-57330.724747707136
1710826349365,-55587.645757273305
1710826349405,-18333.2530855434
1710826349445,-2424.3646179139614
1710826349485,15074.685177487321
1710826349525,23472.54121428076
1710826349565,57060.049335401505
1710826349605,59660.74771071458
1710826349645,41968.53138693236
1710826349685,48579.624936817214
1710826349725,18747.68146311445
1710826349765,4520.183495944366
1710826349806,-534.3932960582897
1710826349845,29227.602388123516
1710826349886,27448.497863012366
1710826349926,74287.76259850571
1710826349966,104359.01036298089
1710826350007,143474.7358908411
1710826350046,169793.30313838972
1710826350086,194350.3410660508
1710826350126,141080.33081322443
1710826350166,113142.83536617411
1710826350207,86472.13575252239
1710826350247,75567.31934576947
1710826350286,119111.19704406708
1710826350327,136870.29533761647
1710826350367,130886.40928473137
1710826350407,113489.7618148094
1710826350447,110258.65872796997
1710826350487,133643.00702109002
1710826350527,153078.26410024334
1710826350567,135926.82377920393
1710826350608,139005.90268330276
1710826350647,109252.58485184424
1710826350687,77639.65953314025
1710826350728,48509.61110253073
1710826350768,39771.99662865093
1710826350809,22203.100036306307
1710826350848,19255.556556013413
1710826350888,17767.59199075075
1710826350928,11760.47242685873
1710826350968,10629.883778258227
1710826351009,-9545.0023931982
1710826351048,-58176.48832926946
1710826351089,-87973.04479086399
1710826351129,-142607.5569147789
1710826351169,-137549.2171769021
1710826351210,-128178.96979636047
1710826351249,-96362.68745785626
1710826351289,-65420.41212326661
1710826351329,-43266.10727805691
1710826351369,-50648.536479195114
1710826351410,-35392.56005239254
1710826351450,-7265.412677938119
1710826351490,-21910.304513173178
1710826351530,-38752.65763674304
1710826351570,-108949.29795563035
1710826351611,-116505.41975545231
1710826351650,-95517.80277114455
1710826351690,-77090.28736925125
1710826351730,-59204.29880909715
1710826351770,-60452.96936284099
1710826351812,-71855.3882412184
1710826351851,-52338.15458514681
1710826351891,-61321.2618498425
1710826351931,-28636.94180210959
1710826351971,-4458.537119021174
1710826352012,10016.205088486895
1710826352051,16835.131647698116
1710826352091,-13065.985389614012
1710826352132,-28284.555591912474
1710826352172,-18344.505717284977
1710826352212,-3169.7463408885524
1710826352252,-11232.761544087902
1710826352292,-3699.5139947691932
1710826352332,28123.700071869418
1710826352372,46515.91289629834
1710826352413,64014.85968821868
1710826352453,87370.71776788495
1710826352493,79728.92892698944
1710826352533,46784.2670947751
1710826352573,14208.76184901502
1710826352614,-1948.8645151006058
1710826352653,-1288.4216359574348
1710826352693,24704.125258690678
1710826352733,24279.46173628792
1710826352774,37367.23941870872
1710826352814,57061.76397999469
1710826352854,95325.98897824809
1710826352894,99352.3211140288
1710826352934,106142.2265480156
1710826352974,109753.12196840439
1710826353015,94150.96909020143
1710826353054,85883.41105693532
1710826353095,86320.37902702764
1710826353135,83645.86746684229
1710826353175,74269.19137962535
1710826353215,74455.49456208572
1710826353255,55854.48153347056
1710826353295,26690.85764973052
1710826353335,2212.451699985191
1710826353376,21197.03100330569
1710826353416,18545.36290543666
1710826353456,6481.845975354314
1710826353496,-16270.130703979637
1710826353536,-19613.9413482002
1710826353576,-7220.71730383113
1710826353617,54.55965928826481
1710826353656,7184.565574620385
1710826353696,-2448.7454433660023
1710826353737,-7923.000036087353
1710826353777,-14639.248665542342
1710826353817,-22733.421013810672
1710826353857,-24421.974746280815
1710826353897,-30186.533167582937
1710826353937,-29261.757584520616
1710826353977,-33774.19547471963
1710826354018,-50357.3754042713
1710826354057,-48745.5196962296
1710826354097,-64631.009537796024
1710826354137,-77122.33559634816
1710826354177,-84361.54771962855
1710826354218,-97288.87890374428
1710826354258,-99138.24407370575
1710826354298,-82637.06342566852
1710826354338,-71040.3685463951
1710826354378,-60492.61780674476
1710826354418,-50783.454750561155
1710826354458,-30508.57938058721
1710826354498,-23571.2894310588
1710826354538,-16927.121954655275
1710826354578,610.1440678988583
1710826354619,17301.069323600736
1710826354658,36087.4111570362
1710826354698,49728.84856551187
1710826354739,63127.73710659193
1710826354779,83969.08590050973
1710826354819,79252.12102870084
1710826354859,66373.65787845477
1710826354899,53437.23390113143
1710826354939,40579.769613289274
1710826354979,46249.53248936031
1710826355020,49980.46597074717
1710826355059,53478.067700606305
1710826355099,64066.43324201414
1710826355139,68404.16802403703
1710826355180,72387.81449351925
1710826355220,81329.92849874962
1710826355260,73869.42979504867
1710826355300,68063.72689480055
1710826355340,63194.664895244874
1710826355380,63909.164476409554
1710826355421,59343.550518641714
1710826355460,62134.085094072856
1710826355500,54071.78193069901
1710826355540,58890.370737208985
1710826355580,54385.24322714284
1710826355621,49681.07850795658
1710826355661,41058.12537058676
1710826355701,33705.26133342367
1710826355741,27487.269161507487
1710826355781,17491.84405289404
1710826355822,-16396.14142072387
1710826355861,-19967.146903679706
1710826355901,-14808.428994859569
1710826355941,-11008.45142062055
1710826355981,-12413.854242251255
1710826356022,-7837.1724515892565
1710826356061,1386.1063944087364
1710826356102,4565.625874548219
1710826356142,2494.800423084758
1710826356182,-4259.631767148152
1710826356223,-4516.398591890931
1710826356262,240.108610981144
1710826356302,-2402.0031479028985
1710826356342,-4984.276952868793
1710826356382,-16248.997960696928
1710826356423,-21944.0314441761
1710826356462,-22163.07895341888
1710826356503,-28654.688002909068
1710826356543,-28092.348106718622
1710826356583,-12636.281044408679
1710826356624,-2679.8821136392653
1710826356663,503.6428675269708
1710826356703,7934.546261272393
1710826356743,-4347.230178246275
1710826356783,1291.5606599277817
1710826356824,-10371.88679999439
1710826356863,-2704.349481877871
1710826356903,58.16764080245048
1710826356944,-3575.6251998813823
1710826356984,-18891.444705436472
1710826357025,-23453.406672641635
1710826357064,-39109.43911797553
1710826357104,-3986.454796064645
1710826357144,-6956.140208962373
1710826357184,-22526.684762097895
1710826357225,-31314.532210748177
1710826357264,-39975.65680076461
1710826357305,-52437.18436673656
1710826357345,-70370.20305550843
1710826357385,-79823.89184179343
1710826357426,-69760.85878902394
1710826357465,-71975.71079074172
1710826357505,-72454.00489164237
1710826357545,-89087.5182262361
1710826357585,-126145.75016257772
1710826357626,-139256.8045398211
1710826357665,-140669.8222107496
1710826357706,-134051.7224384048
1710826357746,-135986.6559105115
1710826357786,-140969.02213439718
1710826357827,-140862.79787518177
1710826357866,-152551.1415331941
1710826357906,-157395.77182208654
1710826357946,-149576.80603577755
1710826357986,-142061.77153846435
1710826358027,-126567.55146553367
1710826358067,-117804.59337732382
1710826358107,-105310.29871184146
1710826358147,-104376.38122789655
1710826358187,-98907.23792829551
1710826358228,-95578.4385480429
1710826358267,-84858.91486909334
1710826358307,-92162.27772233263
1710826358347,-81717.97943661967
1710826358387,-87215.54028081382
1710826358429,-88526.59613341931
1710826358467,-84701.68121083733
1710826358508,-86479.90279160626
1710826358548,-87713.63080233056
1710826358588,-88542.09655185603
1710826358629,-83611.96441614488
1710826358668,-88408.30564262066
1710826358708,-103836.88088675868
1710826358748,-99106.58577294694
1710826358789,-97458.54886305192
1710826358830,-87136.99582906254
1710826358869,-59748.7280772673
1710826358909,-46562.32225878537
1710826358949,-41323.82697035093
1710826358989,-40959.60917699686
1710826359030,-40510.74997436139
1710826359069,-46225.06544418726
1710826359109,-44637.33073566388
1710826359150,-45279.853592137806
1710826359190,-42417.80333955726
1710826359231,-47004.50659985142
1710826359270,-44434.7241800928
1710826359310,-41425.595234480454
1710826359350,-37540.14892855147
1710826359390,-32244.566386701073
1710826359431,-27505.98840382928
1710826359470,-29610.781631850637
1710826359511,-27315.566513212165
1710826359551,-25722.919091291726
1710826359591,-23456.99586685933
1710826359632,-23321.565188437235
1710826359671,-22091.40541667631
1710826359711,-20014.25039591547
1710826359751,-18156.165164722595
1710826359791,-19471.886202766793
1710826359833,-24720.04480405315
1710826359872,-34623.01996275876
1710826359912,-44520.3943028152
1710826359952,-41361.1740102265
1710826359992,-41094.11134084454
1710826360033,-40022.934081340674
1710826360072,-38798.54641448404
1710826360113,-39040.23405860225
1710826360153,-35294.857238838915
1710826360193,-34637.05364243733
1710826360234,-31083.304784698645
1710826360273,-28251.713675939478
1710826360313,-26609.882865990745
1710826360353,-22545.888072675793
1710826360393,-22017.8647918324
1710826360435,-19198.991835606983
1710826360474,-16506.02308380953
1710826360514,-13583.554832817987
1710826360554,-12066.940226777457
1710826360594,-9651.22964408435
1710826360635,-7675.694787572604
1710826360674,-10352.66249845596
1710826360715,-16957.72081960924
1710826360755,-18004.201364084147
1710826360795,-17684.85770076653
1710826360836,-16741.350773782935
1710826360875,-15228.701388737885
1710826360915,-12948.465605115518
1710826360956,-11840.189132422442
1710826360996,-10060.463752481854
1710826361037,-8994.008483324666
1710826361076,-8052.042853489518
1710826361116,-5142.370906580007
1710826361156,-3448.328306421172
1710826361196,-1610.1141525190324
1710826361237,-512.3666511569172
1710826361276,1395.6732026119716
1710826361316,2634.6707504382357
1710826361356,4645.693347227294
1710826361396,8979.235573291779
1710826361438,10588.11992486054
1710826361477,11080.881116073346
1710826361517,7379.48894343758
1710826361557,5364.518426463008
1710826361597,2206.154699128587
1710826361638,400.5971058148425
1710826361677,-1158.1838217433542
1710826361774,281.8886703683529
1710826361814,2869.139152682852
1710826361854,4925.838915037457
1710826361895,5218.821019612253
1710826361934,6528.861223323736
1710826361975,7320.712880635634
1710826362015,7866.23163336888
1710826362055,9721.931955108419
1710826362096,10551.422528455034
1710826362135,11876.63682709285
1710826362175,13566.8446814497
1710826362215,15211.928641041275
1710826362255,15875.680265119066
1710826362296,16823.222579912283
1710826362335,17995.827752522193
1710826362375,16599.203692981508
1710826362416,13763.599927150412
1710826362456,11129.359945498407
1710826362497,9632.935555208474
1710826362536,10034.109814592404
1710826362576,10182.739333570702
1710826362616,11752.443260038272
1710826362656,12337.445243120193
1710826362697,12159.503198638558
1710826362736,11833.253853957634
1710826362776,13153.852669773856
1710826362817,13666.483725239057
1710826362857,14262.501409792807
1710826362898,15147.814563220832
1710826362937,16581.42880617804
1710826362977,17521.538531977218
1710826363017,18909.818856094964
1710826363057,19561.1902816426
1710826363098,20247.064542722423
1710826363137,20812.363052434754
1710826363178,21378.68034846103
1710826363218,21254.446523147868
1710826363258,19776.692010965897
1710826363299,17436.13245728542
1710826363338,16902.552577218274
1710826363378,16311.996425486868
1710826363418,15831.999579573981
1710826363458,15602.17207026016
1710826363499,16616.436117893085
1710826363539,17038.72934781597
1710826363579,17303.55077208928
1710826363619,17131.947780050337
1710826363659,17330.15613300819
1710826363700,17897.916192176286
1710826363739,18254.951771366876
1710826363779,18903.282304704655
1710826363819,19062.994115729118
1710826363859,19549.805184660712
1710826363900,19982.426484121475
1710826363939,20287.587551224045
1710826363979,21257.808434560662
1710826364020,21811.828707938548
1710826364060,22006.025879325112
1710826364100,23272.106516981497
1710826364140,23364.98697889317
1710826364180,20986.01898773387
1710826364220,18260.797430444974
1710826364260,17452.20303408103
1710826364301,17149.799875611672
1710826364340,16790.049991502892
1710826364381,16814.758630279917
1710826364421,16694.738158016
1710826364461,16378.980527103413
1710826364502,16451.651484821457
1710826364541,16021.192005152581
1710826364581,16543.343629395124
1710826364621,16071.393064357806
1710826364661,16255.644367090426
1710826364702,17322.770201347535
1710826364742,17822.460365297506
1710826364782,17346.766111485893
1710826364822,17188.91327504767
1710826364862,17415.586854727473
1710826364903,17959.561763896607
1710826364942,17865.999170990195
1710826364982,17662.990620849654
1710826365022,18544.465745511
1710826365062,18375.47831910127
1710826365103,17127.297143417876
1710826365142,15238.559611661825
1710826365183,13136.339383095969
1710826365223,12475.04240626772
1710826365263,11792.370448436588
1710826365304,12120.299528690986
1710826365343,12165.715232559247
1710826365383,11948.463226580992
1710826365423,12096.573933685198
1710826365463,12424.498465910088
1710826365504,12559.372978517786
1710826365544,11932.914296035655
1710826365584,11610.239947719965
1710826365624,11997.442792902235
1710826365664,12992.952130143065
1710826365705,13786.30318863783
1710826365744,14532.860224244185
1710826365784,14905.62656189478
1710826365824,15914.195891029201
1710826365864,15773.035352975829
1710826365905,15558.663152908208
1710826365945,16035.965197401121
1710826365985,16108.346631825902
1710826366025,14628.828235466499
1710826366065,12588.726046622498
1710826366106,11780.820282578701
1710826366146,9901.704151643673
1710826366186,9424.79538127291
1710826366226,9268.05967547698
1710826366266,9693.86011205567
1710826366307,9483.010083759902
1710826366346,9419.18816846679
1710826366387,9249.864374480676
1710826366427,8759.18568405346
1710826366467,8866.665315680671
1710826366508,9398.423307187855
1710826366547,9770.168404837139
1710826366587,9688.386571743991
1710826366627,9935.380480162334
1710826366668,9924.180673702154
1710826366708,10381.959380065557
1710826366748,10942.404298667097
1710826366788,11309.126286536455
1710826366828,11336.685547627741
1710826366868,11982.353774692398
1710826366909,12386.92063724855
1710826366948,11462.919548448175
1710826366988,8682.140932563692
1710826367029,6654.164389241487
1710826367069,4427.137902848888
1710826367109,3290.3360673969146
1710826367149,3280.5260377617087
1710826367189,3532.797356734518
1710826367229,2743.7022517612204
1710826367269,2790.694469667971
1710826367310,2433.5998868360184
1710826367349,1912.2916528084315
1710826367390,1405.9357834551483
1710826367430,1510.793824706925
1710826367470,1272.9036782041658
1710826367511,1287.134055579314
1710826367550,1273.5097722071223
1710826367590,2056.044822020922
1710826367630,2269.0627727247775
1710826367670,3025.8501227137167
1710826367711,3564.319214457413
1710826367751,4301.492878909921
1710826367791,4711.8841113678645
1710826367831,5209.102919167839
1710826367871,4763.425843714271
1710826367912,2030.8842568146065
1710826367951,-316.2733429791406
1710826367991,-2969.1563143229578
1710826368031,-4005.8369604269974
1710826368072,-4197.829974472988
1710826368113,-3863.4490863839164
1710826368152,-4033.0201644110493
1710826368192,-4197.249933130341
1710826368232,-4962.6034474151675
1710826368272,-5508.771425705636
1710826368313,-5283.638287069276
1710826368352,-4200.440786870662
1710826368392,-3811.862082065083
1710826368432,-3273.771576900268
1710826368473,-2014.5627711575944
1710826368513,-1170.9072172529995
1710826368553,971.0960052567534
1710826368593,-481.6956887450069
1710826368633,84.53322273585945
1710826368673,1736.1571625832003
1710826368714,2238.7991453395225
1710826368753,1203.5284177644644
1710826368793,-3950.060775652528
1710826368833,-5326.909122092184
1710826368873,-5555.838926989585
1710826368914,-2079.305763716111
1710826368954,-639.694211187074
1710826368993,-550.2790594780818
1710826369034,-106.36625238321722
1710826369074,2607.4981165230274
1710826369114,4824.122079468798
1710826369154,8062.230423696339
1710826369194,10982.904600193026
1710826369234,15018.460333763622
1710826369274,15757.946465737652
1710826369315,18678.215280813165
1710826369354,21739.04176946869
1710826369394,22444.158663573442
1710826369435,24083.258589289617
1710826369475,25719.72102894867
1710826369515,23288.106952829286
1710826369555,25640.388613464078
1710826369595,16651.698123556096
1710826369635,15933.855682600057
1710826369675,13741.63860624982
1710826369716,12219.69117935677
1710826369755,10427.18572752783
1710826369795,10882.309227548074
1710826369835,8862.400945541449
1710826369876,10529.538944148691
1710826369916,9460.891414073296
1710826369956,7335.756511837011
1710826369996,6592.855861189542
1710826370036,6693.767011679476
1710826370076,11940.353865952231
1710826370117,14061.94564547157
1710826370156,16470.07597259991
1710826370196,13892.433473426383
1710826370237,14575.150299382862
1710826370277,16831.76770447381
1710826370317,17897.793576019816
1710826370357,16106.539736913051
1710826370397,12018.010381015483
1710826370437,9498.938679509796
1710826370477,10554.387220026227
1710826370518,6113.026884268038
1710826370557,10849.181879760465
1710826370598,9097.13145834487
1710826370638,11523.293705269694
1710826370678,11737.325341918971
1710826370719,9856.332776370458
1710826370758,8950.936130050104
1710826370798,9118.97986787185
1710826370838,8862.23287398275
1710826370878,18711.35562433931
1710826370919,16364.94490626501
1710826370958,13585.749338814523
1710826370999,13415.218707497232
1710826371039,21549.601729991147
1710826371079,16811.907164297067
1710826371120,13747.90304170642
1710826371159,10866.347338679247
1710826371199,11807.429750765674
1710826371239,4410.220740248449
1710826371279,-12180.90945538273
1710826371320,-28703.326387333218
1710826371360,-38678.89667400252
1710826371400,-27013.99545942899
1710826371440,-22234.79149688594
1710826371480,-7112.532995518297
1710826371521,12824.048233956099
1710826371560,13270.20221604826
1710826371600,-4257.148029119242
1710826371640,-16745.789943032898
1710826371680,-40898.11903094966
1710826371721,-36673.55289694248
1710826371761,-22314.62667850498
1710826371801,-17533.09036330832
1710826371841,-18407.950409753248
1710826371881,-14611.108630212024
1710826371922,-14933.139135139994
1710826371961,-11093.772486641537
1710826372001,-22914.22196202539
1710826372041,-15910.024606106803
1710826372082,-6539.834234041162
1710826372122,-6951.681472827215
1710826372162,-4276.669916060753
1710826372202,-3591.7739426302724
1710826372242,-1034.953868846409
1710826372282,2825.6257205130532
1710826372323,-7940.7402447653
1710826372362,718.450673871208
1710826372402,7404.339336624835
1710826372443,9881.198157583829
1710826372483,8030.336400362197
1710826372523,17373.85900827404
1710826372563,36406.751776190475
1710826372603,47990.47644320782
1710826372643,55637.960125477985
1710826372683,56409.688615735155
1710826372724,68503.60114879208
1710826372764,66331.70619563852
1710826372804,60312.603017868474
1710826372844,54254.95394900441
1710826372884,64217.40130367875
1710826372925,80027.79620265123
1710826372964,116570.61687972024
1710826373004,105501.94785160758
1710826373045,77091.72258845763
1710826373084,76441.4776818892
1710826373125,80040.02647517296
1710826373165,77254.79960885877
1710826373205,70937.76602468872
1710826373245,61270.71792511828
1710826373285,75296.63093563169
1710826373326,64293.29581764806
1710826373365,63544.16775872931
1710826373406,61068.870863510296
1710826373446,62051.98397029936
1710826373486,52750.491108205635
1710826373527,30633.821793344803
1710826373566,55866.808791978285
1710826373606,68232.68893490499
1710826373647,63763.93931646459
1710826373687,49959.62461339822
1710826373728,30217.441553086042
1710826373767,1925.1939341025427
1710826373806,2722.77442068886
1710826373845,7156.907302003354
1710826373884,-7892.753605640493
1710826373923,-9545.230827290565
1710826373962,-18473.28748022765
1710826374001,-34566.99501114711
1710826374040,-34179.43601025967
1710826374079,-39026.074913566
1710826374118,-32138.89219091693
1710826374157,-35937.525105476845
1710826374196,-48462.56227804767
1710826374235,-61695.54081126675
1710826374274,-58218.562230396084
1710826374313,-49736.188765580766
1710826374352,-47904.76455841446
1710826374391,-46408.262411336415
1710826374430,-44783.73483454529
1710826374469,-45670.178450361826
1710826374508,-41940.70861990657
1710826374548,-44901.79722001543
1710826374588,-42747.20238131331
1710826374628,-52098.034213002305
1710826374668,-55141.02201193571
1710826374708,-65028.58480461873
1710826374748,-58004.60655835271
1710826374788,-30284.314065089915
1710826374828,-57200.74143423792
1710826374868,-68675.11196692334
1710826374908,-74667.49548867671
1710826374948,-72314.20243970538
1710826374988,-59092.73166460218
1710826375028,-37155.45056311507
1710826375068,-49366.5001562112
1710826375108,-60443.68344728835
1710826375148,-39306.40077794902
1710826375188,-31296.24241903145
1710826375228,-21293.650076854043
1710826375268,-10333.369738934096
1710826375308,-10736.752196677495
1710826375348,-9357.93486300204
1710826375388,-15792.843908944633
1710826375428,-14950.937235224992
1710826375468,-13751.1795161739
1710826375508,-13454.30053376127
1710826375548,-15807.537409919314
1710826375588,-18363.922067237087
1710826375628,-20219.873985125218
1710826375668,-25479.748307231814
1710826375708,-28792.870909614954
1710826375748,-31050.591407718137
1710826375788,-36941.49647661671
1710826375828,-37969.56184570212
1710826375868,-38896.48526545963
1710826375908,-38732.365295132855
1710826375948,-38454.288040916435
1710826375988,-39160.226562887896
1710826376028,-39302.65717173554
1710826376068,-40904.48506843462
1710826376108,-39440.26061174343
1710826376148,-39375.234959019814
1710826376188,-38231.14912807359
1710826376228,-38571.231007551076
1710826376268,-39694.084212203976
1710826376308,-38008.878140752204
1710826376348,-33164.80573959043
1710826376388,-32374.667177736294
1710826376428,-37333.39258890739
1710826376468,-45270.859183867695
1710826376508,-51855.65602084203
1710826376548,-54883.00608738884
1710826376588,-54079.9884373059
1710826376628,-52697.39213977568
1710826376668,-51944.456036621705
1710826376708,-51880.02377218101
1710826376748,-51956.32194153895
1710826376788,-53714.85943389777
1710826376828,-51059.354155797046
1710826376868,-48137.217446503
1710826376908,-47811.35214237147
1710826376948,-52115.43330204254
1710826376988,-51510.72441323777
1710826377028,-54946.83425640967
1710826377068,-52312.31950574042
1710826377108,-43336.65290933824
1710826377148,-37809.65108266543
1710826377188,-37458.71859895764
1710826377228,-42349.56214781338
1710826377268,-39672.504554463085
1710826377308,-48008.609882111894
1710826377348,-55077.6887412935
1710826377388,-48497.70358421933
1710826377428,-52221.723780991044
1710826377468,-47055.72059416142
1710826377508,-30063.883613004582
1710826377548,-25824.910634331172
1710826377588,-33538.412347499514
1710826377628,-41457.69797964627
1710826377668,-22974.828336215112
1710826377708,-15257.497317024041
1710826377748,-3649.0853494061157
1710826377788,10905.394856306491
1710826377828,16377.667485470418
1710826377868,5942.564919690136
1710826377908,1030.410311897751
1710826377948,21956.04375145049
1710826377988,21970.587732343934
1710826378028,18264.321678929962
1710826378068,7860.1297111092135
1710826378108,-3426.2216271858197
1710826378148,-624.3646523652133
1710826378188,-1176.529920194298
1710826378228,8180.3184552718885
1710826378268,680.7390533010475
1710826378308,2055.6108511756174
1710826378348,6076.893432900775
1710826378388,-257.00868669804186
1710826378428,-3431.5548352957703
1710826378468,-2362.9254193487577
1710826378508,-6023.805563018192
1710826378548,-14508.609712200006
1710826378588,-10910.410947484197
1710826378628,-3472.33260375401
1710826378668,-10908.156236756826
1710826378708,-8965.12808744656
1710826378748,-10854.941840969026
1710826378788,-24825.98917928571
1710826378828,-25552.621971751796
1710826378868,-17788.954533994896
1710826378908,-10013.542870464968
1710826378948,-28070.419558020774
1710826378988,-35659.386533154175
1710826379028,-44658.560460051056
1710826379068,-59025.47827563272
1710826379108,-61356.61897047935
1710826379148,-48135.92045103153
1710826379188,-37760.85081345774
1710826379228,-51557.98390665511
1710826379268,-48636.23579348065
1710826379308,-41467.205475567374
1710826379348,-28808.55402962584
1710826379388,-12413.938248265535
1710826379428,-10006.21165196551
1710826379468,-5781.856282520574
1710826379508,-6170.698040701449
1710826379548,571.3035549018532
1710826379588,6817.134859566111
1710826379628,6824.684144541156
1710826379668,3913.9104090197943
1710826379708,-2667.1250768695027
1710826379748,-8501.20462923497
1710826379788,-7842.420462849317
1710826379828,-8653.7540358291
1710826379868,-5177.8073239384685
1710826379908,-5619.602503467817
1710826379948,-6705.591913918499
1710826379988,-5578.881128434092
1710826380028,-7885.028136644047
1710826380068,-9029.575723642949
1710826380108,-9024.343914512312
1710826380148,-9645.58538871794
1710826380188,-8085.372689889744
1710826380228,-6029.299518100452
1710826380268,-4881.432631587144
1710826380308,-5666.263681789162
1710826380348,-3111.255906217266
1710826380388,-2303.426507282071
1710826380428,-112.86438756715506
1710826380468,-3734.295444780728
1710826380508,-11428.388252557255
1710826380548,-12221.490347533254
1710826380588,-11789.852935753297
1710826380628,-11640.392753947293
1710826380668,-10767.9646164882
1710826380708,-9641.656367639545
1710826380748,-9191.05510538374
1710826380788,-11418.285245565698
1710826380828,-9623.070554547478
1710826380868,-9142.46473213192
1710826380908,-9406.05152027565
1710826380948,-7708.159285433358
1710826380988,-5868.204261062667
1710826381028,-3913.3197188139893
1710826381068,-412.1220917920582
1710826381108,509.7913479625713
1710826381148,-1343.0047410451807
1710826381188,305.84433824243024
1710826381228,2724.849068970885
1710826381268,2801.294036090141
1710826381308,-2116.7446366581134
1710826381348,-5428.515493446961
1710826381388,-6841.545106002595
1710826381428,-5107.751649301965
1710826381468,-5517.721891983878
1710826381508,-7283.847607769538
1710826381548,-5377.195297475904
1710826381588,-4344.787634194596
1710826381628,-5121.954386780504
1710826381668,-4089.1838235508185
1710826381708,-3329.0264268284664
1710826381748,-1472.4568294561468
1710826381788,-38.77660130197182
1710826381828,1452.1390220746398
1710826381868,2949.5473192818463
1710826381908,4358.853127435315
1710826381948,5653.89273686544
1710826381988,6641.065271691885
1710826382028,8392.770093547646
1710826382068,10563.494562645908
1710826382108,10893.071426644223
1710826382148,3303.9772373004816
1710826382188,1292.225119515555
1710826382228,276.22039060434327
1710826382268,166.54581870976835
1710826382308,660.302251023706
1710826382348,1624.8644445720129
1710826382388,1983.9325253369752
1710826382428,2467.661942671519
1710826382468,2475.040055840742
1710826382508,2631.979628005065
1710826382548,3394.0025780368596
1710826382588,5345.831822605338
1710826382628,6431.497041589348
1710826382668,8147.879429548746
1710826382708,9195.181332628708
1710826382748,9953.549681801349
1710826382788,11261.991749009117
1710826382828,12428.944981517503
1710826382868,13619.37815104518
1710826382908,14859.332959592575
1710826382948,15368.96777743008
1710826382988,13162.607967588585
1710826383028,8591.22437117761
1710826383068,5693.912227841793
1710826383108,4415.9776704567485
1710826383148,3909.0416216719896
1710826383188,4713.4757814425975
1710826383228,5575.02992730285
1710826383268,6162.078912062338
1710826383308,5639.455233840039
1710826383348,5178.523428717861
1710826383388,5617.1656790704
1710826383428,5301.923777636141
1710826383468,5114.1068797244225
1710826383508,3650.1945447083563
1710826383548,3203.8963696719147
1710826383588,8659.273942465428
1710826383628,10573.034535647603
1710826383668,13222.445111508714
1710826383708,20186.225233907346
1710826383748,17044.38143663248
1710826383788,19028.97740651644
1710826383828,20204.572659305995
1710826383868,17187.400084708817
1710826383908,12950.934757060837
1710826383948,10124.4213481138
1710826383988,8034.53073374927
1710826384028,7296.534439253388
1710826384068,6934.861005148385
1710826384108,7483.7552903709
1710826384148,8219.824956468306
1710826384188,8050.337281563785
1710826384228,7960.603219149634
1710826384268,7938.16277570324
1710826384308,8739.816443925723
1710826384348,9356.369337328244
1710826384388,10617.040840546135
1710826384428,11338.161302252673
1710826384468,11435.695394267095
1710826384508,11922.480775668519
1710826384548,12809.712632574607
1710826384588,13913.969240699895
1710826384628,15194.131568264216
1710826384668,16319.612096133409
1710826384708,18300.25508599193
1710826384748,19480.197261799127
1710826384788,19218.710963617545
1710826384828,18163.963023145683
1710826384868,12699.769017887069
1710826384908,12593.092880377546
1710826384948,13703.967195404693
1710826384988,9051.885559674585
1710826385028,14433.372732388321
1710826385068,13867.46227750997
1710826385108,13608.421456626384
1710826385148,14848.837231372483
1710826385188,14943.833135141525
1710826385228,13945.22246083594
1710826385268,15239.2601439422
1710826385308,16977.99527585227
1710826385348,17992.40622454346
1710826385388,18755.848011122085
1710826385428,18196.929935573135
1710826385468,18641.275934169535
1710826385508,20009.33360289829
1710826385548,20940.29744891147
1710826385588,21062.518011820503
1710826385628,18166.62526649423
1710826385668,14005.562967004254
1710826385708,12349.57485481305
1710826385748,12390.540691169212
1710826385837,12835.388871806208
1710826385877,12760.567539959215
1710826385918,12928.839378543664
1710826385958,12273.47989526554
1710826385998,11084.724950264907
1710826386038,11592.855080705835
1710826386078,10867.939211138757
1710826386118,11523.565291704843
1710826386159,11646.423030189006
1710826386199,12615.835559525527
1710826386239,13644.423327751458
1710826386279,13601.889075912535
1710826386319,13721.046830194071
1710826386360,13568.798791048583
1710826386399,15925.562874305528
1710826386439,16857.410983643495
1710826386479,17673.513740543276
1710826386519,15482.017984015401
1710826386560,12407.375880003441
1710826386600,9568.88726795651
1710826386640,8049.827861496713
1710826386680,8528.400519833434
1710826386720,9305.533373664832
1710826386761,9693.811479223426
1710826386800,10015.943594799843
1710826386840,8743.972240105737
1710826386881,7467.634900136618
1710826386921,7694.574268473312
1710826386961,8015.292082544882
1710826387001,8319.17186464928
1710826387041,8841.410900901537
1710826387081,8923.388585394248
1710826387121,8475.788979128469
1710826387162,9301.719952725805
1710826387201,9809.805211094907
1710826387242,9418.49736948125
1710826387282,10248.634322376456
1710826387322,9760.372921204194
1710826387363,9469.239026359748
1710826387402,6039.816367938183
1710826387442,2983.3461176478304
1710826387482,1236.9445552304387
1710826387522,90.02663478325121
1710826387563,12.28538130922243
1710826387603,178.15889116399921
1710826387643,1198.9920819159597
1710826387683,31.77103869896382
1710826387723,261.36932036373764
1710826387764,32.13710030447692
1710826387803,574.8723416065332
1710826387843,993.004199748626
1710826387883,2086.903674930334
1710826387924,2138.684828778263
1710826387965,2537.646482586162
1710826388004,3217.397104103118
1710826388044,4030.6618776093237
1710826388084,4684.959867326543
1710826388124,5962.869137720903
1710826388165,6477.89728185581
1710826388205,7399.844918290153
1710826388245,6236.559230748098
1710826388285,3251.038952169474
1710826388325,64.54645848576911
1710826388366,-1427.1067179522943
1710826388405,-1497.2046364995185
1710826388445,-1624.3763336553238
1710826388485,-1661.1280963856261
1710826388526,-413.8775376409758
1710826388567,-776.5817968230695
1710826388606,-1195.0939826578833
1710826388646,-1263.1272376603447
1710826388686,-888.0601895526052
1710826388726,-128.86417765077204
1710826388767,189.56857311259955
1710826388807,1994.0483663217165
1710826388847,2957.3515391824767
1710826388887,3944.6853135423735
1710826388927,4586.56411452312
1710826388968,5179.840107814409
1710826389007,5534.6444851660635
1710826389048,6189.427334957058
1710826389088,6932.115773102269
1710826389128,4622.678017511498
1710826389169,654.77417545137
1710826389208,-1099.9880631514825
1710826389248,-2025.675801917212
1710826389289,-2037.1936666844413
1710826389329,-1862.7783655705862
1710826389370,-1716.0073031382635
1710826389409,-1553.1983036377933
1710826389449,-1795.141527346801
1710826389489,-2396.352492741542
1710826389530,-1974.3820124126505
1710826389570,-1567.555379211437
1710826389610,-541.5314551154152
1710826389650,237.48049443634227
1710826389690,1320.1382197239436
1710826389730,1877.3534831018187
1710826389771,3145.901747240685
1710826389811,3173.403048823122
1710826389851,4021.6680843012873
1710826389891,5475.022420563269
1710826389931,6003.340420325287
1710826389972,4339.544860052178
1710826390012,352.6067855039146
1710826390052,-2393.0205351444893
1710826390092,-4115.833739984548
1710826390132,-4776.065223454963
1710826390173,-5561.894841768779
1710826390212,-5488.59686900489
1710826390253,-5753.939916373696
1710826390293,-6138.4942428143695
1710826390333,-6582.235649548937
1710826390374,-6586.077247808222
1710826390413,-5741.808809462935
1710826390454,-4652.354190937243
1710826390494,-4075.0236368845217
1710826390534,-3476.203662609216
1710826390575,-3058.270028116647
1710826390614,-1725.7505881765392
1710826390655,-649.3663529260084
1710826390695,-43.612568591488525
1710826390735,1198.105660388479
1710826390776,2599.4215762806125
1710826390816,1161.0362985101528
1710826390856,-2349.0043122889474
1710826390896,-4956.123524831608
1710826390936,-6626.8473004146945
1710826390977,-7142.807618103223
1710826391017,-7007.975316985045
1710826391057,-7252.653079251759
1710826391097,-7723.534278287087
1710826391138,-8072.278447530698
1710826391179,-8640.24231305113
1710826391218,-8071.911619444378
1710826391258,-7954.693272897508
1710826391299,-6936.6952922870405
1710826391339,-6000.17336495081
1710826391380,-5225.643666771473
1710826391419,-4225.492692059604
1710826391460,-2982.637115200516
1710826391500,-2463.4942888231017
1710826391540,-1913.0837494859006
1710826391581,-954.7058095498942
1710826391621,174.20857369434088
1710826391661,1204.328981674742
1710826391701,-1256.9207426202483
1710826391741,-5363.390308575239
1710826391782,-8454.461187271867
1710826391822,-9112.1943113124
1710826391862,-9069.702102696057
1710826391902,-9088.726682071341
1710826391943,-8852.898160155863
1710826391983,-9482.470930026844
1710826392023,-9792.042325187474
1710826392063,-10363.776959444862
1710826392103,-9723.689014764037
1710826392144,-9652.973959490191
1710826392185,-9383.67499477975
1710826392224,-7866.8300554594025
1710826392265,-6114.729279200546
1710826392305,-5042.677249068394
1710826392345,-3435.4157600547187
1710826392386,-1648.3821973721497
1710826392426,-114.62706108018756
1710826392466,1446.7099789972417
1710826392506,1588.6492470817175
1710826392547,1150.0943577582948
1710826392588,132.2853208107408
1710826392627,-4119.350919611286
1710826392668,-7020.499258073047
1710826392708,-10840.092376773246
1710826392748,-15785.715497034136
1710826392789,-17472.105947543867
1710826392828,-20972.409052097937
1710826392868,-29085.406264950754
1710826392909,-35820.9145404147
1710826392949,-41894.529169555986
1710826392989,-42306.32261434803
1710826393029,-42746.20547995251
1710826393069,-42591.14409672958
1710826393109,-35838.52980476059
1710826393150,-33669.55700012343
1710826393190,-28424.293626998086
1710826393230,-22642.13102088496
1710826393271,-7835.784106974257
1710826393311,-1973.546976490412
1710826393351,4337.195302316686
1710826393392,5871.496714450885
1710826393431,8729.582858978305
1710826393472,16963.799603995634
1710826393512,17436.928100295598
1710826393552,22133.3486108887
1710826393593,24092.694709031377
1710826393632,26394.333048467524
1710826393673,30538.734635697678
1710826393713,31785.73772975197
1710826393753,30292.120639369125
1710826393794,27875.626925229328
1710826393833,23664.85040583182
1710826393874,21444.50807312876
1710826393914,16306.825529010268
1710826393954,25299.39610664663
1710826393995,33930.269407073036
1710826394035,42794.97930481704
1710826394075,43653.28265836951
1710826394115,42100.22853640723
1710826394155,54184.98246508045
1710826394196,65334.6128231599
1710826394236,73565.04339049594
1710826394277,79911.00098446477
1710826394317,82332.73174667312
1710826394357,70461.0739309031
1710826394398,40449.75665739132
1710826394438,28956.785685503855
1710826394478,21198.542593109887
1710826394518,14304.162433105987
1710826394558,-1642.1968663402367
1710826394599,-5111.149812105112
1710826394639,-12523.897309161257
1710826394679,-18708.225828720722
1710826394720,-21885.12224193616
1710826394760,-28270.76849921816
1710826394801,-25185.2897324902
1710826394840,-23911.735212211497
1710826394880,-19910.646565664094
1710826394921,-15804.056861622026
1710826394961,-16339.523343755398
1710826395002,-17823.176663753577
1710826395041,-20630.26339225215
1710826395082,-23741.985041352455
1710826395122,-21382.71586941043
1710826395162,-24401.366050217766
1710826395203,-24878.177418876905
1710826395243,-29239.09939324227
1710826395283,-30067.508128008107
1710826395323,-29303.69514762168
1710826395363,-25373.96648953948
1710826395404,-22616.538314458216
1710826395444,-24202.209996643942
1710826395484,-23525.15959938802
1710826395524,-24153.62179925712
1710826395565,-28438.079899467528
1710826395605,-30706.437002170132
1710826395645,-20628.668929470703
1710826395685,-1036.4124376687687
1710826395725,4990.445880400948
1710826395766,5912.067220446188
1710826395807,6809.6101497842465
1710826395846,7067.746038876241
1710826395887,5257.6974420927
1710826395927,8057.039808654226
1710826395967,11997.714861382032
1710826396008,16163.519342981279
1710826396048,19431.240607066546
1710826396088,22604.0931907068
1710826396128,28012.105490293354
1710826396168,33313.1455504552
1710826396209,37017.1508187803
1710826396248,37412.46159726824
1710826396289,36944.15931399516
1710826396329,36828.132216373924
1710826396369,38720.09001396061
1710826396410,39123.894564680755
1710826396449,35111.12574754609
1710826396489,31634.0675198799
1710826396530,29813.122186715715
1710826396570,28567.01431960007
1710826396611,26818.91453376226
1710826396650,25623.41988043813
1710826396690,25185.581400988158
1710826396730,25122.005630868254
1710826396771,22415.32101307297
1710826396811,22670.80873055826
1710826396851,20711.565415844554
1710826396891,19368.19445717847
1710826396931,18101.60694601247
1710826396971,18546.73672185
1710826397013,17899.720531942556
1710826397052,15413.993524526944
1710826397092,12723.791916184127
1710826397132,9637.508985661203
1710826397172,6270.71910309419
1710826397213,1276.1238451409154
1710826397253,-2797.114208209794
1710826397293,-3777.2208690375555
1710826397333,-4770.648351103999
1710826397374,-5498.599211919587
1710826397414,-7885.324972313829
1710826397454,-7441.988906106679
1710826397494,-7459.523803028744
1710826397534,-8185.019381213468
1710826397575,-8302.57346765371
1710826397616,-5714.582574956818
1710826397655,-4825.069802235346
1710826397695,-3561.3563948720694
1710826397736,-2300.476671594428
1710826397776,-1334.1319553945214
1710826397817,-449.58955918974243
1710826397857,-792.9789381213486
1710826397898,-497.81903813779354
1710826397938,-380.7472320627421
1710826397979,-2415.5414385336917
1710826398019,-5753.202241454506
1710826398059,-9869.01986505324
1710826398099,-10331.348004037747
1710826398139,-11205.01792441099
1710826398179,-12404.314633328235
1710826398220,-12143.602123882622
1710826398259,-11947.007432065904
1710826398299,-11729.664554062998
1710826398340,-9953.255351290107
1710826398380,-11401.075810009148
1710826398420,-9607.57951229019
1710826398460,-9470.618809211534
1710826398500,-9457.155548488256
1710826398540,-8771.189511840697
1710826398580,-8920.98754523648
1710826398621,-9004.757431049831
1710826398660,-7360.174405148253
1710826398701,-6308.922196317464
1710826398741,-5872.85874824645
1710826398781,-6448.64222899545
1710826398822,-7373.398165862076
1710826398861,-9640.560533441138
1710826398901,-11945.057092175819
1710826398941,-11569.690585808363
1710826398981,-11806.966196625028
1710826399022,-10600.643216066528
1710826399062,-9414.534120453056
1710826399102,-9410.984782563057
1710826399142,-8553.075418639928
1710826399182,-8592.005393644795
1710826399223,-8939.539695308078
1710826399262,-10072.816292493371
1710826399303,-12102.941964757629
1710826399343,-10305.713668505196
1710826399383,-11048.503576976713
1710826399424,-10843.858848732896
1710826399463,-9872.405002174666
1710826399503,-9690.71935450565
1710826399543,-9471.12091977615
1710826399583,-9367.168722837465
1710826399624,-10735.105939234607
1710826399664,-11456.685075748712
1710826399704,-15742.146742535988
1710826399744,-15189.171386254486
1710826399784,-11809.11440193886
1710826399825,-7394.840235072188
1710826399864,-5636.6221927443985
1710826399904,-4931.433458319167
1710826399945,-4704.559944932815
1710826399985,-3923.314746017102
1710826400026,-2738.7261105952784
1710826400065,-1014.8067577006295
1710826400105,484.9642868745141
1710826400145,3893.983980569057
1710826400185,7114.352270653471
1710826400226,10460.367690460756
1710826400266,14876.706395520363
1710826400306,17518.83783437847
1710826400346,19476.470193775604
1710826400386,21395.84808446141
1710826400427,23478.949611552758
1710826400466,24757.22742283391
1710826400507,21166.686834278982
1710826400547,17897.034205900738
1710826400587,15063.583621581085
1710826400628,12726.733085751766
1710826400667,11279.361905272119
1710826400707,9971.821815787815
1710826400747,7939.10839351383
1710826400787,8302.536530171521
1710826400828,7070.416522839805
1710826400868,16824.76676012855
1710826400908,21310.859200149775
1710826400948,21588.482738768216
1710826400988,23055.59651488252
1710826401028,23862.037495920435
1710826401068,24649.838152410928
1710826401108,23211.793019590434
1710826401148,22639.433575926116
1710826401188,22946.920259593055
1710826401229,20129.247850193875
1710826401268,15048.139096107334
1710826401308,11052.814958159812
1710826401349,8072.8383761532605
1710826401389,6978.931521712802
1710826401429,5729.130535514094
1710826401469,4551.633761444595
1710826401509,2612.6423175153323
1710826401549,548.4683641637675
1710826401589,-1223.1486918795854
1710826401630,-2545.076329074567
1710826401669,-3742.3895422597416
1710826401710,-5444.1346741728485
1710826401750,-7028.281531210523
1710826401790,-5916.599639787804
1710826401830,-6401.30165239051
1710826401870,-6223.721956395777
1710826401910,-6063.234014683403
1710826401950,-6241.970661791973
1710826401990,-7616.931678228546
1710826402031,-11461.767067779554
1710826402070,-17528.350944187026
1710826402110,-19364.05041981279
1710826402150,-23136.79974060785
1710826402191,-26834.52969618677
1710826402231,-25982.329584755236
1710826402271,-25359.29335510335
1710826402311,-25586.24712202605
1710826402351,-26613.39778812602
1710826402391,-27690.17793917493
1710826402432,-26511.341400870588
1710826402471,-26096.28893252206
1710826402511,-24860.823567357846
1710826402551,-23894.37389650056
1710826402591,-21729.503700244706
1710826402632,-19894.056467603892
1710826402672,-18577.430808029836
1710826402712,-18064.31161626056
1710826402752,-15978.580818904331
1710826402792,-17119.957235986367
1710826402833,-23058.835695419228
1710826402872,-26041.52290707268
1710826402912,-24170.45059159724
1710826402952,-20412.314471009187
1710826402992,-14449.906931401696
1710826403033,-9080.353634287138
1710826403073,-4659.003767751856
1710826403113,-1047.3366212076508
1710826403153,2559.6189645042177
1710826403193,5226.106400460703
1710826403234,8395.756728375563
1710826403273,10871.88305547554
1710826403313,12023.746973634232
1710826403353,12947.83777049603
1710826403393,16098.156623635907
1710826403434,18478.400678480742
1710826403473,23751.705258599948
1710826403514,24694.668547519483
1710826403554,26662.066198774148
1710826403594,24300.955378420418
1710826403635,21758.335582059808
1710826403674,20767.777411534684
1710826403714,19490.89894732088
1710826403754,20461.81493885559
1710826403794,20701.84566519549
1710826403835,21969.62596108322
1710826403875,21075.635777857155
1710826403915,21479.68528886931
1710826403955,20261.892388151027
1710826403995,21669.419404519722
1710826404036,22548.20806794986
1710826404075,23679.890858991304
1710826404115,26625.51052972488
1710826404155,28024.725731977727
1710826404195,28294.883561650757
1710826404236,29841.121622092323
1710826404276,29884.33640334569
1710826404316,31134.396317254286
1710826404356,32715.440807691542
1710826404396,34406.4949504449
1710826404437,32438.579620565986
1710826404476,29409.107772556134
1710826404516,28892.46598648606
1710826404557,27691.04931831034
1710826404597,30921.156371494522
1710826404637,32586.25851430185
1710826404677,35315.01169099705
1710826404717,37660.37437586067
1710826404757,33631.48574315477
1710826404797,34618.892497152556
1710826404838,35170.61746786861
1710826404877,35524.673159842845
1710826404917,36647.58362053521
1710826404958,36643.69250778924
1710826404998,37376.35765489284
1710826405038,38455.819432299584
1710826405078,40060.37748163473
1710826405118,38208.67631196603
1710826405158,38288.0850005399
1710826405198,37984.21649028151
1710826405239,37543.89813155774
1710826405278,31959.38504157099
1710826405319,27438.79946482042
1710826405359,24327.510606014635
1710826405399,17498.77181870723
1710826405440,10826.744204178452
1710826405479,5850.852820934262
1710826405519,2660.092687607277
1710826405560,111.37516513303854
1710826405600,-2773.8480751733296
1710826405641,-5394.483720806427
1710826405680,-3421.9754962846637
1710826405720,-5723.274410146289
1710826405760,-3509.0904189124703
1710826405801,-4491.916124556912
1710826405842,-4472.174841478001
1710826405881,-3642.313726800494
1710826405921,-3117.825488712173
1710826405962,-3793.242731365608
1710826406002,-3359.8939837003127
1710826406043,-4252.236497214064
1710826406082,-10908.25015458325
1710826406123,-16355.578483527526
1710826406163,-18950.38516746834
1710826406203,-24382.338541794103
1710826406244,-26801.280088280328
1710826406284,-25336.254005917115
1710826406324,-24877.47108455235
1710826406364,-22725.69370664796
1710826406404,-21212.965362206334
1710826406445,-22091.697714162525
1710826406485,-22664.127221623436
1710826406525,-23256.025980312377
1710826406565,-22638.68176545389
1710826406605,-23316.32510029734
1710826406646,-23375.43997471803
1710826406686,-22121.577893328387
1710826406726,-19949.772978266934
1710826406767,-19137.177047731588
1710826406807,-20085.30141565716
1710826406848,-22691.410748910625
1710826406888,-27080.774487779476
1710826406928,-31246.631877804175
1710826406968,-38567.56366681121
1710826407008,-38857.99644725304
1710826407049,-40727.73355094739
1710826407088,-39681.18395806011
1710826407129,-38132.81593606016
1710826407169,-40853.50804881705
1710826407209,-38960.86948312726
1710826407250,-39774.2312757452
1710826407289,-41119.02535154787
1710826407329,-41273.84963675495
1710826407370,-39619.99003865942
1710826407410,-38005.50435753027
1710826407450,-38068.11130178417
1710826407490,-36463.528713628184
1710826407530,-34144.62298558303
1710826407570,-33783.908874350134
1710826407611,-33009.31475502718
1710826407651,-34252.82524350076
1710826407691,-36489.19570452976
1710826407731,-40234.84254519525
1710826407771,-43797.83730920032
1710826407811,-45311.892011414515
1710826407852,-45929.74109375151
1710826407892,-45748.85947307851
1710826407932,-45961.6352625899
1710826407972,-45466.00927725062
1710826408012,-45083.90389845497
1710826408053,-44598.64045145316
1710826408093,-43634.68407901935
1710826408133,-42325.26999749709
1710826408173,-41328.7751400962
1710826408213,-40120.67765083467
1710826408254,-36808.86365127051
1710826408294,-35456.70336429216
1710826408334,-33627.804206000874
1710826408374,-32388.22972201486
1710826408414,-30691.864475833252
1710826408456,-27454.713074906264
1710826408495,-26171.623269309755
1710826408535,-27229.55533598014
1710826408576,-31119.26265372918
1710826408616,-31846.356689632405
1710826408657,-31302.46021466097
1710826408696,-30363.19731193129
1710826408736,-27661.130320038414
1710826408777,-26412.259631499648
1710826408817,-26052.785842489917
1710826408858,-25128.02695451863
1710826408897,-24459.541296074167
1710826408938,-23437.794480815297
1710826408978,-22413.11862370791
1710826409018,-21046.609328913968
1710826409059,-19128.66607823316
1710826409099,-16933.668355918024
1710826409139,-15180.19125128095
1710826409179,-13131.930737155955
1710826409220,-12173.947467962978
1710826409261,-11076.962976999814
1710826409300,-10044.537824370898
1710826409341,-8665.623023381224
1710826409381,-9769.911793953273
1710826409421,-15001.043671673164
1710826409462,-17498.909285032656
1710826409502,-18976.603664551163
1710826409542,-19459.156715425197
1710826409582,-18916.21758714784
1710826409622,-17932.911959533114
1710826409663,-17526.750831717625
1710826409703,-17618.203333519632
1710826409743,-18018.45714839734
1710826409783,-16616.250218104804
1710826409824,-16123.841222855961
1710826409864,-14751.654487160267
1710826409904,-13024.356900520623
1710826409943,-11598.2520549139
1710826409983,-9376.171469447203
1710826410023,-9960.263523184462
1710826410064,-6745.617083699908
1710826410104,-4591.843470851425
1710826410144,-3334.965360019356
1710826410184,-4796.197992889909
1710826410224,-9247.188456418458
1710826410265,-11358.566902937368
1710826410304,-11832.544739568839
1710826410344,-12292.345028525451
1710826410385,-11944.908493664116
1710826410425,-11162.725055276416
1710826410465,-10609.438072497956
1710826410505,-10135.560609221226
1710826410545,-7735.50612876052
1710826410585,-6347.159500912763
1710826410625,-4718.309815376066
1710826410666,-2922.57891616039
1710826410705,926.3644934054464
1710826410745,2709.345744807506
1710826410785,5550.571204464883
1710826410825,7932.17952656839
1710826410866,9954.761309816036
1710826410906,8805.43484000815
1710826410946,5580.18173396471
1710826410986,4694.861076228786
1710826411026,4551.480181089602
1710826411067,4461.043178748805
1710826411106,6131.332735746866
1710826411146,7504.9453643208835
1710826411186,7698.094172965735
1710826411226,7708.069448766066
1710826411267,6525.53405894991
1710826411306,7869.0186996948905
1710826411347,7481.199115839787
1710826411387,8185.876091595506
1710826411427,8780.469432795886
1710826411468,9566.420859979466
1710826411507,10971.020522017032
1710826411547,12197.775730189867
1710826411587,12213.062399945455
1710826411627,13015.531206698855
1710826411668,11487.018340926152
1710826411707,7407.743077984545
1710826411747,3945.5572850126773
1710826411787,3057.6461180804763
1710826411828,1028.2830733465962
1710826411868,1661.4055439333897
1710826411908,2757.821228362387
1710826411948,2383.6909715244547
1710826411988,1651.199591865763
1710826412028,2314.3631682549603
1710826412069,2254.124968125485
1710826412108,2978.3881354425102
1710826412148,3735.185740120709
1710826412188,4590.555031686323
1710826412228,6017.690632896265
1710826412269,6797.996250181459
1710826412309,7898.517130940221
1710826412349,8619.310211732984
1710826412389,9258.848274307093
1710826412429,9557.53628075542
1710826412470,6141.314959160984
1710826412509,2477.913263601251
1710826412549,937.2028172821738
1710826412589,-565.4541777861305
1710826412629,-493.2802880993113
1710826412670,202.1362640748266
1710826412709,262.3286754412111
1710826412750,465.0179852594156
1710826412790,720.6434470396489
1710826412830,694.6584154278971
1710826412870,1466.1257797407452
1710826412910,2525.177301004529
1710826412950,2967.5904194454197
1710826412990,3995.259215183556
1710826413030,5263.210549957585
1710826413071,6343.937951484229
1710826413110,7040.580856973771
1710826413151,8497.005039598094
1710826413191,9275.376055716071
1710826413231,10048.537798740901
1710826413271,7951.641097303946
1710826413311,3781.623207939323
1710826413351,1016.8256439510733
1710826413391,-1106.6186435488053
1710826413431,-1925.4059508242644
1710826413472,-1512.144495532848
1710826413511,-1092.6247441237792
1710826413551,-1608.0658156499267
1710826413591,-2184.005158717511
1710826413632,-2802.8342423494905
1710826413672,-2747.2220389381982
1710826413712,-2468.0267949670088
1710826413752,-2018.5974230365828
1710826413792,-1559.5789628643543
1710826413832,-1156.2075928356498
1710826413873,59.94628552137874
1710826413912,1227.4510597833432
1710826413952,615.8163347132504
1710826413993,773.3094269654248
1710826414033,-157.8386208442971
1710826414073,-4385.978305238765
1710826414113,-7395.8002318707295
1710826414153,-8936.349371003453
1710826414193,-9303.450571588008
1710826414233,-9318.561086279806
1710826414274,-8854.914551939815
1710826414313,-8787.176899013575
1710826414354,-8638.14831711282
1710826414394,-7745.2142809210345
1710826414434,-7517.9394314121455
1710826414474,-6090.692614087835
1710826414514,-4534.034970044624
1710826414554,-2968.1998024538625
1710826414594,-1092.047878896352
1710826414634,155.57250909414142
1710826414675,817.4268600866199
1710826414714,2334.4774319678545
1710826414754,3852.2356766643934
1710826414794,4969.448448667768
1710826414835,2224.65073898877
1710826414875,-1580.1689467679244
1710826414915,-3310.125754484907
1710826414955,-3662.171146641951
1710826414995,-3926.9956666408107
1710826415035,-4135.343984628562
1710826415076,-3317.831527689472
1710826415115,-3569.9177843010984
1710826415155,-3316.7752328719944
1710826415195,-3920.06770642451
1710826415235,-2671.422826501308
1710826415276,-777.0370436687954
1710826415316,-133.4184193275869
1710826415356,1223.438365947688
1710826415396,2195.5876121385954
1710826415436,3925.9934110962786
1710826415477,7080.436360445339
1710826415516,9538.84997738502
1710826415556,11635.850489681121
1710826415596,13619.71743719466
1710826415636,12476.990957191447
1710826415677,9781.894875997677
1710826415717,7455.314979073126
1710826415757,4712.946043698583
1710826415797,4084.6953053355683
1710826415837,3177.152310796082
1710826415878,2559.2780597275123
1710826415917,2030.545496285893
1710826415957,2624.864989291411
1710826415997,2413.016595095629
1710826416037,1664.9023637734354
1710826416078,1659.4253974282183
1710826416117,2959.6633349624462
1710826416158,4633.866771805566
1710826416198,5520.914769062307
1710826416238,6554.555511948653
1710826416279,7356.359176465776
1710826416318,8196.605571254157
1710826416358,9161.994997641537
1710826416398,10775.382005142514
1710826416438,10922.722779149888
1710826416479,8282.2399877063
1710826416519,6238.732624154305
1710826416559,6819.357037523296
1710826416599,11279.911458692746
1710826416639,15133.269834875595
1710826416680,20781.822034575976
1710826416719,25163.620626147836
1710826416759,26939.522933621425
1710826416799,29034.40421458846
1710826416840,32279.830114341807
1710826416881,35780.94386306219
1710826416920,38228.52844421333
1710826416960,40505.13082254375
1710826417000,42056.02045610803
1710826417040,43827.00111478311
1710826417081,43624.27597378008
1710826417120,40938.434799902374
1710826417160,40823.62405922334
1710826417201,42339.07866175147
1710826417241,38686.5446832031
1710826417282,32190.99975409126
1710826417321,29431.39850916271
1710826417361,26334.691234130412
1710826417401,23118.966937440448
1710826417441,20598.373150471132
1710826417483,17830.95387451444
1710826417522,13809.261655039852
1710826417562,11296.819842191413
1710826417602,9574.652458553901
1710826417642,8118.117409321945
1710826417683,8248.607055003755
1710826417723,9203.162662103307
1710826417763,12190.258850050624
1710826417803,14955.359218046535
1710826417844,16167.579416448949
1710826417885,18402.28227838874
1710826417924,20567.949503467185
1710826417964,21657.5535175798
1710826418004,20670.39885643404
1710826418045,17587.24933557841
1710826418086,14417.456595659722
1710826418125,13326.188523750054
1710826418165,12152.79427040671
1710826418205,11285.883476865478
1710826418245,10331.176492312225
1710826418286,9535.334311780985
1710826418326,7843.373894299846
1710826418366,6727.229638684541
1710826418406,9193.131270940881
1710826418446,8610.659932975192
1710826418487,6933.734100109199
1710826418527,6553.685688687023
1710826418567,8821.28188502579
1710826418607,7550.55335610616
1710826418647,7180.171265611658
1710826418688,6737.4544117162
1710826418727,6216.55048198672
1710826418768,4939.573088641278
1710826418808,1080.5761616209056
1710826418848,-2871.3918425869197
1710826418889,-5302.816003488377
1710826418928,-5800.2941791922785
1710826418968,-6786.270147410454
1710826419009,-7125.941534941085
1710826419049,-8270.1450025714
1710826419090,-9146.52235980588
1710826419129,-9213.167481009383
1710826419170,-9086.12074064603
1710826419210,-8456.17887150147
1710826419250,-8981.65294796601
1710826419291,-9353.558763471898
1710826419330,-8439.21391741559
1710826419370,-6441.230307873106
1710826419411,-6263.413614623714
1710826419451,-5846.952846979257
1710826419492,-4762.522019695956
1710826419532,-3496.588615498971
1710826419572,-4089.5443661194295
1710826419612,-7736.347695393488
1710826419652,-10520.99995981087
1710826419693,-12655.240563797066
1710826419733,-13743.35303210537
1710826419773,-14220.749582381919
1710826419813,-14041.638541230932
1710826419853,-14545.448843830498
1710826419895,-14551.535606106045
1710826419934,-15095.97504937998
1710826419974,-15002.930910782889
1710826420015,-14721.053693873342
1710826420055,-14948.322489058599
1710826420096,-13991.30581288482
1710826420135,-12668.687004711246
1710826420176,-11555.444201574195
1710826420218,-10640.404799500946
1710826420258,-10113.008975976845
1710826420299,-9237.116706013214
1710826420338,-7738.599282266572
1710826420379,-6922.017531856662
1710826420419,-7245.597324942704
1710826420459,-11183.162745419657
1710826420500,-16578.784402771387
1710826420540,-18409.352961011697
1710826420580,-19487.05280736601
1710826420620,-19393.585393214133
1710826420660,-19273.67113351426
1710826420701,-18435.225909296423
1710826420741,-17626.09765736386
1710826420781,-17540.44954944076
1710826420821,-17884.53612651117
1710826420862,-17151.33724259911
1710826420902,-15243.878821665887
1710826420942,-14738.330950070871
1710826420982,-13148.343157522846
1710826421022,-10917.396477237344
1710826421063,-10013.00802058028
1710826421104,-9374.462636589771
1710826421143,-5586.51975416299
1710826421184,-4202.820971943205
1710826421224,-5066.655420758296
1710826421264,-8866.17561122938
1710826421305,-13047.248410730623
1710826421344,-14531.19269369333
1710826421384,-14753.490739032859
1710826421425,-14477.45896419906
1710826421465,-14134.026297527598
1710826421506,-13956.645768726012
1710826421545,-12907.757987235207
1710826421585,-12788.924630014692
1710826421625,-12251.722571457969
1710826421666,-11746.130105066812
1710826421707,-10108.435228938702
1710826421746,-8675.719535976183
1710826421786,-7444.396893973229
1710826421826,-6751.635275364853
1710826421866,-4682.327579648234
1710826421907,-3355.4968689382076
1710826421947,-1094.2780543412082
1710826421988,307.4596534699667
1710826422028,-1528.9332685791887
1710826422068,-3925.445564556867
1710826422109,-3890.5385168227367
1710826422148,-2999.7775911402423
1710826422188,-3009.9342764986213
1710826422228,-1196.170964738354
1710826422268,-512.3958892636001
1710826422309,-988.5741974799894
1710826422349,-803.8232264015824
1710826422389,-409.1619686745107
1710826422429,-830.6674777169246
1710826422469,529.4818154722452
1710826422510,1002.2156768245623
1710826422549,2269.6160237831064
1710826422589,5032.965451698285
1710826422629,8255.151389630046
1710826422669,12484.782286792295
1710826422710,19704.781712769996
1710826422749,27702.317457296187
1710826422790,33878.695366891334
1710826422830,37122.87997406628
1710826422870,41618.841197375674
1710826422911,46224.74768837076
1710826422950,49627.28851172794
1710826422990,50289.70855924999
1710826423030,51946.74417628022
1710826423070,53747.41710152989
1710826423111,52609.43677644478
1710826423151,50665.98554168781
1710826423191,50251.400045565795
1710826423231,50221.85356328008
1710826423271,50356.2752471338
1710826423312,51399.021274297964
1710826423351,51276.16887542629
1710826423391,50294.48925164435
1710826423431,49702.941822178196
1710826423471,48991.843709791545
1710826423512,48096.589131660294
1710826423551,47198.7611777375
1710826423592,43752.62406362081
1710826423632,38196.35074289958
1710826423672,34469.89539891342
1710826423713,32697.529795018956
1710826423752,30851.533245448954
1710826423792,30765.55903909728
1710826423832,30805.84298971831
1710826423872,30437.904406465124
1710826423913,31481.76546049211
1710826423952,33741.88617786532
1710826423993,31131.932622997323
1710826424033,29998.794194783084
1710826424073,30323.37535198126
1710826424114,30299.33114741277
1710826424153,29395.986028212355
1710826424193,29738.69174875808
1710826424233,29700.34446457168
1710826424273,31232.281571255066
1710826424314,30862.158574495465
1710826424354,28468.025367500028
1710826424394,23325.142545053503
1710826424434,22547.827571311034
1710826424474,19501.334142636042
1710826424514,18980.092071342748
1710826424554,18581.465859200805
1710826424594,17961.35926533211
1710826424634,19779.476146005094
1710826424674,21699.489511695225
1710826424715,21947.10306571657
1710826424754,25870.09731393028
1710826424795,27621.732881737407
1710826424835,27986.7270053369
1710826424875,28787.766058751615
1710826424916,28222.97249240335
1710826424955,27916.10595561471
1710826424995,27170.40547408024
1710826425035,28105.03722487809
1710826425075,27469.60358300479
1710826425116,23280.24910181854
1710826425155,20217.840389871504
1710826425196,18855.61867201561
1710826425236,16311.973801037297
1710826425276,17564.14023169619
1710826425317,16503.783618226647
1710826425356,14396.743923132308
1710826425396,13295.866213842994
1710826425436,11650.390956114978
1710826425476,8950.502159476979
1710826425517,8132.301772336476
1710826425557,8674.182359448168
1710826425597,9179.432196256705
1710826425637,8912.128567641601
1710826425677,11456.684459981509
1710826425718,8372.346382485237
1710826425757,10218.879963797983
1710826425797,8699.795080596115
1710826425837,4983.718114482239
1710826425877,1492.3688248470426
1710826425918,-1237.500451226253
1710826425957,-3212.2721682891715
1710826425998,-3094.0011840052903
1710826426038,-5152.395826793974
1710826426078,-5049.486486732028
1710826426119,-5306.164027151186
1710826426158,-6137.8266435039695
1710826426198,-4439.394538345747
1710826426238,-3629.140864180401
1710826426278,-1358.4907388987485
1710826426319,-1082.8941657072864
1710826426358,807.9962425241247
1710826426399,739.9583545764908
1710826426439,1528.4218666600063
1710826426479,6499.801156874513
1710826426520,6163.216451059096
1710826426559,8668.355879483745
1710826426599,10509.0598658924
1710826426639,14477.396474181209
1710826426679,17492.81494440697
1710826426720,18425.610425471794
1710826426760,19513.970987767912
1710826426800,20063.85218749172
1710826426840,21553.88925987808
1710826426880,19610.298770572757
1710826426921,18303.124556724913
1710826426960,15377.950717103668
1710826427000,15662.638342514634
1710826427040,14315.851512512658
1710826427080,13526.881240911782
1710826427121,13117.135437636636
1710826427161,12884.583230301738
1710826427201,12667.596041236073
1710826427241,13220.097586764488
1710826427281,12166.09593065735
1710826427322,6792.916818339378
1710826427361,1234.2463792823255
1710826427401,-695.3817661460489
1710826427441,-2573.456907642074
1710826427482,-5026.297775682062
1710826427522,-4376.952169686556
1710826427562,-4824.816094391979
1710826427602,-5339.706689663231
1710826427642,-7516.923255086876
1710826427682,-5150.846435180865
1710826427723,-5975.247035250068
1710826427763,-9199.544770189561
1710826427803,-4280.222340042703
1710826427843,-4709.646623938344
1710826427883,-2231.7240254906937
1710826427924,-3082.1405274383724
1710826427963,-2710.1650078333914
1710826428003,-1188.6511001037434
1710826428043,-3691.6564038614742
1710826428083,-6924.44004419446
1710826428124,-9990.391465930268
1710826428163,-10714.844527013134
1710826428204,-10764.036778225098
1710826428243,-10211.117871331517
1710826428284,-11864.128534972668
1710826428325,-11789.96427940717
1710826428364,-11808.645568670705
1710826428404,-12423.262892289786
1710826428444,-12037.264682077337
1710826428484,-11563.894690341083
1710826428525,-10899.05853434652
1710826428564,-10424.146157496143
1710826428604,-8626.843485382386
1710826428644,-6061.510070264805
1710826428684,-5821.575012989109
1710826428725,-5033.912811367307
1710826428765,-3886.5375358415768
1710826428805,-6699.227657018229
1710826428845,-9883.46299882885
1710826428885,-11273.270746600349
1710826428926,-11207.39577080682
1710826428965,-12396.227988126688
1710826429005,-11553.580614184495
1710826429045,-12008.5309842946
1710826429085,-12966.593137331307
1710826429126,-11748.015285525704
1710826429165,-11337.139932908583
1710826429205,-9959.385563723277
1710826429245,-8201.182380519807
1710826429286,-7193.045631496701
1710826429326,-4273.441830957076
1710826429366,-3202.663847524207
1710826429406,-2322.7903253319673
1710826429446,-374.6831270707771
1710826429486,150.28847059607506
1710826429527,-41.80004176776856
1710826429566,-868.0660850813147
1710826429606,-3930.7181879754644
1710826429647,-5638.671496373136
1710826429687,-5911.0247332945
1710826429728,-7947.888391655404
1710826429767,-6980.3333351523615
1710826429807,-5682.041514770128
1710826429847,-6280.174688056344
1710826429888,-4979.904575808207
1710826429928,-5346.34669040516
1710826429968,-4362.926570423879
1710826430008,-2422.950192345772
1710826430048,-1769.671328548342
1710826430090,-1522.3011351954192
1710826430132,988.3276743728202
1710826430171,1879.9096003281884
1710826430211,2009.1861416064203
1710826430251,3611.5523671305273
1710826430292,4834.9142172629945
1710826430333,6558.112319937209
1710826430372,5618.479500548216
1710826430412,1731.1137334795203
1710826430453,-401.2690621269867
1710826430493,-1779.1360217435285
1710826430534,-1436.8970813557971
1710826430573,238.84395762975328
1710826430614,-491.55731473863125
1710826430654,-1178.9966535929125
1710826430694,-2894.555714881746
1710826430735,-2866.4123784713447
1710826430774,-2284.090594295878
1710826430815,-268.98839915473945
1710826430855,-517.5439425930381
1710826430895,2776.5306126489304
1710826430936,5278.122476338409
1710826430976,7454.262555419467
1710826431016,12337.3806491117
1710826431056,13878.532168197446
1710826431097,15329.515481070383
1710826431137,17887.37577479938
1710826431177,15763.646567521617
1710826431217,16536.524282438215
1710826431257,17811.04241775046
1710826431298,17320.63663317915
1710826431339,16160.794922411907
1710826431378,16023.308862636331
1710826431418,12567.796019901754
1710826431459,10124.394084008876
1710826431499,10381.342559064273
1710826431540,8696.692855512723
1710826431580,7891.822574624792
1710826431620,7966.460746767698
1710826431660,6700.284396750387
1710826431700,8673.743170126108
1710826431741,8502.228821530472
1710826431781,10464.206561022904
1710826431821,8559.387762224302
1710826431861,8490.456307454966
1710826431901,7346.357270915527
1710826431943,4276.665999635123
1710826431982,186.67826202930883
1710826432022,-3803.6960757304914
1710826432063,-4327.1345851230435
1710826432103,-4007.343250607606
1710826432145,185.2817519446835
1710826432184,2290.2199006443843
1710826432224,5107.602428757586
1710826432265,8207.68373188749
1710826432305,9938.274256040342
1710826432346,14249.7666187156
1710826432385,17762.374350560363
1710826432425,20496.141858781688
1710826432465,21447.45129597094
1710826432506,22555.225828100927
1710826432547,24433.628600866068
1710826432586,24211.947658952326
1710826432626,24384.425045963377
1710826432666,23113.083975791465
1710826432706,21775.123595337383
1710826432747,21589.54054827057
1710826432787,20943.21537816152
1710826432827,21904.807305265218
1710826432867,21988.571288370527
1710826432907,20998.749198397156
1710826432948,21199.783748415764
1710826432988,21550.27753473632
1710826433028,25713.582735576667
1710826433068,29518.57731629815
1710826433108,34723.57065849751
1710826433149,36809.6632854566
1710826433189,39725.998972067144
1710826433229,40789.964100209065
1710826433269,42444.90626342408
1710826433309,41722.708857141435
1710826433350,41603.11410480412
1710826433390,42885.61878936924
1710826433430,42024.585662626196
1710826433470,37352.45090089319
1710826433511,31433.423677816987
1710826433552,27895.54264426045
1710826433591,21940.598710308783
1710826433631,16907.1766362451
1710826433672,13173.181163291913
1710826433712,9883.607141160872
1710826433753,7163.95509264851
1710826433792,2666.4519089125097
1710826433833,-1444.0951225981116
1710826433873,-4357.468633478042
1710826433913,-6588.850443136878
1710826433954,-7499.871348770801
1710826433994,-7264.3407372850925
1710826434033,-8748.412263196427
1710826434072,-12801.038419499528
1710826434111,-19049.3420964838
1710826434150,-21570.130494621582
1710826434189,-22017.416425233707
1710826434228,-27519.071780862287
1710826434267,-35840.88361795107
1710826434306,-41718.08777874755
1710826434345,-48359.42720196955
1710826434384,-50479.60581557453
1710826434423,-54663.44267274719
1710826434462,-56211.29123500548
1710826434501,-57569.77208874235
1710826434540,-56812.76668393705
1710826434579,-56765.02674136823
1710826434618,-57355.96733817598
1710826434657,-56290.92690566974
1710826434696,-55140.02235073503
1710826434735,-53415.71126993559
1710826434774,-51480.77872698195
1710826434814,-52112.67843105504
1710826434854,-45605.22898859903
1710826434894,-41428.80575795192
1710826434934,-40469.51662777527
1710826434974,-45239.26087418385
1710826435014,-50588.788167072926
1710826435054,-53088.062382865464
1710826435094,-57719.64539845241
1710826435134,-57387.822307255585
1710826435174,-57126.699564658105
1710826435214,-56350.92734446982
1710826435254,-55110.62538194237
1710826435294,-57379.68694240786
1710826435334,-55769.21576259821
1710826435374,-50487.26394601702
1710826435414,-49916.741455606185
1710826435454,-51564.842746740906
1710826435494,-49584.877664780244
1710826435534,-48388.86785605992
1710826435574,-46378.02425988228
1710826435614,-43628.41922936635
1710826435654,-43158.13769164216
1710826435694,-40131.40047441516
1710826435734,-38931.24103281833
1710826435774,-39073.681149170035
1710826435814,-45060.801025836496
1710826435854,-47502.32503970526
1710826435894,-50630.5711693191
1710826435934,-56618.23519367282
1710826435974,-57979.487362799235
1710826436014,-60317.23936675489
1710826436054,-64262.082484607585
1710826436094,-61948.59097140259
1710826436134,-63292.98188533797
1710826436174,-60137.909753226675
1710826436214,-60021.266961000394
1710826436254,-57098.170258067315
1710826436294,-60129.25278819259
1710826436334,-72759.78700228734
1710826436374,-68610.80036241398
1710826436414,-45201.63854297111
1710826436454,-35398.71366942627
1710826436494,-26304.40620179195
1710826436534,-22514.184037517523
1710826436574,-18933.998077781405
1710826436614,-22554.425246533938
1710826436654,-23915.019110148074
1710826436694,-24449.225809827913
1710826436734,-34598.94299822347
1710826436774,-35256.44256352587
1710826436814,-54178.807341204956
1710826436854,-57226.508853494655
1710826436894,-57152.59935910953
1710826436934,-64686.82672278141
1710826436974,-57093.03130011121
1710826437014,-57192.91906336835
1710826437054,-53014.675790358335
1710826437094,-67561.01463113073
1710826437134,-90445.00099801738
1710826437174,-78354.15223598666
1710826437214,-55966.815379319945
1710826437254,-47472.26473652804
1710826437294,-33400.24194052373
1710826437334,-17882.972074959427
1710826437374,-6337.089823194314
1710826437414,-14249.60230777599
1710826437454,-32946.689986355836
1710826437494,-18580.622819177108
1710826437534,-8821.517534241313
1710826437574,3784.583282090258
1710826437614,21570.954264711356
1710826437654,31557.999429006595
1710826437694,18381.742533812765
1710826437734,18562.79149320675
1710826437774,17467.76679274463
1710826437814,23923.722774511203
1710826437854,27106.89800212509
1710826437894,34537.94898179686
1710826437934,33361.93370559602
1710826437974,35905.20554912556
1710826438014,49215.63735382818
1710826438054,52947.804211417446
1710826438094,72539.32487709494
1710826438134,75761.71183571918
1710826438174,76161.4032296734
1710826438214,77759.90166334901
1710826438254,69660.54315062193
1710826438294,64087.1883837909
1710826438334,55994.18090945063
1710826438374,67317.0397480845
1710826438414,88484.37837540917
1710826438454,74591.42661790596
1710826438494,54125.66102884151
1710826438534,47357.55010012048
1710826438574,36094.400561207905
1710826438614,28233.99295972148
1710826438654,18601.323781200685
1710826438694,34224.06917827879
1710826438734,55958.88527228171
1710826438774,46830.108458510134
1710826438814,43626.90211215848
1710826438854,48551.81743498612
1710826438894,57227.9246692874
1710826438934,53225.60178093938
1710826438974,58383.529934016056
1710826439014,61746.79199447157
1710826439054,66028.93331807782
1710826439094,65971.64007072197
1710826439134,72214.16235630447
1710826439174,74155.56170729874
1710826439214,75410.27864883398
1710826439254,74013.37041113549
1710826439294,69357.5281185084
1710826439334,62725.21933391271
1710826439374,63512.98919893522
1710826439414,61295.927616914734
1710826439454,58662.077000438236
1710826439494,61228.672029642854
1710826439534,54859.684312197845
1710826439574,55358.86329800077
1710826439614,52534.186379309045
1710826439654,49352.80693434854
1710826439694,45498.85105097294
1710826439734,46340.229906448396
1710826439774,46573.407885719556
1710826439814,43974.337455692934
1710826439854,43837.557142904494
1710826439894,41531.891525518615
1710826439934,42168.65614079847
1710826439974,41587.079658601666
1710826440014,43539.39960636641
1710826440054,47601.08086259663
1710826440094,48329.88729552296
1710826440134,42642.518476097845
1710826440174,36025.56713560317
1710826440214,37015.47957447916
1710826440254,32916.14124656003
1710826440294,29975.670975074172
1710826440334,31109.242258610204
1710826440374,35912.14203220233
1710826440414,35126.91266762186
1710826440454,31845.04907061765
1710826440494,31222.944356129505
1710826440534,29762.431836341042
1710826440574,31439.511418376118
1710826440614,31214.76916435128
1710826440654,31076.609267277177
1710826440694,31548.861193682533
1710826440734,30783.381140774116
1710826440774,29134.324692509137
1710826440814,28852.468355435878
1710826440854,29460.693985919934
1710826440894,29459.523455615155
1710826440934,26100.810994319618
1710826440974,20103.718591832556
1710826441014,17965.360537682194
1710826441054,17235.334166569635
1710826441094,17144.59718119353
1710826441134,16782.544344735797
1710826441174,16247.808466460556
1710826441214,14398.22510689916
1710826441254,2159.2815129570663
1710826441294,-19881.47168141324
1710826441334,-55695.613437911496
1710826441374,-78116.33215609007
1710826441414,-90116.10619251244
1710826441454,-86532.11326863337
1710826441494,-88887.40471474221
1710826441534,-71586.31122930814
1710826441574,-37228.422960297205
1710826441614,-31410.17867547646
1710826441654,-33220.2068379391
1710826441694,-5631.649692794308
1710826441734,-3286.4174341922626
1710826441774,-10173.328242596239
1710826441814,-12082.97793692723
1710826441854,-7819.950136961415
1710826441894,-5592.449143504724
1710826441934,1280.7185346577317
1710826441974,11093.71998232603
1710826442014,15578.895669820718
1710826442054,21770.681490936782
1710826442094,24672.584809950553
1710826442134,22383.70811262261
1710826442174,24251.212847267278
1710826442214,24669.676476997323
1710826442254,26583.80452094553
1710826442294,25852.474967281334
1710826442334,25483.071127675008
1710826442374,21869.763142504264
1710826442414,14734.956086250022
1710826442454,7595.452726043295
1710826442494,2960.441741822753
1710826442534,10941.495753377676
1710826442574,28882.820437904913
1710826442614,61933.88229348557
1710826442654,79701.75800659391
1710826442694,91338.61748764059
1710826442734,87515.94554207404
1710826442774,95427.34909285326
1710826442814,82480.11893574148
1710826442854,55936.18821197748
1710826442894,42079.76922304649
1710826442934,25335.613410278223
1710826442974,-7572.1085301768035
1710826443014,-11472.627304949798
1710826443054,-1494.8801626437344
1710826443094,5153.26450322289
1710826443134,-4955.975693712942
1710826443174,-9684.585342816077
1710826443214,-18883.183407415636
1710826443254,-21313.8551045903
1710826443294,-17646.63448007824
1710826443334,-16877.25966034457
1710826443374,-13726.089434820227
1710826443414,-5247.164237238932
1710826443454,-4472.804273405112
1710826443494,-2789.6441801730543
1710826443534,2756.231863372028
1710826443574,5145.605581761338
1710826443614,5969.78005345352
1710826443654,-6222.1188442399725
1710826443694,-2792.355801234022
1710826443734,2034.5164153617807
1710826443774,12323.417034978513
1710826443814,33096.40575906914
1710826443854,29185.836748907343
1710826443894,25237.154169695452
1710826443934,31409.777652786113
1710826443974,33257.55870558927
1710826444014,57310.64018180687
1710826444054,78011.91465406865
1710826444094,-111354.40995625593
1710826444134,-120501.95938895922
1710826444174,-86609.77659439575
1710826444214,-67174.06715093553
1710826444254,-56614.74714552378
1710826444294,-46900.814601881895
1710826444334,-47213.89259242639
1710826444374,-39052.04323536577
1710826444414,-30564.876691873185
1710826444454,-24087.25070423074
1710826444494,-14005.322304366622
1710826444534,-8958.260299882852
1710826444574,-3824.1488455422223
1710826444614,688.6957691530697
1710826444654,1587.488235784229
1710826444694,-6845.2182654561475
1710826444734,-12774.022751088254
1710826444774,-16141.863208888099
1710826444814,-21565.118241490796
1710826444854,-22627.809023970738
1710826444894,-21299.740921955556
1710826444934,-6717.765197935514
1710826444974,-6700.387297700159
1710826445014,-10164.926863005385
1710826445054,-17995.951309954748
1710826445094,-38676.20082604792
1710826445134,-31653.746807368007
1710826445174,-23577.401980598457
1710826445214,-20368.054197575897
1710826445254,-17420.279761576094
1710826445294,-51272.72308155708
1710826445334,-92675.20886183763
1710826445374,91993.35553233861
1710826445414,89743.53906664578
1710826445454,65756.82235481218
1710826445494,70698.23576087551
1710826445534,67106.97694640514
1710826445574,60206.360394003335
1710826445614,62938.01152819488
1710826445654,54938.50791434245
1710826445694,49583.982425611466
1710826445734,46031.32556119375
1710826445774,42816.32446957566
1710826445814,42401.35855212668
1710826445854,40774.15077874297
1710826445894,38268.50324316416
1710826445934,36030.80859681219
1710826445974,37405.83834305126
1710826446011,38028.35246344097
1710826446051,39224.0723855719
1710826446091,36873.34667182155
1710826446132,29567.802665431984
1710826446171,21488.05196499126
1710826446211,17231.965562201105
1710826446251,15042.763523687609
1710826446291,13974.487656956539
1710826446332,12591.462084179744
1710826446371,12857.950211289339
1710826446411,11198.95383534208
1710826446452,9358.772699153516
1710826446492,8973.30098261591
1710826446533,8212.391718566883
1710826446572,9075.609824776184
1710826446612,9078.777936367318
1710826446652,9275.048550915904
1710826446692,9932.006543688476
1710826446733,10736.438842955511
1710826446772,11059.552531965543
1710826446813,10531.89452912286
1710826446852,9160.18920300249
1710826446893,7637.688005223405
1710826446934,6214.302398494445
1710826446973,3068.4592936979607
1710826447013,-3507.483688500244
1710826447053,-10695.304856375325
1710826447093,-17489.619285680354
1710826447134,-24531.9893832393
1710826447173,-29186.15245290287
1710826447213,-32440.71849262668
1710826447253,-36657.99760296568
1710826447293,-40164.8078836631
1710826447334,-42058.90451974515
1710826447373,-43390.195770360995
1710826447414,-43575.27655545622
1710826447454,-39123.81346912682
1710826447494,-33009.45473376941
1710826447535,-31002.736926272977
1710826447574,-28563.096179004293
1710826447614,-22259.013802827336
1710826447654,-19373.7319405484
1710826447694,-17900.15932863485
1710826447735,-17481.889067118987
1710826447775,-14357.271844739094
1710826447815,-10628.456590921152
1710826447855,-9891.876087003388
1710826447895,-13205.9700990594
1710826447936,-14995.471956879366
1710826447975,-14811.961247467902
1710826448015,-11385.953189435415
1710826448055,-5583.584327309392
1710826448095,417.087722315453
1710826448136,7867.0829933723435
1710826448175,13568.807116070762
1710826448215,15905.326554584317
1710826448256,15947.379263401963
1710826448295,12900.069063502364
1710826448337,14396.933890884742
1710826448376,17516.797434171196
1710826448416,23836.37819934264
1710826448456,27299.672365791164
1710826448496,31302.597792030312
1710826448537,32493.130001406185
1710826448576,31117.326062493958
1710826448616,29916.81768486742
1710826448656,30608.27738621179
1710826448696,30602.037470302545
1710826448738,27167.784556017257
1710826448777,22853.305014885496
1710826448817,22145.83102270495
1710826448857,19884.34836578928
1710826448897,16389.438874918967
1710826448938,12570.699597748928
1710826448977,13250.870009856299
1710826449017,14013.16991899535
1710826449057,11035.51527051907
1710826449097,9093.824306658003
1710826449138,8766.77324345056
1710826449178,9711.825052096043
1710826449218,9281.399738624692
1710826449258,10971.62883167155
1710826449298,13503.71064013429
1710826449339,13344.193961128592
1710826449378,15916.653951246291
1710826449418,15834.501753550023
1710826449458,10174.822178309783
1710826449498,14137.48259753501
1710826449539,8321.801059371792
1710826449579,17113.26018769387
1710826449619,9909.711167082656
1710826449659,1450.2709806323983
1710826449699,2345.935841131024
1710826449740,5016.4813071954995
1710826449779,4781.48533600755
1710826449819,-3282.462455227971
1710826449859,-2411.864947302267
1710826449899,-3498.4109838935547
1710826449940,504.83589669317007
1710826449979,4145.682492039166
1710826450020,13531.264797606971
1710826450060,15630.267610398121
1710826450100,3755.737657019403
1710826450141,-298.23267680127174
1710826450180,-5085.790848787408
1710826450220,-116.60293592885137
1710826450260,-745.5842057908885
1710826450300,355.03204238787293
1710826450341,3963.2254344271496
1710826450380,2547.1079830154777
1710826450421,3713.2021943465807
1710826450461,5507.675694548059
1710826450501,4624.88325157715
1710826450542,8648.14480805397
1710826450581,8412.72710503824
1710826450621,12676.534667362459
1710826450661,12181.758957856335
1710826450701,14228.33639150858
1710826450742,19882.703239169437
1710826450782,18224.529438968748
1710826450822,22734.96729361452
1710826450862,13536.059245578479
1710826450902,19803.886041633785
1710826450943,27525.29636386875
1710826450982,20126.091831931844
1710826451022,14643.961333127692
1710826451062,8079.5086634466425
1710826451102,18790.496156352106
1710826451143,11289.681355562061
1710826451182,15494.875379135832
1710826451223,6726.255543154664
1710826451263,-8960.386075712275
1710826451303,-31544.24005948659
1710826451343,-35660.81806207355
1710826451383,-37500.23140221648
1710826451423,-36361.82678216137
1710826451463,-41401.96197252348
1710826451503,-45608.11448210385
1710826451544,-43006.391127149574
1710826451583,-30034.366769860964
1710826451624,-18174.94815679686
1710826451664,-27616.565535360947
1710826451704,-21923.279473078903
1710826451745,-10687.40044127917
1710826451784,5877.689740932547
1710826451824,-26791.861778615043
1710826451864,-20496.159685105085
1710826451904,-28124.159186287783
1710826451945,-33460.60346487351
1710826451985,-38068.528175784275
1710826452025,-47120.78756111488
1710826452065,-61978.23975559184
1710826452105,-78667.80505781807
1710826452146,-85926.62724608928
1710826452185,-92131.16286768764
1710826452225,-94633.41273999959
1710826452265,-91948.33877547085
1710826452306,-90288.29376219027
1710826452346,-87118.42930344585
1710826452386,-91281.4875733126
1710826452426,-82236.93304120051
1710826452466,-78102.81550612813
1710826452506,-71271.32225719374
1710826452547,-69657.56589087332
1710826452586,-58076.46699815849
1710826452626,-47458.907044779044
1710826452666,-40059.6694802735
1710826452707,-45069.5221761195
1710826452747,-36811.0990764047
1710826452787,-24873.29827492358
1710826452827,-23804.520356476773
1710826452867,-43930.10909562744
1710826452907,-65071.08922847686
1710826452948,-50963.42066805693
1710826452987,-49932.400727361906
1710826453028,-47488.12787872134
1710826453068,-48545.01487624319
1710826453108,-3946.6160288066603
1710826453149,23253.05589660327
1710826453188,27435.52690041857
1710826453228,24613.856894752476
1710826453268,-3020.877067710273
1710826453308,-45442.308156342246
1710826453349,-55825.8090036232
1710826453388,-31741.60665142443
1710826453429,-26546.141619198024
1710826453469,-8719.666035559494
1710826453509,-5490.198891948443
1710826453550,-13427.884714866988
1710826453589,-11079.359971554019
1710826453629,-4308.240378269926
1710826453669,840.2769791921601
1710826453709,1183.24908068683
1710826453750,1314.849336758256
1710826453789,6309.587131413631
1710826453829,29523.49806678947
1710826453869,42799.11297861533
1710826453910,27281.55078745354
1710826453950,34111.90623053303
1710826453990,38548.20259578433
1710826454030,42133.801711319946
1710826454070,33323.93109488208
1710826454110,31752.587914827745
1710826454151,28984.540033813566
1710826454190,26685.01400726987
1710826454230,19641.189912462607
1710826454270,14632.702242294326
1710826454310,5470.085533713922
1710826454351,8627.05042386707
1710826454391,26691.582747007255
1710826454431,17531.73358335998
1710826454471,18641.709233986214
1710826454511,16827.45367045328
1710826454551,36932.83066802565
1710826454591,74458.95063477359
1710826454631,78069.34637741046
1710826454671,53005.85096419323
1710826454711,48824.92607784178
1710826454752,31910.44938688446
1710826454791,31367.672968981322
1710826454831,44331.62267157622
1710826454872,44788.41842014203
1710826454911,40848.8253284581
1710826454952,41112.56831259234
1710826454992,44094.89841275243
1710826455032,39703.81392312376
1710826455072,32237.249856782146
1710826455112,20108.408940132707
1710826455153,8269.935045666993
1710826455192,12620.490582332946
1710826455232,9681.624878189992
1710826455272,12075.790139169432
1710826455312,8198.351099239662
1710826455353,8852.96976052504
1710826455393,8799.205060348846
1710826455433,8760.015536595136
1710826455473,9334.933809134178
1710826455513,10226.184752015863
1710826455554,10744.681736338884
1710826455593,12024.570582648274
1710826455633,12388.425703932531
1710826455673,13955.927218893077
1710826455714,14814.745706981048
1710826455754,15708.92095681373
1710826455794,17217.234220009763
1710826455834,16588.030984044075
1710826455874,18729.064076372422
1710826455914,19497.51625108812
1710826455955,15870.29086574819
1710826455994,10699.526349257678
1710826456034,6964.670098783448
1710826456074,6646.976039959118
1710826456114,5969.786044567823
1710826456155,6212.566150074825
1710826456195,6107.258898976725
1710826456235,5514.1260839141905
1710826456275,5229.866964319721
1710826456315,4826.573749428149
1710826456356,7058.433611879125
1710826456395,10692.565349988174
1710826456435,13982.118101691827
1710826456475,15754.662562089972
1710826456515,17915.057157556526
1710826456556,19272.918806944974
1710826456596,20854.209612931125
1710826456636,21235.837352873757
1710826456676,22020.792669482064
1710826456716,21940.08540116623
1710826456757,21478.8870661892
1710826456796,21113.444911032915
1710826456836,21380.68560037203
1710826456876,19579.566532787867
1710826456917,15088.331154037267
1710826456957,8553.822463252116
1710826456997,3906.9144736034796
1710826457037,1707.4705858142115
1710826457077,269.6233202670701
1710826457117,1028.6451587127522
1710826457158,1013.7710901945829
1710826457197,700.850135778077
1710826457237,1306.4091830663383
1710826457277,909.1007051835768
1710826457317,1432.4041302548721
1710826457358,1702.1871133930981
1710826457398,3958.304033780005
1710826457438,4771.355002543889
1710826457478,5978.334691156633
1710826457518,7234.43493137043
1710826457559,8604.155373301357
1710826457598,10535.56296434626
1710826457638,10480.37304113619
1710826457678,10639.350065922365
1710826457718,11681.838765770663
1710826457759,13274.705811214633
1710826457799,14049.369976337533
1710826457839,14722.709534877911
1710826457879,12784.069408916868
1710826457919,7125.630444160663
1710826457960,1361.8014702168293
1710826457999,-1418.797068723943
1710826458085,-2725.300868519582
1710826458125,-2100.5605538091622
1710826458165,-1816.8536472995766
1710826458206,-203.6895228321664
1710826458245,-240.61623495072126
1710826458286,-269.8950355257839
1710826458325,366.05531327985227
1710826458366,979.9259578203782
1710826458407,1788.1892234873958
1710826458446,3261.0678355973214
1710826458486,4944.44391447911
1710826458526,6222.375167445745
1710826458566,7780.474008375313
1710826458607,8764.53935717605
1710826458647,10406.247429094277
1710826458687,11486.562423071358
1710826458727,11678.656250930391
1710826458768,12119.174650977366
1710826458809,12699.921472636983
1710826458848,13513.15936317388
1710826458889,13213.079057450406
1710826458929,8900.628850029781
1710826458969,3363.2032249690965
1710826459010,150.3710048799403
1710826459049,-1223.8712555384263
1710826459090,-1531.0639142934233
1710826459130,-844.8874146142043
1710826459170,-283.7768389042467
1710826459211,-619.74757899018
1710826459251,-452.56794225005433
1710826459291,-319.9454479976557
1710826459331,-605.7306275973096
1710826459372,148.56726472871378
1710826459412,838.4971053488553
1710826459452,2478.08485976886
1710826459492,3329.503721706569
1710826459532,4650.747403974645
1710826459573,7036.525559878908
1710826459614,8151.561710716225
1710826459653,9495.730175612494
1710826459694,10224.263948617503
1710826459734,11212.27544993069
1710826459774,10027.29917762056
1710826459815,4842.951021109708
1710826459854,-1764.945902514737
1710826459894,-4552.201857507229
1710826459934,-6614.528439929709
1710826459975,-7174.688988726586
1710826460015,-6500.243782675825
1710826460055,-5462.605107929092
1710826460095,-5419.87585216295
1710826460135,-6087.020831847563
1710826460175,-6526.205722433515
1710826460216,-6527.709695682861
1710826460256,-4979.464854232967
1710826460296,-4212.8025925103575
1710826460336,-3355.76058277674
1710826460376,-2135.5629687970504
1710826460417,-1246.8990247668698
1710826460457,-453.3013022011146
1710826460497,1554.3976048603654
1710826460537,2759.364108476788
1710826460577,3604.651930278167
1710826460618,4909.993275268935
1710826460657,2681.8515452537686
1710826460698,-2941.03406121023
1710826460738,-9110.034426741302
1710826460779,-11895.794612470083
1710826460820,-12868.045113137458
1710826460860,-13485.281324918382
1710826460900,-11790.143676126841
1710826460940,-10791.448186851572
1710826460980,-10087.762325596064
1710826461021,-10303.079317284748
1710826461061,-9481.188095001504
1710826461101,-9286.729256238323
1710826461141,-7982.09396010777
1710826461182,-7159.551435580477
1710826461223,-5427.280993156135
1710826461262,-3867.291391858831
1710826461303,-2485.3157633389346
1710826461343,-964.8019872033037
1710826461383,1047.4670164436102
1710826461424,3486.739228415303
1710826461464,5314.712308205664
1710826461504,6510.3297016993165
1710826461544,7685.471472557634
1710826461584,4617.418961074203
1710826461625,-2629.344808842987
1710826461665,-8036.236682722811
1710826461705,-10905.572885641828
1710826461745,-11348.176704275422
1710826461786,-11981.135351038538
1710826461827,-12340.986613649875
1710826461866,-12705.146275567356
1710826461906,-12766.41913413629
1710826461946,-13593.404217179865
1710826461987,-13425.873494132888
1710826462028,-12425.90897785034
1710826462067,-11752.190974419005
1710826462108,-11018.751183338463
1710826462148,-8210.745916596614
1710826462188,-6583.601764890831
1710826462229,-5314.638918090612
1710826462269,-3569.5472080232576
1710826462309,-2225.9751363545656
1710826462349,-1487.9832593323663
1710826462389,237.25738171488047
1710826462430,1223.9779044226743
1710826462470,2415.002174107358
1710826462510,1975.6053360528313
1710826462550,-3633.121437855996
1710826462590,-11582.386605116539
1710826462632,-16381.635469581466
1710826462671,-18685.485278936103
1710826462713,-19513.070154232904
1710826462753,-18738.851991495118
1710826462793,-17666.812515863217
1710826462834,-17901.00811597705
1710826462873,-18084.226233745925
1710826462913,-18192.026290853973
1710826462954,-17878.6484881551
1710826462994,-16522.196897853166
1710826463035,-15418.542862087488
1710826463074,-13457.82879942283
1710826463114,-10914.725914780982
1710826463154,-8985.188842248172
1710826463195,-7578.5941561721265
1710826463236,-5566.155624778941
1710826463275,-4577.613883700222
1710826463315,-3305.777880546637
1710826463355,-1646.939865780063
1710826463395,228.66496190056205
1710826463436,1610.572557809297
1710826463476,2587.3420125399716
1710826463516,156.64032448129728
1710826463556,-8340.515516062267
1710826463596,-15971.140871008858
1710826463637,-19417.544728670735
1710826463677,-21281.552339022048
1710826463717,-21316.828827426303
1710826463757,-21022.920831602998
1710826463797,-20378.625963743776
1710826463838,-20534.288736457005
1710826463878,-20965.706559844315
1710826463918,-21154.504731121473
1710826463958,-20618.238237016834
1710826463998,-19461.76351917442
1710826464039,-18073.486625545658
1710826464079,-15793.737863735296
1710826464119,-13316.165377750061
1710826464159,-11446.238487525843
1710826464199,-9080.169499401469
1710826464240,-7737.874061984941
1710826464280,-6465.631460865494
1710826464320,-4687.92332076421
1710826464360,-3120.668796952348
1710826464400,-2073.9068277617916
1710826464441,219.13615373009816
1710826464481,1080.4404682219028
1710826464521,-4417.228369950317
1710826464561,-12658.85081238579
1710826464602,-18665.8893130254
1710826464643,-22148.461871824227
1710826464682,-22947.966614826582
1710826464722,-22877.631629556417
1710826464763,-22046.00870970823
1710826464803,-21182.00845027808
1710826464844,-20612.009489650838
1710826464883,-20310.665814324282
1710826464924,-20335.177349212114
1710826464964,-18825.08890883997
1710826465004,-17016.957483988255
1710826465045,-14173.637502131052
1710826465085,-12670.73247489985
1710826465125,-10308.726324487943
1710826465165,-8500.280224382877
1710826465205,-6752.871397485491
1710826465246,-4787.767852746416
1710826465286,-2776.0608789017424
1710826465326,-593.4246159358881
1710826465366,901.295621606987
1710826465407,1762.4780584620312
1710826465448,3302.520374746993
1710826465487,3985.8110407646745
1710826465528,528.1708947382867
1710826465568,-7210.117334813811
1710826465608,-13513.442942568101
1710826465649,-16432.469610420056
1710826465688,-16395.26964442199
1710826465729,-17451.830480667762
1710826465769,-16269.293254546123
1710826465809,-15374.088184493594
1710826465850,-15429.992417698959
1710826465890,-16080.28702907078
1710826465930,-15020.302436602302
1710826465970,-13539.982651463943
1710826466010,-12420.858209203929
1710826466051,-10759.243309372803
1710826466091,-9396.613869522931
1710826466131,-7548.093556363601
1710826466171,-4845.494847232243
1710826466212,-3095.6156025810633
1710826466253,-1611.2610909177456
1710826466292,-644.7423316198401
1710826466332,573.2981286970899
1710826466373,3135.997199321864
1710826466412,4287.776655031135
1710826466453,5952.68660996086
1710826466493,2910.506096032914
1710826466533,-4909.941627824679
1710826466573,-12238.820411400637
1710826466613,-15879.00714428816
1710826466654,-16888.931585781043
1710826466694,-16665.627402679296
1710826466734,-16323.878443556838
1710826466774,-15225.635347715113
1710826466814,-15364.988888690714
1710826466855,-15264.535805136664
1710826466894,-15105.02259057993
1710826466935,-14041.284496388631
1710826466975,-13353.941785082454
1710826467015,-11205.345956246369
1710826467056,-9531.000527077354
1710826467095,-7636.724079371896
1710826467135,-5745.876387033379
1710826467176,-3773.6411992367357
1710826467216,-2703.6297230229247
1710826467257,-1226.939198777778
1710826467296,554.1132066366263
1710826467337,1973.568860551808
1710826467377,3925.860081826104
1710826467417,5119.267933769617
1710826467458,6872.698553325608
1710826467498,5769.612938272301
1710826467539,-493.18829452316277
1710826467579,-7440.249408046249
1710826467619,-11816.368311927188
1710826467660,-13995.4952070734
1710826467700,-13982.79036441259
1710826467740,-13990.827748508193
1710826467780,-13649.393282885896
1710826467820,-13747.616263687145
1710826467861,-13335.080615023151
1710826467901,-12704.091564750532
1710826467941,-12235.466920115985
1710826467981,-11023.382006301545
1710826468022,-9531.85381896724
1710826468063,-8008.448624083772
1710826468102,-6213.423545265105
1710826468142,-4192.866619859356
1710826468183,-2518.4149351301603
1710826468223,-780.4366546908859
1710826468264,1129.2811289941892
1710826468304,3109.0202181432396
1710826468344,4773.701779932249
1710826468384,6344.216827587923
1710826468424,7932.692526810104
1710826468465,9436.644847803516
1710826468504,11389.663939689752
1710826468545,10113.344840358477
1710826468585,3556.1681326292455
1710826468625,-3365.1525761862285
1710826468666,-8100.748479373753
1710826468706,-9661.302885032492
1710826468746,-9806.04724043049
1710826468786,-9601.35916284495
1710826468827,-9366.956082449527
1710826468868,-9353.75231311936
1710826468907,-9316.170395907015
1710826468947,-9639.55837596464
1710826468987,-8798.719619530253
1710826469028,-7510.452874946874
1710826469069,-6046.059586561751
1710826469108,-3972.768109389115
1710826469149,-2542.6871624910273
1710826469189,-1174.1106997933239
1710826469229,301.87842868454754
1710826469270,2212.1143019343726
1710826469309,4159.50834606844
1710826469350,5855.555803333176
1710826469390,7083.363027579384
1710826469430,8575.62200335972
1710826469471,10141.468525883043
1710826469511,11258.649880810874
1710826469551,12639.372722089756
1710826469591,10847.561600605492
1710826469631,3520.68404251663
1710826469672,-3787.267330895178
1710826469712,-8233.661193565466
1710826469752,-9834.493282062002
1710826469792,-9861.696343497606
1710826469832,-9762.234587968094
1710826469873,-9293.610487451544
1710826469913,-9948.249831888592
1710826469953,-10435.164036440197
1710826469993,-10156.21113685565
1710826470033,-9323.137414207216
1710826470074,-7968.533284150064
1710826470114,-6287.684305264847
1710826470153,-4585.707986658206
1710826470192,-3145.72524924716
1710826470231,-1099.2649155240506
1710826470270,618.571576050017
1710826470309,2401.203426903812
1710826470348,4113.555121043231
1710826470387,5227.824041890912
1710826470426,6601.248414124129
1710826470465,8335.272671572398
1710826470504,9135.395815256517
1710826470543,10811.637083349284
1710826470582,12363.652658878826
1710826470621,8780.89330764627
1710826470660,1229.0218634926714
1710826470699,-5463.749240628444
1710826470738,-8637.797612890601
1710826470777,-9180.339669208974
1710826470816,-9340.290440157056
1710826470855,-9115.542474533897
1710826470894,-8791.50514172879
1710826470933,-8800.813735093456
1710826470972,-8311.378539390396
1710826471011,-7752.232568596024
1710826471050,-7101.233554834267
1710826471089,-5136.409491455182
1710826471128,-3215.2202102267183
1710826471168,-2336.758139161393
1710826471208,-807.3131133050192
1710826471248,1120.3519545341842
1710826471288,2889.7517411364242
1710826471328,4816.511062099831
1710826471368,5526.03980065207
1710826471408,6526.509440032765
1710826471448,8274.156026142184
1710826471488,9258.343765415251
1710826471528,9952.699084440013
1710826471568,11582.100168585777
1710826471608,11907.764105813112
1710826471648,5993.968283264898
1710826471688,-1062.3975378936157
1710826471728,-6034.647934295936
1710826471768,-7217.04761007824
1710826471808,-8001.613647869788
1710826471848,-8690.105963673908
1710826471888,-8128.729302780703
1710826471928,-7569.588701989502
1710826471968,-7565.918143250514
1710826472008,-7381.161317562219
1710826472048,-6745.741790928645
1710826472088,-5745.350397406844
1710826472128,-3672.691770260455
1710826472168,-1876.9308992507868
1710826472208,-150.3672963497229
1710826472248,714.7624724884517
1710826472288,2298.796878226567
1710826472328,3742.9872571288142
1710826472368,4873.06917523453
1710826472408,6387.7069993952755
1710826472448,8584.116469601402
1710826472488,10283.432794404216
1710826472528,11600.901980158873
1710826472568,12852.569641463924
1710826472608,13110.086710911244
1710826472648,9219.7908076311
1710826472688,1640.2060939488001
1710826472728,-4197.68309055455
1710826472768,-6169.030046789907
1710826472808,-6437.038588974625
1710826472848,-6985.205011001788
