dataReceived,timestamp,ppg,status
1710826337826,1710826325661,2097152,0
1710826337826,1710826325701,2304462,0
1710826337826,1710826325744,2304317,0
1710826337826,1710826325782,2304295,0
1710826337826,1710826325822,2304435,0
1710826337826,1710826325862,2304471,0
1710826337826,1710826325902,2304432,0
1710826337826,1710826325942,2304527,0
1710826337826,1710826325983,2304569,0
1710826337826,1710826326022,2304598,0
1710826337826,1710826326062,2191406,0
1710826337826,1710826326102,2191599,0
1710826337826,1710826326142,2191788,0
1710826337826,1710826326183,2191873,0
1710826337826,1710826326223,2192139,0
1710826337826,1710826326262,2131691,0
1710826337826,1710826326303,2132154,0
1710826337826,1710826326343,2132634,0
1710826337826,1710826326384,2132985,0
1710826337826,1710826326423,2132915,0
1710826337826,1710826326463,2108826,0
1710826337826,1710826326503,2108650,0
1710826337826,1710826326543,2108900,0
1710826337826,1710826326584,2109489,0
1710826337826,1710826326623,2110405,0
1710826337826,1710826326663,2111040,0
1710826337826,1710826326703,2111638,0
1710826337826,1710826326743,2112113,0
1710826337826,1710826326784,2112684,0
1710826337826,1710826326824,2113491,0
1710826337826,1710826326864,2114480,0
1710826337826,1710826326904,2115406,0
1710826337826,1710826326944,2116376,0
1710826337826,1710826326985,2117301,0
1710826337826,1710826327024,2118241,0
1710826337826,1710826327064,2119158,0
1710826337826,1710826327104,2120166,0
1710826337826,1710826327144,2120254,0
1710826337826,1710826327186,2119314,0
1710826337826,1710826327225,2118626,0
1710826337826,1710826327265,2118458,0
1710826337826,1710826327305,2119245,0
1710826337826,1710826327345,2119400,0
1710826337826,1710826327386,2118995,0
1710826337826,1710826327425,2118310,0
1710826337826,1710826327465,2117305,0
1710826337826,1710826327505,2116334,0
1710826337826,1710826327545,2115375,0
1710826337826,1710826327586,2114993,0
1710826337826,1710826327625,2114021,0
1710826337826,1710826327666,2112764,0
1710826337826,1710826327705,2112689,0
1710826337826,1710826327746,2113050,0
1710826337826,1710826327787,2112845,0
1710826337826,1710826327826,2112257,0
1710826337826,1710826327866,2109926,0
1710826337826,1710826327906,2106141,0
1710826337826,1710826327949,2103604,0
1710826337826,1710826327987,2101983,0
1710826337826,1710826328027,2100960,0
1710826337826,1710826328067,2100754,0
1710826337826,1710826328107,2100376,0
1710826337826,1710826328147,2099828,0
1710826337826,1710826328188,2098605,0
1710826337826,1710826328227,2098075,0
1710826337826,1710826328267,2098124,0
1710826337826,1710826328307,2097393,0
1710826337826,1710826328347,2096474,0
1710826337826,1710826328389,2095444,0
1710826337826,1710826328428,2094137,0
1710826337826,1710826328468,2093471,0
1710826337826,1710826328508,2092863,0
1710826337826,1710826328548,2092220,0
1710826337826,1710826328589,2089556,0
1710826337826,1710826328628,2086128,0
1710826337826,1710826328668,2083393,0
1710826337826,1710826328708,2081049,0
1710826337826,1710826328748,2078811,0
1710826337826,1710826328789,2076641,0
1710826337826,1710826328828,2075027,0
1710826337826,1710826328869,2072428,0
1710826337826,1710826328909,2071228,0
1710826337826,1710826328949,2070671,0
1710826337826,1710826328990,2069330,0
1710826337826,1710826329029,2068155,0
1710826337826,1710826329069,2067222,0
1710826337826,1710826329109,2066623,0
1710826337826,1710826329149,2066162,0
1710826337826,1710826329190,2065802,0
1710826337826,1710826329230,2065484,0
1710826337826,1710826329270,2064265,0
1710826337826,1710826329310,2060948,0
1710826337826,1710826329350,2057520,0
1710826337826,1710826329391,2054628,0
1710826337826,1710826329430,2052516,0
1710826337826,1710826329470,2050639,0
1710826337826,1710826329510,2048961,0
1710826337826,1710826329550,2046857,0
1710826337826,1710826329591,2044623,0
1710826337826,1710826329630,2042866,0
1710826337826,1710826329671,2041643,0
1710826337826,1710826329711,2041133,0
1710826337826,1710826329751,2041254,0
1710826337826,1710826329792,2041347,0
1710826337826,1710826329831,2041570,0
1710826337826,1710826329871,2041977,0
1710826337826,1710826329911,2042470,0
1710826337826,1710826329951,2041380,0
1710826337826,1710826329992,2038255,0
1710826337826,1710826330031,2034945,0
1710826337826,1710826330072,2032549,0
1710826337826,1710826330112,2030548,0
1710826337826,1710826330155,2028868,0
1710826337826,1710826330193,2027790,0
1710826337826,1710826330232,2026664,0
1710826337826,1710826330272,2025594,0
1710826337826,1710826330312,2025037,0
1710826337826,1710826330352,2026845,0
1710826337826,1710826330393,2030014,0
1710826337826,1710826330433,2034098,0
1710826337826,1710826330473,2036523,0
1710826337826,1710826330513,2038828,0
1710826337826,1710826330553,2039888,0
1710826337826,1710826330594,2040433,0
1710826337826,1710826330633,2041139,0
1710826337826,1710826330673,2042096,0
1710826337826,1710826330713,2048151,0
1710826337826,1710826330753,2056346,0
1710826337826,1710826330794,2067078,0
1710826337826,1710826330834,2078942,0
1710826337826,1710826330874,2091994,0
1710826337826,1710826330914,2106064,0
1710826337826,1710826330954,2118094,0
1710826337826,1710826330995,2127808,0
1710826337826,1710826331034,2135073,0
1710826337826,1710826331074,2142225,0
1710826337826,1710826331114,2149923,0
1710826337826,1710826331155,2158359,0
1710826337826,1710826331195,2167455,0
1710826337826,1710826331235,2178593,0
1710826337826,1710826331275,2182840,0
1710826337826,1710826331315,2182373,0
1710826337826,1710826331355,2179341,0
1710826337826,1710826331396,2175571,0
1710826337826,1710826331435,2171225,0
1710826337826,1710826331475,2167296,0
1710826337826,1710826331516,2164033,0
1710826337826,1710826331556,2161148,0
1710826337826,1710826331597,2158443,0
1710826337826,1710826331636,2156092,0
1710826337826,1710826331676,2154122,0
1710826337826,1710826331716,2152239,0
1710826337826,1710826331756,2150602,0
1710826337826,1710826331797,2149086,0
1710826337826,1710826331837,2148067,0
1710826337826,1710826331877,2147379,0
1710826337826,1710826331917,2146472,0
1710826337826,1710826331957,2145706,0
1710826337826,1710826331998,2145141,0
1710826337826,1710826332037,2144609,0
1710826337826,1710826332077,2144118,0
1710826337826,1710826332118,2143633,0
1710826337826,1710826332157,2143188,0
1710826337826,1710826332198,2141548,0
1710826337826,1710826332238,2138806,0
1710826337826,1710826332278,2136452,0
1710826337826,1710826332318,2134674,0
1710826337826,1710826332358,2133392,0
1710826337826,1710826332399,2132211,0
1710826337826,1710826332439,2131085,0
1710826337826,1710826332479,2129945,0
1710826337826,1710826332519,2128704,0
1710826337826,1710826332559,2127741,0
1710826337826,1710826332601,2126876,0
1710826337826,1710826332640,2126105,0
1710826337826,1710826332680,2125361,0
1710826337826,1710826332721,2124913,0
1710826337826,1710826332761,2124932,0
1710826337826,1710826332802,2124618,0
1710826337826,1710826332842,2124750,0
1710826337826,1710826332881,2124706,0
1710826337826,1710826332924,2124695,0
1710826337826,1710826332965,2124195,0
1710826337826,1710826333005,2121726,0
1710826337826,1710826333045,2118999,0
1710826337826,1710826333085,2117078,0
1710826337826,1710826333125,2115729,0
1710826337826,1710826333165,2114500,0
1710826337826,1710826333206,2113340,0
1710826337826,1710826333246,2112299,0
1710826337826,1710826333286,2111148,0
1710826337826,1710826333326,2109940,0
1710826337826,1710826333366,2108997,0
1710826337826,1710826333407,2108429,0
1710826337826,1710826333447,2108028,0
1710826337826,1710826333487,2107839,0
1710826337826,1710826333527,2107780,0
1710826337826,1710826333567,2107646,0
1710826337826,1710826333608,2107558,0
1710826337826,1710826333648,2107448,0
1710826337826,1710826333688,2107336,0
1710826337826,1710826333728,2107613,0
1710826337826,1710826333768,2107609,0
1710826337826,1710826333810,2105952,0
1710826337826,1710826333849,2103675,0
1710826337826,1710826333889,2102125,0
1710826337826,1710826333930,2100908,0
1710826337826,1710826333970,2099987,0
1710826337826,1710826334011,2099433,0
1710826337826,1710826334050,2098773,0
1710826337826,1710826334090,2098113,0
1710826337826,1710826334131,2097537,0
1710826337826,1710826334171,2097115,0
1710826337826,1710826334212,2096954,0
1710826337826,1710826334251,2096964,0
1710826337826,1710826334292,2097095,0
1710826337826,1710826334332,2097079,0
1710826337826,1710826334372,2096977,0
1710826337826,1710826334413,2097156,0
1710826337826,1710826334453,2097151,0
1710826337826,1710826334493,2097338,0
1710826337826,1710826334533,2097479,0
1710826337826,1710826334573,2097730,0
1710826337826,1710826334614,2096387,0
1710826337826,1710826334654,2094086,0
1710826337826,1710826334694,2092289,0
1710826337826,1710826334734,2091270,0
1710826337826,1710826334775,2090726,0
1710826337826,1710826334817,2090521,0
1710826337826,1710826334857,2090276,0
1710826337826,1710826334897,2089771,0
1710826337826,1710826334937,2089197,0
1710826337826,1710826334978,2088816,0
1710826337826,1710826335019,2088790,0
1710826337826,1710826335058,2088750,0
1710826337826,1710826335098,2088805,0
1710826337826,1710826335139,2088915,0
1710826337826,1710826335179,2089032,0
1710826337826,1710826335220,2089239,0
1710826337826,1710826335259,2089313,0
1710826337826,1710826335300,2089501,0
1710826337826,1710826335340,2089463,0
1710826337826,1710826335380,2089394,0
1710826337826,1710826335421,2088125,0
1710826337826,1710826335460,2086204,0
1710826337826,1710826335501,2084691,0
1710826337826,1710826335541,2084303,0
1710826337826,1710826335581,2084127,0
1710826337826,1710826335622,2084181,0
1710826337826,1710826335661,2084325,0
1710826337826,1710826335702,2084387,0
1710826337826,1710826335742,2084433,0
1710826337826,1710826335782,2084356,0
1710826337826,1710826335823,2084254,0
1710826337826,1710826335862,2084273,0
1710826337826,1710826335904,2084591,0
1710826337826,1710826335944,2084977,0
1710826337826,1710826335985,2085573,0
1710826337826,1710826336026,2086103,0
1710826337826,1710826336065,2086790,0
1710826337826,1710826336105,2087555,0
1710826337826,1710826336145,2088212,0
1710826337826,1710826336186,2087507,0
1710826337826,1710826336227,2085981,0
1710826337826,1710826336266,2084971,0
1710826337826,1710826336306,2084660,0
1710826337826,1710826336347,2084876,0
1710826337826,1710826336387,2085325,0
1710826337826,1710826336428,2085998,0
1710826337826,1710826336467,2086195,0
1710826337826,1710826336507,2086211,0
1710826337826,1710826336547,2086218,0
1710826337826,1710826336588,2086407,0
1710826337826,1710826336629,2086613,0
1710826337826,1710826336668,2087051,0
1710826337826,1710826336709,2087679,0
1710826337826,1710826336749,2088431,0
1710826337826,1710826336789,2089234,0
1710826337826,1710826336830,2090109,0
1710826337826,1710826336869,2090575,0
1710826337826,1710826336911,2089823,0
1710826337826,1710826336952,2089222,0
1710826337826,1710826336992,2089095,0
1710826337826,1710826337033,2089296,0
1710826337826,1710826337072,2089694,0
1710826337826,1710826337113,2090363,0
1710826337826,1710826337153,2090564,0
1710826337826,1710826337193,2090677,0
1710826337826,1710826337234,2090769,0
1710826337826,1710826337274,2090810,0
1710826337826,1710826337314,2091301,0
1710826337826,1710826337354,2091682,0
1710826337826,1710826337394,2092302,0
1710826337826,1710826337435,2092867,0
1710826337826,1710826337475,2093583,0
1710826337826,1710826337515,2094279,0
1710826337826,1710826337555,2094107,0
1710826337826,1710826337595,2092351,0
1710826337826,1710826337636,2090683,0
1710826337826,1710826337676,2089702,0
1710826349747,1710826337715,2089343,0
1710826349747,1710826337754,2089254,0
1710826349747,1710826337793,2089588,0
1710826349747,1710826337832,2089580,0
1710826349747,1710826337871,2089493,0
1710826349747,1710826337910,2089415,0
1710826349747,1710826337949,2089456,0
1710826349747,1710826337988,2089771,0
1710826349747,1710826338027,2090172,0
1710826349747,1710826338066,2090717,0
1710826349747,1710826338105,2091339,0
1710826349747,1710826338144,2091984,0
1710826349747,1710826338183,2092785,0
1710826349747,1710826338222,2092655,0
1710826349747,1710826338261,2090579,0
1710826349747,1710826338300,2088458,0
1710826349747,1710826338339,2086974,0
1710826349747,1710826338378,2086521,0
1710826349747,1710826338417,2086367,0
1710826349747,1710826338456,2086354,0
1710826349747,1710826338495,2086229,0
1710826349747,1710826338534,2085903,0
1710826349747,1710826338573,2085598,0
1710826349747,1710826338612,2085470,0
1710826349747,1710826338651,2085665,0
1710826349747,1710826338690,2085971,0
1710826349747,1710826338729,2086425,0
1710826349747,1710826338768,2086755,0
1710826349747,1710826338807,2087302,0
1710826349747,1710826338846,2087827,0
1710826349747,1710826338885,2088281,0
1710826349747,1710826338925,2087603,0
1710826349747,1710826338965,2085387,0
1710826349747,1710826339005,2083099,0
1710826349747,1710826339045,2081948,0
1710826349747,1710826339085,2081212,0
1710826349747,1710826339125,2080917,0
1710826349747,1710826339165,2080666,0
1710826349747,1710826339205,2080083,0
1710826349747,1710826339245,2079493,0
1710826349747,1710826339285,2079197,0
1710826349747,1710826339325,2079057,0
1710826349747,1710826339365,2079054,0
1710826349747,1710826339405,2079317,0
1710826349747,1710826339445,2079673,0
1710826349747,1710826339485,2080261,0
1710826349747,1710826339525,2080561,0
1710826349747,1710826339565,2080958,0
1710826349747,1710826339605,2081355,0
1710826349747,1710826339645,2081903,0
1710826349747,1710826339685,2080846,0
1710826349747,1710826339725,2078387,0
1710826349747,1710826339765,2076389,0
1710826349747,1710826339805,2075346,0
1710826349747,1710826339845,2074825,0
1710826349747,1710826339885,2074591,0
1710826349747,1710826339925,2074544,0
1710826349747,1710826339965,2074115,0
1710826349747,1710826340005,2073498,0
1710826349747,1710826340045,2073206,0
1710826349747,1710826340085,2072949,0
1710826349747,1710826340125,2073250,0
1710826349747,1710826340165,2073521,0
1710826349747,1710826340205,2073883,0
1710826349747,1710826340245,2074572,0
1710826349747,1710826340285,2075093,0
1710826349747,1710826340325,2075810,0
1710826349747,1710826340365,2076654,0
1710826349747,1710826340405,2077367,0
1710826349747,1710826340445,2077877,0
1710826349747,1710826340485,2076395,0
1710826349747,1710826340525,2074330,0
1710826349747,1710826340565,2072754,0
1710826349747,1710826340605,2072554,0
1710826349747,1710826340645,2072606,0
1710826349747,1710826340685,2072925,0
1710826349747,1710826340725,2073332,0
1710826349747,1710826340765,2073034,0
1710826349747,1710826340805,2072792,0
1710826349747,1710826340845,2072645,0
1710826349747,1710826340885,2072801,0
1710826349747,1710826340925,2073415,0
1710826349747,1710826340965,2074003,0
1710826349747,1710826341005,2074772,0
1710826349747,1710826341045,2075489,0
1710826349747,1710826341085,2076378,0
1710826349747,1710826341125,2076994,0
1710826349747,1710826341165,2077910,0
1710826349747,1710826341205,2078548,0
1710826349747,1710826341245,2077927,0
1710826349747,1710826341285,2075843,0
1710826349747,1710826341325,2074032,0
1710826349747,1710826341365,2072992,0
1710826349747,1710826341405,2072676,0
1710826349747,1710826341445,2072725,0
1710826349747,1710826341485,2073095,0
1710826349747,1710826341525,2072988,0
1710826349747,1710826341565,2072702,0
1710826349747,1710826341605,2072513,0
1710826349747,1710826341645,2072388,0
1710826349747,1710826341685,2072524,0
1710826349747,1710826341725,2072788,0
1710826349747,1710826341765,2073321,0
1710826349747,1710826341805,2073916,0
1710826349747,1710826341845,2074499,0
1710826349747,1710826341885,2075181,0
1710826349747,1710826341925,2075832,0
1710826349747,1710826341965,2075246,0
1710826349747,1710826342005,2073381,0
1710826349747,1710826342045,2071629,0
1710826349747,1710826342085,2070933,0
1710826349747,1710826342125,2070622,0
1710826349747,1710826342165,2070756,0
1710826349747,1710826342205,2070976,0
1710826349747,1710826342245,2070902,0
1710826349747,1710826342285,2070603,0
1710826349747,1710826342325,2070271,0
1710826349747,1710826342365,2069869,0
1710826349747,1710826342405,2070193,0
1710826349747,1710826342445,2070706,0
1710826349747,1710826342485,2071102,0
1710826349747,1710826342525,2071381,0
1710826349747,1710826342565,2072093,0
1710826349747,1710826342605,2073372,0
1710826349747,1710826342645,2073914,0
1710826349747,1710826342685,2073164,0
1710826349747,1710826342725,2071442,0
1710826349747,1710826342765,2069715,0
1710826349747,1710826342805,2069035,0
1710826349747,1710826342845,2068716,0
1710826349747,1710826342885,2068818,0
1710826349747,1710826342925,2068976,0
1710826349747,1710826342965,2069293,0
1710826349747,1710826343005,2069757,0
1710826349747,1710826343045,2069756,0
1710826349747,1710826343085,2070257,0
1710826349747,1710826343125,2070777,0
1710826349747,1710826343165,2070459,0
1710826349747,1710826343205,2071669,0
1710826349747,1710826343245,2074513,0
1710826349747,1710826343285,2078626,0
1710826349747,1710826343325,2084037,0
1710826349747,1710826343365,2089895,0
1710826349747,1710826343405,2093892,0
1710826349747,1710826343445,2096135,0
1710826349747,1710826343485,2098164,0
1710826349747,1710826343525,2101427,0
1710826349747,1710826343565,2105842,0
1710826349747,1710826343605,2110792,0
1710826349747,1710826343645,2116258,0
1710826349747,1710826343685,2121853,0
1710826349747,1710826343725,2127433,0
1710826349747,1710826343765,2133828,0
1710826349747,1710826343805,2140466,0
1710826349747,1710826343845,2146795,0
1710826349747,1710826343885,2154145,0
1710826349747,1710826343925,2163252,0
1710826349747,1710826343965,2173099,0
1710826349747,1710826344005,2176314,0
1710826349747,1710826344045,2175601,0
1710826349747,1710826344085,2173227,0
1710826349747,1710826344125,2170588,0
1710826349747,1710826344165,2170709,0
1710826349747,1710826344205,2173119,0
1710826349747,1710826344245,2175351,0
1710826349747,1710826344285,2177180,0
1710826349747,1710826344325,2178949,0
1710826349747,1710826344365,2180769,0
1710826349747,1710826344405,2182646,0
1710826349747,1710826344445,2184701,0
1710826349747,1710826344485,2186839,0
1710826349747,1710826344525,2189059,0
1710826349747,1710826344565,2191879,0
1710826349747,1710826344605,2195783,0
1710826349747,1710826344645,2200242,0
1710826349747,1710826344685,2204878,0
1710826349747,1710826344725,2208710,0
1710826349747,1710826344765,2208673,0
1710826349747,1710826344805,2206460,0
1710826349747,1710826344845,2205720,0
1710826349747,1710826344885,2208609,0
1710826349747,1710826344925,2214823,0
1710826349747,1710826344965,2223571,0
1710826349747,1710826345005,2230209,0
1710826349747,1710826345045,2236940,0
1710826349747,1710826345085,2240496,0
1710826349747,1710826345125,2239676,0
1710826349747,1710826345165,2240946,0
1710826349747,1710826345205,2243192,0
1710826349747,1710826345245,2244937,0
1710826349747,1710826345285,2248501,0
1710826349747,1710826345325,2253102,0
1710826349747,1710826345365,2256138,0
1710826349747,1710826345405,2250553,0
1710826349747,1710826345445,2244435,0
1710826349747,1710826345485,2241188,0
1710826349747,1710826345525,2240715,0
1710826349747,1710826345565,2240270,0
1710826349747,1710826345605,2240519,0
1710826349747,1710826345645,2241921,0
1710826349747,1710826345685,2243514,0
1710826349747,1710826345725,2245857,0
1710826349747,1710826345765,2247972,0
1710826349747,1710826345805,2249781,0
1710826349747,1710826345845,2251124,0
1710826349747,1710826345885,2251500,0
1710826349747,1710826345925,2251428,0
1710826349747,1710826345965,2251736,0
1710826349747,1710826346005,2251811,0
1710826349747,1710826346045,2252081,0
1710826349747,1710826346085,2250981,0
1710826349747,1710826346125,2249101,0
1710826349747,1710826346165,2248083,0
1710826349747,1710826346205,2247078,0
1710826349747,1710826346245,2246439,0
1710826349747,1710826346285,2246469,0
1710826349747,1710826346325,2247534,0
1710826349747,1710826346365,2248593,0
1710826349747,1710826346405,2249479,0
1710826349747,1710826346445,2249810,0
1710826349747,1710826346485,2250323,0
1710826349747,1710826346525,2250602,0
1710826349747,1710826346565,2250690,0
1710826349747,1710826346605,2251092,0
1710826349747,1710826346645,2251410,0
1710826349747,1710826346685,2251734,0
1710826349747,1710826346725,2250876,0
1710826349747,1710826346765,2249488,0
1710826349747,1710826346805,2248362,0
1710826349747,1710826346845,2247943,0
1710826349747,1710826346885,2247950,0
1710826349747,1710826346925,2248248,0
1710826349747,1710826346965,2248635,0
1710826349747,1710826347005,2249965,0
1710826349747,1710826347045,2251414,0
1710826349747,1710826347085,2252694,0
1710826349747,1710826347125,2253546,0
1710826349747,1710826347165,2253484,0
1710826349747,1710826347205,2253524,0
1710826349747,1710826347245,2253473,0
1710826349747,1710826347285,2254333,0
1710826349747,1710826347325,2255026,0
1710826349747,1710826347365,2254764,0
1710826349747,1710826347405,2252941,0
1710826349747,1710826347445,2251899,0
1710826349747,1710826347485,2250826,0
1710826349747,1710826347525,2249953,0
1710826349747,1710826347565,2249091,0
1710826349747,1710826347605,2248118,0
1710826349747,1710826347645,2247172,0
1710826349747,1710826347685,2246412,0
1710826349747,1710826347725,2245600,0
1710826349747,1710826347765,2248774,0
1710826349747,1710826347805,2253282,0
1710826349747,1710826347845,2259361,0
1710826349747,1710826347885,2263252,0
1710826349747,1710826347925,2267653,0
1710826349747,1710826347965,2271119,0
1710826349747,1710826348005,2274012,0
1710826349747,1710826348045,2275931,0
1710826349747,1710826348085,2274907,0
1710826349747,1710826348125,2273833,0
1710826349747,1710826348165,2271252,0
1710826349747,1710826348205,2267725,0
1710826349747,1710826348245,2266285,0
1710826349747,1710826348285,2268110,0
1710826349747,1710826348325,2272245,0
1710826349747,1710826348365,2277965,0
1710826349747,1710826348405,2285883,0
1710826349747,1710826348445,2289010,0
1710826349747,1710826348485,2287791,0
1710826349747,1710826348525,2284708,0
1710826349747,1710826348565,2282795,0
1710826349747,1710826348605,2282225,0
1710826349747,1710826348645,2282087,0
1710826349747,1710826348685,2281600,0
1710826349747,1710826348725,2278500,0
1710826349747,1710826348765,2280210,0
1710826349747,1710826348805,2284764,0
1710826349747,1710826348845,2290983,0
1710826349747,1710826348885,2293776,0
1710826349747,1710826348925,2295396,0
1710826349747,1710826348965,2295005,0
1710826349747,1710826349005,2294763,0
1710826349747,1710826349045,2292832,0
1710826349747,1710826349085,2290604,0
1710826349747,1710826349125,2288125,0
1710826349747,1710826349165,2287028,0
1710826349747,1710826349205,2286542,0
1710826349747,1710826349245,2285196,0
1710826349747,1710826349285,2286242,0
1710826349747,1710826349325,2289102,0
1710826349747,1710826349365,2289947,0
1710826349747,1710826349405,2289474,0
1710826349747,1710826349445,2288955,0
1710826349747,1710826349485,2289396,0
1710826349747,1710826349525,2289590,0
1710826349747,1710826349565,2289871,0
1710826349747,1710826349605,2291528,0
1710826349747,1710826349645,2292785,0
1710826361786,1710826349685,2293727,0
1710826361786,1710826349725,2295113,0
1710826361786,1710826349765,2296890,0
1710826361786,1710826349806,2298082,0
1710826361786,1710826349845,2299670,0
1710826361786,1710826349886,2301131,0
1710826361786,1710826349926,2303949,0
1710826361786,1710826349966,2305687,0
1710826361786,1710826350007,2307857,0
1710826361786,1710826350046,2308708,0
1710826361786,1710826350086,2309036,0
1710826361786,1710826350126,2311312,0
1710826361786,1710826350166,2314491,0
1710826361786,1710826350207,2316892,0
1710826361786,1710826350247,2320341,0
1710826361786,1710826350286,2322830,0
1710826361786,1710826350327,2324030,0
1710826361786,1710826350367,2324672,0
1710826361786,1710826350407,2321697,0
1710826361786,1710826350447,2320406,0
1710826361786,1710826350487,2317835,0
1710826361786,1710826350527,2316669,0
1710826361786,1710826350567,2316818,0
1710826361786,1710826350608,2318246,0
1710826361786,1710826350647,2321781,0
1710826361786,1710826350687,2326000,0
1710826361786,1710826350728,2328978,0
1710826361786,1710826350768,2331468,0
1710826361786,1710826350809,2333633,0
1710826361786,1710826350848,2334665,0
1710826361786,1710826350888,2337856,0
1710826361786,1710826350928,2340192,0
1710826361786,1710826350968,2342583,0
1710826361786,1710826351009,2340395,0
1710826361786,1710826351048,2334747,0
1710826361786,1710826351089,2330399,0
1710826361786,1710826351129,2328270,0
1710826361786,1710826351169,2328269,0
1710826361786,1710826351210,2323521,0
1710826361786,1710826351249,2313713,0
1710826361786,1710826351289,2303483,0
1710826361786,1710826351329,2307776,0
1710826361786,1710826351369,2320018,0
1710826361786,1710826351410,2333992,0
1710826361786,1710826351450,2342123,0
1710826361786,1710826351490,2347359,0
1710826361786,1710826351530,2350827,0
1710826361786,1710826351570,2352773,0
1710826361786,1710826351611,2354620,0
1710826361786,1710826351650,2356447,0
1710826361786,1710826351690,2358206,0
1710826361786,1710826351730,2359767,0
1710826361786,1710826351770,2360696,0
1710826361786,1710826351812,2361085,0
1710826361786,1710826351851,2360731,0
1710826361786,1710826351891,2360387,0
1710826361786,1710826351931,2359137,0
1710826361786,1710826351971,2356492,0
1710826361786,1710826352012,2351014,0
1710826361786,1710826352051,2345796,0
1710826361786,1710826352091,2342443,0
1710826361786,1710826352132,2340076,0
1710826361786,1710826352172,2338121,0
1710826361786,1710826352212,2336915,0
1710826361786,1710826352252,2335321,0
1710826361786,1710826352292,2333468,0
1710826361786,1710826352332,2331606,0
1710826361786,1710826352372,2329968,0
1710826361786,1710826352413,2328476,0
1710826361786,1710826352453,2327406,0
1710826361786,1710826352493,2326550,0
1710826361786,1710826352533,2326015,0
1710826361786,1710826352573,2325969,0
1710826361786,1710826352614,2325103,0
1710826361786,1710826352653,2321051,0
1710826361786,1710826352693,2316431,0
1710826361786,1710826352733,2312640,0
1710826361786,1710826352774,2310158,0
1710826361786,1710826352814,2308008,0
1710826361786,1710826352854,2306190,0
1710826361786,1710826352894,2305280,0
1710826361786,1710826352934,2303652,0
1710826361786,1710826352974,2302076,0
1710826361786,1710826353015,2300957,0
1710826361786,1710826353054,2299640,0
1710826361786,1710826353095,2299275,0
1710826361786,1710826353135,2298163,0
1710826361786,1710826353175,2297852,0
1710826361786,1710826353215,2299158,0
1710826361786,1710826353255,2297585,0
1710826361786,1710826353295,2294982,0
1710826361786,1710826353335,2289924,0
1710826361786,1710826353376,2285873,0
1710826361786,1710826353416,2282938,0
1710826361786,1710826353456,2282403,0
1710826361786,1710826353496,2283143,0
1710826361786,1710826353536,2286079,0
1710826361786,1710826353576,2290262,0
1710826361786,1710826353617,2294153,0
1710826361786,1710826353656,2296661,0
1710826361786,1710826353696,2298153,0
1710826361786,1710826353737,2300190,0
1710826361786,1710826353777,2302332,0
1710826361786,1710826353817,2303401,0
1710826361786,1710826353857,2304640,0
1710826361786,1710826353897,2305481,0
1710826361786,1710826353937,2306128,0
1710826361786,1710826353977,2306835,0
1710826361786,1710826354018,2307626,0
1710826361786,1710826354057,2308763,0
1710826361786,1710826354097,2310047,0
1710826361786,1710826354137,2311432,0
1710826361786,1710826354177,2313154,0
1710826361786,1710826354218,2315435,0
1710826361786,1710826354258,2318513,0
1710826361786,1710826354298,2321948,0
1710826361786,1710826354338,2325289,0
1710826361786,1710826354378,2329072,0
1710826361786,1710826354418,2332123,0
1710826361786,1710826354458,2334929,0
1710826361786,1710826354498,2336772,0
1710826361786,1710826354538,2338192,0
1710826361786,1710826354578,2339714,0
1710826361786,1710826354619,2340972,0
1710826361786,1710826354658,2341393,0
1710826361786,1710826354698,2341471,0
1710826361786,1710826354739,2341577,0
1710826361786,1710826354779,2341846,0
1710826361786,1710826354819,2341850,0
1710826361786,1710826354859,2342206,0
1710826361786,1710826354899,2342644,0
1710826361786,1710826354939,2343049,0
1710826361786,1710826354979,2342454,0
1710826361786,1710826355020,2342092,0
1710826361786,1710826355059,2341246,0
1710826361786,1710826355099,2340143,0
1710826361786,1710826355139,2338920,0
1710826361786,1710826355180,2337906,0
1710826361786,1710826355220,2336906,0
1710826361786,1710826355260,2335565,0
1710826361786,1710826355300,2334426,0
1710826361786,1710826355340,2332977,0
1710826361786,1710826355380,2331741,0
1710826361786,1710826355421,2330549,0
1710826361786,1710826355460,2329652,0
1710826361786,1710826355500,2329145,0
1710826361786,1710826355540,2329118,0
1710826361786,1710826355580,2329238,0
1710826361786,1710826355621,2329509,0
1710826361786,1710826355661,2329526,0
1710826361786,1710826355701,2329466,0
1710826361786,1710826355741,2328947,0
1710826361786,1710826355781,2327612,0
1710826361786,1710826355822,2325269,0
1710826361786,1710826355861,2323530,0
1710826361786,1710826355901,2320774,0
1710826361786,1710826355941,2315810,0
1710826361786,1710826355981,2308837,0
1710826361786,1710826356022,2302930,0
1710826361786,1710826356061,2297638,0
1710826361786,1710826356102,2292734,0
1710826361786,1710826356142,2288365,0
1710826361786,1710826356182,2285115,0
1710826361786,1710826356223,2282513,0
1710826361786,1710826356262,2279791,0
1710826361786,1710826356302,2276300,0
1710826361786,1710826356342,2269520,0
1710826361786,1710826356382,2262081,0
1710826361786,1710826356423,2256979,0
1710826361786,1710826356462,2253992,0
1710826361786,1710826356503,2253598,0
1710826361786,1710826356543,2254555,0
1710826361786,1710826356583,2256193,0
1710826361786,1710826356624,2259025,0
1710826361786,1710826356663,2260598,0
1710826361786,1710826356703,2262535,0
1710826361786,1710826356743,2263614,0
1710826361786,1710826356783,2263971,0
1710826361786,1710826356824,2265519,0
1710826361786,1710826356863,2266400,0
1710826361786,1710826356903,2267726,0
1710826361786,1710826356944,2262397,0
1710826361786,1710826356984,2254549,0
1710826361786,1710826357025,2246657,0
1710826361786,1710826357064,2238900,0
1710826361786,1710826357104,2233339,0
1710826361786,1710826357144,2229526,0
1710826361786,1710826357184,2225396,0
1710826361786,1710826357225,2221643,0
1710826361786,1710826357264,2216762,0
1710826361786,1710826357305,2209932,0
1710826361786,1710826357345,2206004,0
1710826361786,1710826357385,2202992,0
1710826361786,1710826357426,2197680,0
1710826361786,1710826357465,2190244,0
1710826361786,1710826357505,2182848,0
1710826361786,1710826357545,2172881,0
1710826361786,1710826357585,2158281,0
1710826361786,1710826357626,2144881,0
1710826361786,1710826357665,2135039,0
1710826361786,1710826357706,2127265,0
1710826361786,1710826357746,2120790,0
1710826361786,1710826357786,2115284,0
1710826361786,1710826357827,2110183,0
1710826361786,1710826357866,2104764,0
1710826361786,1710826357906,2099418,0
1710826361786,1710826357946,2095088,0
1710826361786,1710826357986,2092405,0
1710826361786,1710826358027,2090758,0
1710826361786,1710826358067,2089471,0
1710826361786,1710826358107,2088716,0
1710826361786,1710826358147,2088150,0
1710826361786,1710826358187,2087369,0
1710826361786,1710826358228,2086637,0
1710826361786,1710826358267,2082197,0
1710826361786,1710826358307,2071569,0
1710826361786,1710826358347,2060441,0
1710826361786,1710826358387,2050934,0
1710826361786,1710826358429,2042823,0
1710826361786,1710826358467,2035424,0
1710826361786,1710826358508,2029646,0
1710826361786,1710826358548,2024802,0
1710826361786,1710826358588,2019215,0
1710826361786,1710826358629,2012870,0
1710826361786,1710826358668,2007742,0
1710826361786,1710826358708,2004474,0
1710826361786,1710826358748,2002026,0
1710826361786,1710826358789,2000078,0
1710826361786,1710826358830,1998729,0
1710826361786,1710826358869,1997862,0
1710826361786,1710826358909,1996829,0
1710826361786,1710826358949,1996384,0
1710826361786,1710826358989,1996140,0
1710826361786,1710826359030,1991214,0
1710826361786,1710826359069,1982003,0
1710826361786,1710826359109,1973993,0
1710826361786,1710826359150,1969071,0
1710826361786,1710826359190,1966221,0
1710826361786,1710826359231,1964508,0
1710826361786,1710826359270,1964802,0
1710826361786,1710826359310,1965932,0
1710826361786,1710826359350,1966790,0
1710826361786,1710826359390,1967021,0
1710826361786,1710826359431,1966916,0
1710826361786,1710826359470,1966631,0
1710826361786,1710826359511,1966010,0
1710826361786,1710826359551,1965207,0
1710826361786,1710826359591,1964330,0
1710826361786,1710826359632,1963417,0
1710826361786,1710826359671,1963390,0
1710826361786,1710826359711,1963544,0
1710826361786,1710826359751,1963524,0
1710826361786,1710826359791,1962783,0
1710826361786,1710826359833,1956535,0
1710826361786,1710826359872,1947030,0
1710826361786,1710826359912,1938645,0
1710826361786,1710826359952,1932477,0
1710826361786,1710826359992,1928330,0
1710826361786,1710826360033,1925573,0
1710826361786,1710826360072,1924734,0
1710826361786,1710826360113,1924902,0
1710826361786,1710826360153,1924538,0
1710826361786,1710826360193,1923850,0
1710826361786,1710826360234,1923555,0
1710826361786,1710826360273,1923061,0
1710826361786,1710826360313,1923468,0
1710826361786,1710826360353,1925003,0
1710826361786,1710826360393,1926976,0
1710826361786,1710826360435,1929068,0
1710826361786,1710826360474,1930770,0
1710826361786,1710826360514,1932712,0
1710826361786,1710826360554,1934547,0
1710826361786,1710826360594,1937122,0
1710826361786,1710826360635,1938921,0
1710826361786,1710826360674,1936107,0
1710826361786,1710826360715,1931356,0
1710826361786,1710826360755,1928123,0
1710826361786,1710826360795,1926312,0
1710826361786,1710826360836,1925416,0
1710826361786,1710826360875,1925142,0
1710826361786,1710826360915,1925663,0
1710826361786,1710826360956,1926402,0
1710826361786,1710826360996,1926693,0
1710826361786,1710826361037,1927101,0
1710826361786,1710826361076,1927766,0
1710826361786,1710826361116,1928975,0
1710826361786,1710826361156,1930434,0
1710826361786,1710826361196,1932176,0
1710826361786,1710826361237,1934178,0
1710826361786,1710826361276,1936108,0
1710826361786,1710826361316,1938179,0
1710826361786,1710826361356,1940320,0
1710826361786,1710826361396,1942361,0
1710826361786,1710826361438,1944804,0
1710826361786,1710826361477,1946889,0
1710826361786,1710826361517,1945758,0
1710826361786,1710826361557,1942558,0
1710826361786,1710826361597,1940321,0
1710826361786,1710826361638,1939486,0
1710826361786,1710826361677,1939377,0
1710826373844,1710826361774,1939923,0
1710826373844,1710826361814,1940944,0
1710826373844,1710826361854,1942073,0
1710826373844,1710826361895,1943098,0
1710826373844,1710826361934,1944067,0
1710826373844,1710826361975,1945262,0
1710826373844,1710826362015,1946662,0
1710826373844,1710826362055,1948505,0
1710826373844,1710826362096,1950332,0
1710826373844,1710826362135,1952406,0
1710826373844,1710826362175,1954496,0
1710826373844,1710826362215,1956612,0
1710826373844,1710826362255,1958785,0
1710826373844,1710826362296,1960878,0
1710826373844,1710826362335,1963005,0
1710826373844,1710826362375,1962989,0
1710826373844,1710826362416,1961422,0
1710826373844,1710826362456,1960295,0
1710826373844,1710826362497,1959945,0
1710826373844,1710826362536,1960517,0
1710826373844,1710826362576,1961253,0
1710826373844,1710826362616,1962445,0
1710826373844,1710826362656,1963704,0
1710826373844,1710826362697,1964888,0
1710826373844,1710826362736,1966021,0
1710826373844,1710826362776,1967328,0
1710826373844,1710826362817,1968740,0
1710826373844,1710826362857,1970584,0
1710826373844,1710826362898,1972543,0
1710826373844,1710826362937,1974537,0
1710826373844,1710826362977,1976464,0
1710826373844,1710826363017,1978486,0
1710826373844,1710826363057,1980394,0
1710826373844,1710826363098,1982416,0
1710826373844,1710826363137,1984534,0
1710826373844,1710826363178,1986477,0
1710826373844,1710826363218,1988394,0
1710826373844,1710826363258,1988310,0
1710826373844,1710826363299,1987375,0
1710826373844,1710826363338,1987087,0
1710826373844,1710826363378,1987438,0
1710826373844,1710826363418,1988361,0
1710826373844,1710826363458,1989490,0
1710826373844,1710826363499,1990977,0
1710826373844,1710826363539,1992316,0
1710826373844,1710826363579,1993453,0
1710826373844,1710826363619,1994677,0
1710826373844,1710826363659,1995967,0
1710826373844,1710826363700,1997402,0
1710826373844,1710826363739,1999053,0
1710826373844,1710826363779,2000644,0
1710826373844,1710826363819,2002352,0
1710826373844,1710826363859,2004092,0
1710826373844,1710826363900,2005838,0
1710826373844,1710826363939,2007518,0
1710826373844,1710826363979,2009331,0
1710826373844,1710826364020,2011084,0
1710826373844,1710826364060,2012942,0
1710826373844,1710826364100,2014657,0
1710826373844,1710826364140,2016065,0
1710826373844,1710826364180,2015892,0
1710826373844,1710826364220,2015267,0
1710826373844,1710826364260,2015287,0
1710826373844,1710826364301,2015780,0
1710826373844,1710826364340,2016686,0
1710826373844,1710826364381,2017703,0
1710826373844,1710826364421,2018856,0
1710826373844,1710826364461,2019931,0
1710826373844,1710826364502,2020989,0
1710826373844,1710826364541,2021865,0
1710826373844,1710826364581,2022983,0
1710826373844,1710826364621,2024179,0
1710826373844,1710826364661,2025471,0
1710826373844,1710826364702,2026827,0
1710826373844,1710826364742,2028314,0
1710826373844,1710826364782,2029604,0
1710826373844,1710826364822,2030959,0
1710826373844,1710826364862,2032262,0
1710826373844,1710826364903,2033603,0
1710826373844,1710826364942,2035028,0
1710826373844,1710826364982,2036446,0
1710826373844,1710826365022,2037896,0
1710826373844,1710826365062,2039203,0
1710826373844,1710826365103,2039076,0
1710826373844,1710826365142,2038141,0
1710826373844,1710826365183,2037243,0
1710826373844,1710826365223,2037480,0
1710826373844,1710826365263,2038077,0
1710826373844,1710826365304,2038986,0
1710826373844,1710826365343,2039906,0
1710826373844,1710826365383,2040905,0
1710826373844,1710826365423,2041705,0
1710826373844,1710826365463,2042517,0
1710826373844,1710826365504,2043160,0
1710826373844,1710826365544,2043580,0
1710826373844,1710826365584,2044653,0
1710826373844,1710826365624,2045793,0
1710826373844,1710826365664,2047060,0
1710826373844,1710826365705,2048415,0
1710826373844,1710826365744,2049864,0
1710826373844,1710826365784,2051073,0
1710826373844,1710826365824,2052484,0
1710826373844,1710826365864,2053695,0
1710826373844,1710826365905,2054929,0
1710826373844,1710826365945,2056068,0
1710826373844,1710826365985,2057296,0
1710826373844,1710826366025,2057379,0
1710826373844,1710826366065,2056038,0
1710826373844,1710826366106,2055122,0
1710826373844,1710826366146,2054438,0
1710826373844,1710826366186,2054637,0
1710826373844,1710826366226,2054737,0
1710826373844,1710826366266,2055147,0
1710826373844,1710826366307,2055664,0
1710826373844,1710826366346,2055923,0
1710826373844,1710826366387,2056009,0
1710826373844,1710826366427,2056206,0
1710826373844,1710826366467,2056645,0
1710826373844,1710826366508,2057150,0
1710826373844,1710826366547,2057840,0
1710826373844,1710826366587,2058451,0
1710826373844,1710826366627,2059246,0
1710826373844,1710826366668,2060000,0
1710826373844,1710826366708,2060852,0
1710826373844,1710826366748,2061673,0
1710826373844,1710826366788,2062506,0
1710826373844,1710826366828,2063423,0
1710826373844,1710826366868,2064200,0
1710826373844,1710826366909,2065236,0
1710826373844,1710826366948,2065210,0
1710826373844,1710826366988,2063431,0
1710826373844,1710826367029,2061632,0
1710826373844,1710826367069,2060465,0
1710826373844,1710826367109,2059927,0
1710826373844,1710826367149,2059645,0
1710826373844,1710826367189,2059702,0
1710826373844,1710826367229,2059603,0
1710826373844,1710826367269,2059486,0
1710826373844,1710826367310,2059175,0
1710826373844,1710826367349,2058833,0
1710826373844,1710826367390,2058886,0
1710826373844,1710826367430,2058980,0
1710826373844,1710826367470,2059163,0
1710826373844,1710826367511,2059448,0
1710826373844,1710826367550,2059789,0
1710826373844,1710826367590,2060448,0
1710826373844,1710826367630,2060860,0
1710826373844,1710826367670,2061795,0
1710826373844,1710826367711,2062369,0
1710826373844,1710826367751,2063203,0
1710826373844,1710826367791,2063922,0
1710826373844,1710826367831,2064637,0
1710826373844,1710826367871,2064470,0
1710826373844,1710826367912,2062088,0
1710826373844,1710826367951,2059667,0
1710826373844,1710826367991,2057894,0
1710826373844,1710826368031,2056848,0
1710826373844,1710826368072,2056321,0
1710826373844,1710826368113,2056046,0
1710826373844,1710826368152,2055923,0
1710826373844,1710826368192,2055401,0
1710826373844,1710826368232,2054865,0
1710826373844,1710826368272,2054353,0
1710826373844,1710826368313,2054109,0
1710826373844,1710826368352,2054150,0
1710826373844,1710826368392,2054559,0
1710826373844,1710826368432,2054975,0
1710826373844,1710826368473,2055371,0
1710826373844,1710826368513,2056073,0
1710826373844,1710826368553,2056538,0
1710826373844,1710826368593,2056989,0
1710826373844,1710826368633,2056985,0
1710826373844,1710826368673,2056850,0
1710826373844,1710826368714,2056812,0
1710826373844,1710826368753,2055058,0
1710826373844,1710826368793,2053471,0
1710826373844,1710826368833,2052546,0
1710826373844,1710826368873,2052719,0
1710826373844,1710826368914,2053463,0
1710826373844,1710826368954,2054659,0
1710826373844,1710826368993,2056059,0
1710826373844,1710826369034,2058168,0
1710826373844,1710826369074,2060677,0
1710826373844,1710826369114,2063633,0
1710826373844,1710826369154,2067003,0
1710826373844,1710826369194,2070540,0
1710826373844,1710826369234,2074089,0
1710826373844,1710826369274,2077322,0
1710826373844,1710826369315,2080241,0
1710826373844,1710826369354,2083071,0
1710826373844,1710826369394,2085287,0
1710826373844,1710826369435,2087679,0
1710826373844,1710826369475,2089923,0
1710826373844,1710826369515,2092221,0
1710826373844,1710826369555,2093360,0
1710826373844,1710826369595,2092504,0
1710826373844,1710826369635,2091237,0
1710826373844,1710826369675,2090545,0
1710826373844,1710826369716,2090557,0
1710826373844,1710826369755,2090871,0
1710826373844,1710826369795,2091863,0
1710826373844,1710826369835,2093036,0
1710826373844,1710826369876,2094473,0
1710826373844,1710826369916,2095654,0
1710826373844,1710826369956,2097090,0
1710826373844,1710826369996,2098555,0
1710826373844,1710826370036,2099969,0
1710826373844,1710826370076,2101804,0
1710826373844,1710826370117,2103679,0
1710826373844,1710826370156,2105494,0
1710826373844,1710826370196,2107181,0
1710826373844,1710826370237,2109098,0
1710826373844,1710826370277,2111003,0
1710826373844,1710826370317,2112411,0
1710826373844,1710826370357,2111783,0
1710826373844,1710826370397,2109384,0
1710826373844,1710826370437,2107285,0
1710826373844,1710826370477,2106091,0
1710826373844,1710826370518,2105874,0
1710826373844,1710826370557,2106153,0
1710826373844,1710826370598,2107014,0
1710826373844,1710826370638,2107713,0
1710826373844,1710826370678,2108292,0
1710826373844,1710826370719,2108652,0
1710826373844,1710826370758,2109106,0
1710826373844,1710826370798,2109947,0
1710826373844,1710826370838,2110919,0
1710826373844,1710826370878,2112130,0
1710826373844,1710826370919,2113191,0
1710826373844,1710826370958,2114304,0
1710826373844,1710826370999,2115657,0
1710826373844,1710826371039,2116958,0
1710826373844,1710826371079,2118066,0
1710826373844,1710826371120,2116425,0
1710826373844,1710826371159,2112974,0
1710826373844,1710826371199,2109623,0
1710826373844,1710826371239,2106801,0
1710826373844,1710826371279,2106861,0
1710826373844,1710826371320,2110962,0
1710826373844,1710826371360,2117756,0
1710826373844,1710826371400,2130966,0
1710826373844,1710826371440,2143523,0
1710826373844,1710826371480,2156285,0
1710826373844,1710826371521,2168509,0
1710826373844,1710826371560,2167265,0
1710826373844,1710826371600,2160153,0
1710826373844,1710826371640,2157859,0
1710826373844,1710826371680,2158118,0
1710826373844,1710826371721,2158709,0
1710826373844,1710826371761,2159904,0
1710826373844,1710826371801,2165264,0
1710826373844,1710826371841,2171864,0
1710826373844,1710826371881,2173924,0
1710826373844,1710826371922,2173563,0
1710826373844,1710826371961,2172667,0
1710826373844,1710826372001,2172701,0
1710826373844,1710826372041,2173773,0
1710826373844,1710826372082,2175875,0
1710826373844,1710826372122,2178241,0
1710826373844,1710826372162,2180983,0
1710826373844,1710826372202,2182357,0
1710826373844,1710826372242,2183171,0
1710826373844,1710826372282,2183693,0
1710826373844,1710826372323,2184168,0
1710826373844,1710826372362,2184345,0
1710826373844,1710826372402,2184611,0
1710826373844,1710826372443,2184856,0
1710826373844,1710826372483,2185158,0
1710826373844,1710826372523,2185603,0
1710826373844,1710826372563,2186247,0
1710826373844,1710826372603,2185456,0
1710826373844,1710826372643,2183695,0
1710826373844,1710826372683,2184119,0
1710826373844,1710826372724,2186624,0
1710826373844,1710826372764,2191165,0
1710826373844,1710826372804,2197050,0
1710826373844,1710826372844,2203366,0
1710826373844,1710826372884,2208660,0
1710826373844,1710826372925,2212187,0
1710826373844,1710826372964,2213178,0
1710826373844,1710826373004,2213038,0
1710826373844,1710826373045,2212896,0
1710826373844,1710826373084,2213307,0
1710826373844,1710826373125,2214098,0
1710826373844,1710826373165,2215200,0
1710826373844,1710826373205,2216265,0
1710826373844,1710826373245,2216861,0
1710826373844,1710826373285,2216821,0
1710826373844,1710826373326,2215538,0
1710826373844,1710826373365,2211376,0
1710826373844,1710826373406,2206625,0
1710826373844,1710826373446,2202415,0
1710826373844,1710826373486,2199454,0
1710826373844,1710826373527,2199020,0
1710826373844,1710826373566,2201833,0
1710826373844,1710826373606,2202343,0
1710826373844,1710826373647,2201587,0
1710826373844,1710826373687,2200205,0
1710826373844,1710826373728,2198355,0
1710826373844,1710826373767,2196907,0
1710826385867,1710826373806,2197280,0
1710826385867,1710826373845,2196719,0
1710826385867,1710826373884,2196345,0
1710826385867,1710826373923,2193960,0
1710826385867,1710826373962,2192662,0
1710826385867,1710826374001,2192110,0
1710826385867,1710826374040,2191383,0
1710826385867,1710826374079,2190055,0
1710826385867,1710826374118,2185934,0
1710826385867,1710826374157,2180006,0
1710826385867,1710826374196,2174791,0
1710826385867,1710826374235,2170812,0
1710826385867,1710826374274,2168332,0
1710826385867,1710826374313,2166719,0
1710826385867,1710826374352,2165598,0
1710826385867,1710826374391,2164348,0
1710826385867,1710826374430,2162878,0
1710826385867,1710826374469,2161253,0
1710826385867,1710826374508,2159764,0
1710826385867,1710826374548,2158838,0
1710826385867,1710826374588,2158224,0
1710826385867,1710826374628,2157668,0
1710826385867,1710826374668,2157401,0
1710826385867,1710826374708,2157027,0
1710826385867,1710826374748,2156668,0
1710826385867,1710826374788,2156320,0
1710826385867,1710826374828,2155474,0
1710826385867,1710826374868,2151342,0
1710826385867,1710826374908,2145132,0
1710826385867,1710826374948,2139849,0
1710826385867,1710826374988,2135649,0
1710826385867,1710826375028,2132135,0
1710826385867,1710826375068,2128363,0
1710826385867,1710826375108,2124162,0
1710826385867,1710826375148,2119349,0
1710826385867,1710826375188,2114067,0
1710826385867,1710826375228,2108678,0
1710826385867,1710826375268,2103934,0
1710826385867,1710826375308,2099917,0
1710826385867,1710826375348,2096644,0
1710826385867,1710826375388,2094055,0
1710826385867,1710826375428,2092052,0
1710826385867,1710826375468,2090539,0
1710826385867,1710826375508,2089658,0
1710826385867,1710826375548,2089396,0
1710826385867,1710826375588,2088884,0
1710826385867,1710826375628,2084757,0
1710826385867,1710826375668,2078287,0
1710826385867,1710826375708,2072036,0
1710826385867,1710826375748,2066810,0
1710826385867,1710826375788,2062687,0
1710826385867,1710826375828,2059286,0
1710826385867,1710826375868,2056623,0
1710826385867,1710826375908,2053860,0
1710826385867,1710826375948,2050430,0
1710826385867,1710826375988,2046409,0
1710826385867,1710826376028,2042506,0
1710826385867,1710826376068,2039321,0
1710826385867,1710826376108,2036721,0
1710826385867,1710826376148,2034800,0
1710826385867,1710826376188,2033172,0
1710826385867,1710826376228,2031657,0
1710826385867,1710826376268,2030211,0
1710826385867,1710826376308,2028649,0
1710826385867,1710826376348,2027219,0
1710826385867,1710826376388,2023449,0
1710826385867,1710826376428,2015380,0
1710826385867,1710826376468,2007135,0
1710826385867,1710826376508,2000372,0
1710826385867,1710826376548,1995299,0
1710826385867,1710826376588,1991004,0
1710826385867,1710826376628,1987690,0
1710826385867,1710826376668,1984491,0
1710826385867,1710826376708,1981129,0
1710826385867,1710826376748,1977628,0
1710826385867,1710826376788,1974523,0
1710826385867,1710826376828,1972008,0
1710826385867,1710826376868,1969593,0
1710826385867,1710826376908,1967156,0
1710826385867,1710826376948,1964189,0
1710826385867,1710826376988,1960760,0
1710826385867,1710826377028,1957306,0
1710826385867,1710826377068,1956091,0
1710826385867,1710826377108,1956001,0
1710826385867,1710826377148,1956154,0
1710826385867,1710826377188,1955350,0
1710826385867,1710826377228,1950108,0
1710826385867,1710826377268,1943111,0
1710826385867,1710826377308,1937250,0
1710826385867,1710826377348,1934397,0
1710826385867,1710826377388,1931509,0
1710826385867,1710826377428,1928855,0
1710826385867,1710826377468,1927522,0
1710826385867,1710826377508,1928116,0
1710826385867,1710826377548,1930480,0
1710826385867,1710826377588,1933026,0
1710826385867,1710826377628,1934761,0
1710826385867,1710826377668,1937573,0
1710826385867,1710826377708,1939977,0
1710826385867,1710826377748,1941873,0
1710826385867,1710826377788,1943357,0
1710826385867,1710826377828,1944953,0
1710826385867,1710826377868,1947157,0
1710826385867,1710826377908,1950136,0
1710826385867,1710826377948,1954074,0
1710826385867,1710826377988,1957976,0
1710826385867,1710826378028,1959622,0
1710826385867,1710826378068,1958335,0
1710826385867,1710826378108,1957943,0
1710826385867,1710826378148,1957857,0
1710826385867,1710826378188,1959404,0
1710826385867,1710826378228,1961576,0
1710826385867,1710826378268,1964409,0
1710826385867,1710826378308,1967478,0
1710826385867,1710826378348,1968707,0
1710826385867,1710826378388,1969486,0
1710826385867,1710826378428,1968833,0
1710826385867,1710826378468,1967350,0
1710826385867,1710826378508,1966278,0
1710826385867,1710826378548,1965243,0
1710826385867,1710826378588,1964048,0
1710826385867,1710826378628,1962787,0
1710826385867,1710826378668,1961662,0
1710826385867,1710826378708,1960498,0
1710826385867,1710826378748,1959188,0
1710826385867,1710826378788,1957967,0
1710826385867,1710826378828,1955936,0
1710826385867,1710826378868,1949905,0
1710826385867,1710826378908,1942060,0
1710826385867,1710826378948,1935339,0
1710826385867,1710826378988,1930512,0
1710826385867,1710826379028,1926924,0
1710826385867,1710826379068,1924620,0
1710826385867,1710826379108,1923283,0
1710826385867,1710826379148,1921807,0
1710826385867,1710826379188,1920281,0
1710826385867,1710826379228,1919412,0
1710826385867,1710826379268,1919147,0
1710826385867,1710826379308,1920164,0
1710826385867,1710826379348,1921803,0
1710826385867,1710826379388,1923709,0
1710826385867,1710826379428,1925685,0
1710826385867,1710826379468,1926849,0
1710826385867,1710826379508,1927729,0
1710826385867,1710826379548,1928397,0
1710826385867,1710826379588,1929557,0
1710826385867,1710826379628,1930263,0
1710826385867,1710826379668,1926494,0
1710826385867,1710826379708,1920388,0
1710826385867,1710826379748,1915578,0
1710826385867,1710826379788,1912634,0
1710826385867,1710826379828,1910846,0
1710826385867,1710826379868,1909666,0
1710826385867,1710826379908,1909175,0
1710826385867,1710826379948,1907971,0
1710826385867,1710826379988,1906368,0
1710826385867,1710826380028,1905366,0
1710826385867,1710826380068,1904840,0
1710826385867,1710826380108,1905017,0
1710826385867,1710826380148,1905495,0
1710826385867,1710826380188,1906379,0
1710826385867,1710826380228,1907492,0
1710826385867,1710826380268,1908506,0
1710826385867,1710826380308,1909042,0
1710826385867,1710826380348,1910163,0
1710826385867,1710826380388,1911439,0
1710826385867,1710826380428,1912189,0
1710826385867,1710826380468,1909384,0
1710826385867,1710826380508,1904019,0
1710826385867,1710826380548,1899959,0
1710826385867,1710826380588,1897589,0
1710826385867,1710826380628,1896306,0
1710826385867,1710826380668,1896045,0
1710826385867,1710826380708,1896221,0
1710826385867,1710826380748,1895951,0
1710826385867,1710826380788,1895440,0
1710826385867,1710826380828,1895004,0
1710826385867,1710826380868,1894859,0
1710826385867,1710826380908,1895227,0
1710826385867,1710826380948,1895960,0
1710826385867,1710826380988,1897098,0
1710826385867,1710826381028,1898469,0
1710826385867,1710826381068,1899923,0
1710826385867,1710826381108,1901273,0
1710826385867,1710826381148,1902783,0
1710826385867,1710826381188,1904273,0
1710826385867,1710826381228,1905885,0
1710826385867,1710826381268,1905738,0
1710826385867,1710826381308,1901790,0
1710826385867,1710826381348,1897836,0
1710826385867,1710826381388,1895584,0
1710826385867,1710826381428,1894941,0
1710826385867,1710826381468,1894765,0
1710826385867,1710826381508,1895260,0
1710826385867,1710826381548,1895556,0
1710826385867,1710826381588,1895514,0
1710826385867,1710826381628,1895363,0
1710826385867,1710826381668,1895567,0
1710826385867,1710826381708,1896207,0
1710826385867,1710826381748,1897421,0
1710826385867,1710826381788,1898794,0
1710826385867,1710826381828,1900468,0
1710826385867,1710826381868,1902162,0
1710826385867,1710826381908,1903978,0
1710826385867,1710826381948,1905611,0
1710826385867,1710826381988,1907319,0
1710826385867,1710826382028,1909282,0
1710826385867,1710826382068,1911142,0
1710826385867,1710826382108,1912228,0
1710826385867,1710826382148,1905425,0
1710826385867,1710826382188,1903251,0
1710826385867,1710826382228,1902652,0
1710826385867,1710826382268,1902750,0
1710826385867,1710826382308,1903190,0
1710826385867,1710826382348,1904005,0
1710826385867,1710826382388,1904235,0
1710826385867,1710826382428,1904308,0
1710826385867,1710826382468,1904480,0
1710826385867,1710826382508,1905178,0
1710826385867,1710826382548,1906215,0
1710826385867,1710826382588,1907714,0
1710826385867,1710826382628,1909462,0
1710826385867,1710826382668,1911163,0
1710826385867,1710826382708,1912950,0
1710826385867,1710826382748,1914775,0
1710826385867,1710826382788,1916554,0
1710826385867,1710826382828,1918444,0
1710826385867,1710826382868,1920358,0
1710826385867,1710826382908,1922288,0
1710826385867,1710826382948,1924104,0
1710826385867,1710826382988,1922561,0
1710826385867,1710826383028,1919119,0
1710826385867,1710826383068,1916651,0
1710826385867,1710826383108,1915640,0
1710826385867,1710826383148,1915626,0
1710826385867,1710826383188,1916205,0
1710826385867,1710826383228,1917018,0
1710826385867,1710826383268,1917480,0
1710826385867,1710826383308,1917488,0
1710826385867,1710826383348,1917650,0
1710826385867,1710826383388,1918213,0
1710826385867,1710826383428,1919283,0
1710826385867,1710826383468,1920672,0
1710826385867,1710826383508,1922189,0
1710826385867,1710826383548,1924195,0
1710826385867,1710826383588,1927353,0
1710826385867,1710826383628,1931259,0
1710826385867,1710826383668,1935369,0
1710826385867,1710826383708,1938824,0
1710826385867,1710826383748,1941697,0
1710826385867,1710826383788,1945100,0
1710826385867,1710826383828,1947556,0
1710826385867,1710826383868,1947400,0
1710826385867,1710826383908,1944192,0
1710826385867,1710826383948,1941563,0
1710826385867,1710826383988,1940349,0
1710826385867,1710826384028,1940283,0
1710826385867,1710826384068,1940539,0
1710826385867,1710826384108,1941388,0
1710826385867,1710826384148,1942112,0
1710826385867,1710826384188,1942510,0
1710826385867,1710826384228,1942856,0
1710826385867,1710826384268,1943350,0
1710826385867,1710826384308,1944461,0
1710826385867,1710826384348,1945918,0
1710826385867,1710826384388,1947598,0
1710826385867,1710826384428,1949450,0
1710826385867,1710826384468,1951217,0
1710826385867,1710826384508,1953182,0
1710826385867,1710826384548,1955178,0
1710826385867,1710826384588,1957220,0
1710826385867,1710826384628,1959292,0
1710826385867,1710826384668,1961391,0
1710826385867,1710826384708,1963497,0
1710826385867,1710826384748,1964677,0
1710826385867,1710826384788,1962754,0
1710826385867,1710826384828,1960149,0
1710826385867,1710826384868,1958783,0
1710826385867,1710826384908,1958705,0
1710826385867,1710826384948,1959135,0
1710826385867,1710826384988,1960123,0
1710826385867,1710826385028,1961054,0
1710826385867,1710826385068,1961887,0
1710826385867,1710826385108,1962485,0
1710826385867,1710826385148,1963219,0
1710826385867,1710826385188,1964497,0
1710826385867,1710826385228,1965886,0
1710826385867,1710826385268,1967584,0
1710826385867,1710826385308,1969572,0
1710826385867,1710826385348,1971593,0
1710826385867,1710826385388,1973595,0
1710826385867,1710826385428,1975555,0
1710826385867,1710826385468,1977562,0
1710826385867,1710826385508,1979423,0
1710826385867,1710826385548,1981477,0
1710826385867,1710826385588,1982985,0
1710826385867,1710826385628,1981413,0
1710826385867,1710826385668,1979110,0
1710826385867,1710826385708,1977497,0
1710826385867,1710826385748,1977177,0
1710826397930,1710826385837,1977346,0
1710826397930,1710826385877,1977795,0
1710826397930,1710826385918,1978338,0
1710826397930,1710826385958,1978585,0
1710826397930,1710826385998,1978724,0
1710826397930,1710826386038,1979007,0
1710826397930,1710826386078,1979634,0
1710826397930,1710826386118,1980646,0
1710826397930,1710826386159,1981851,0
1710826397930,1710826386199,1983237,0
1710826397930,1710826386239,1984621,0
1710826397930,1710826386279,1986040,0
1710826397930,1710826386319,1987418,0
1710826397930,1710826386360,1988866,0
1710826397930,1710826386399,1990561,0
1710826397930,1710826386439,1992593,0
1710826397930,1710826386479,1994295,0
1710826397930,1710826386519,1993428,0
1710826397930,1710826386560,1990748,0
1710826397930,1710826386600,1988835,0
1710826397930,1710826386640,1988112,0
1710826397930,1710826386680,1988346,0
1710826397930,1710826386720,1989393,0
1710826397930,1710826386761,1990530,0
1710826397930,1710826386800,1990957,0
1710826397930,1710826386840,1990996,0
1710826397930,1710826386881,1990997,0
1710826397930,1710826386921,1991372,0
1710826397930,1710826386961,1992071,0
1710826397930,1710826387001,1993066,0
1710826397930,1710826387041,1994134,0
1710826397930,1710826387081,1995035,0
1710826397930,1710826387121,1995986,0
1710826397930,1710826387162,1997187,0
1710826397930,1710826387201,1998243,0
1710826397930,1710826387242,1999407,0
1710826397930,1710826387282,2000612,0
1710826397930,1710826387322,2001882,0
1710826397930,1710826387363,2001636,0
1710826397930,1710826387402,1998818,0
1710826397930,1710826387442,1995836,0
1710826397930,1710826387482,1994220,0
1710826397930,1710826387522,1993658,0
1710826397930,1710826387563,1993531,0
1710826397930,1710826387603,1993675,0
1710826397930,1710826387643,1993605,0
1710826397930,1710826387683,1993124,0
1710826397930,1710826387723,1992864,0
1710826397930,1710826387764,1992644,0
1710826397930,1710826387803,1992911,0
1710826397930,1710826387843,1993549,0
1710826397930,1710826387883,1994411,0
1710826397930,1710826387924,1995227,0
1710826397930,1710826387965,1996235,0
1710826397930,1710826388004,1997268,0
1710826397930,1710826388044,1998102,0
1710826397930,1710826388084,1999119,0
1710826397930,1710826388124,2000421,0
1710826397930,1710826388165,2001575,0
1710826397930,1710826388205,2002877,0
1710826397930,1710826388245,2002339,0
1710826397930,1710826388285,1999372,0
1710826397930,1710826388325,1996834,0
1710826397930,1710826388366,1995492,0
1710826397930,1710826388405,1995199,0
1710826397930,1710826388445,1995293,0
1710826397930,1710826388485,1995613,0
1710826397930,1710826388526,1995643,0
1710826397930,1710826388567,1995354,0
1710826397930,1710826388606,1995093,0
1710826397930,1710826388646,1995133,0
1710826397930,1710826388686,1995540,0
1710826397930,1710826388726,1996185,0
1710826397930,1710826388767,1997000,0
1710826397930,1710826388807,1998035,0
1710826397930,1710826388847,1999083,0
1710826397930,1710826388887,2000133,0
1710826397930,1710826388927,2001152,0
1710826397930,1710826388968,2002048,0
1710826397930,1710826389007,2003257,0
1710826397930,1710826389048,2004409,0
1710826397930,1710826389088,2005196,0
1710826397930,1710826389128,2003148,0
1710826397930,1710826389169,2000157,0
1710826397930,1710826389208,1997829,0
1710826397930,1710826389248,1997126,0
1710826397930,1710826389289,1997010,0
1710826397930,1710826389329,1997162,0
1710826397930,1710826389370,1997457,0
1710826397930,1710826389409,1997266,0
1710826397930,1710826389449,1996844,0
1710826397930,1710826389489,1996674,0
1710826397930,1710826389530,1996815,0
1710826397930,1710826389570,1997284,0
1710826397930,1710826389610,1998036,0
1710826397930,1710826389650,1998815,0
1710826397930,1710826389690,1999753,0
1710826397930,1710826389730,2000588,0
1710826397930,1710826389771,2001537,0
1710826397930,1710826389811,2002286,0
1710826397930,1710826389851,2003408,0
1710826397930,1710826389891,2004410,0
1710826397930,1710826389931,2005512,0
1710826397930,1710826389972,2003762,0
1710826397930,1710826390012,2000257,0
1710826397930,1710826390052,1997447,0
1710826397930,1710826390092,1995908,0
1710826397930,1710826390132,1995241,0
1710826397930,1710826390173,1994866,0
1710826397930,1710826390212,1994593,0
1710826397930,1710826390253,1993998,0
1710826397930,1710826390293,1993221,0
1710826397930,1710826390333,1992441,0
1710826397930,1710826390374,1992176,0
1710826397930,1710826390413,1992243,0
1710826397930,1710826390454,1992600,0
1710826397930,1710826390494,1992992,0
1710826397930,1710826390534,1993604,0
1710826397930,1710826390575,1994161,0
1710826397930,1710826390614,1994782,0
1710826397930,1710826390655,1995371,0
1710826397930,1710826390695,1995907,0
1710826397930,1710826390735,1996682,0
1710826397930,1710826390776,1997539,0
1710826397930,1710826390816,1996371,0
1710826397930,1710826390856,1992521,0
1710826397930,1710826390896,1988981,0
1710826397930,1710826390936,1986814,0
1710826397930,1710826390977,1985537,0
1710826397930,1710826391017,1984993,0
1710826397930,1710826391057,1984518,0
1710826397930,1710826391097,1983963,0
1710826397930,1710826391138,1982845,0
1710826397930,1710826391179,1981999,0
1710826397930,1710826391218,1981337,0
1710826397930,1710826391258,1981281,0
1710826397930,1710826391299,1981514,0
1710826397930,1710826391339,1981960,0
1710826397930,1710826391380,1982473,0
1710826397930,1710826391419,1983001,0
1710826397930,1710826391460,1983688,0
1710826397930,1710826391500,1984355,0
1710826397930,1710826391540,1985017,0
1710826397930,1710826391581,1985828,0
1710826397930,1710826391621,1986659,0
1710826397930,1710826391661,1987340,0
1710826397930,1710826391701,1984934,0
1710826397930,1710826391741,1980911,0
1710826397930,1710826391782,1978087,0
1710826397930,1710826391822,1976852,0
1710826397930,1710826391862,1976183,0
1710826397930,1710826391902,1975825,0
1710826397930,1710826391943,1975660,0
1710826397930,1710826391983,1975145,0
1710826397930,1710826392023,1974332,0
1710826397930,1710826392063,1973698,0
1710826397930,1710826392103,1973627,0
1710826397930,1710826392144,1973823,0
1710826397930,1710826392185,1974502,0
1710826397930,1710826392224,1975281,0
1710826397930,1710826392265,1976151,0
1710826397930,1710826392305,1977037,0
1710826397930,1710826392345,1978099,0
1710826397930,1710826392386,1979142,0
1710826397930,1710826392426,1980203,0
1710826397930,1710826392466,1981333,0
1710826397930,1710826392506,1982679,0
1710826397930,1710826392547,1983444,0
1710826397930,1710826392588,1980946,0
1710826397930,1710826392627,1974741,0
1710826397930,1710826392668,1973568,0
1710826397930,1710826392708,1973152,0
1710826397930,1710826392748,1973750,0
1710826397930,1710826392789,1974559,0
1710826397930,1710826392828,1974184,0
1710826397930,1710826392868,1973440,0
1710826397930,1710826392909,1973939,0
1710826397930,1710826392949,1974845,0
1710826397930,1710826392989,1975285,0
1710826397930,1710826393029,1975044,0
1710826397930,1710826393069,1974457,0
1710826397930,1710826393109,1974438,0
1710826397930,1710826393150,1974415,0
1710826397930,1710826393190,1973893,0
1710826397930,1710826393230,1973197,0
1710826397930,1710826393271,1973417,0
1710826397930,1710826393311,1973837,0
1710826397930,1710826393351,1973423,0
1710826397930,1710826393392,1970961,0
1710826397930,1710826393431,1971389,0
1710826397930,1710826393472,1973062,0
1710826397930,1710826393512,1977273,0
1710826397930,1710826393552,1983622,0
1710826397930,1710826393593,1988952,0
1710826397930,1710826393632,1993513,0
1710826397930,1710826393673,1998901,0
1710826397930,1710826393713,2002674,0
1710826397930,1710826393753,2002205,0
1710826397930,1710826393794,1998864,0
1710826397930,1710826393833,1998146,0
1710826397930,1710826393874,1996807,0
1710826397930,1710826393914,1994668,0
1710826397930,1710826393954,1998967,0
1710826397930,1710826393995,2004836,0
1710826397930,1710826394035,2009072,0
1710826397930,1710826394075,2010200,0
1710826397930,1710826394115,2007437,0
1710826397930,1710826394155,2009349,0
1710826397930,1710826394196,2010901,0
1710826397930,1710826394236,2011719,0
1710826397930,1710826394277,2012280,0
1710826397930,1710826394317,2011426,0
1710826397930,1710826394357,2009040,0
1710826397930,1710826394398,2006379,0
1710826397930,1710826394438,2004183,0
1710826397930,1710826394478,2002194,0
1710826397930,1710826394518,2000342,0
1710826397930,1710826394558,1998689,0
1710826397930,1710826394599,1997553,0
1710826397930,1710826394639,1996673,0
1710826397930,1710826394679,1995788,0
1710826397930,1710826394720,1995210,0
1710826397930,1710826394760,1994709,0
1710826397930,1710826394801,1994408,0
1710826397930,1710826394840,1994470,0
1710826397930,1710826394880,1995292,0
1710826397930,1710826394921,1996250,0
1710826397930,1710826394961,1994047,0
1710826397930,1710826395002,1989759,0
1710826397930,1710826395041,1986579,0
1710826397930,1710826395082,1984681,0
1710826397930,1710826395122,1983000,0
1710826397930,1710826395162,1981323,0
1710826397930,1710826395203,1980232,0
1710826397930,1710826395243,1978871,0
1710826397930,1710826395283,1977147,0
1710826397930,1710826395323,1975729,0
1710826397930,1710826395363,1975199,0
1710826397930,1710826395404,1975833,0
1710826397930,1710826395444,1977123,0
1710826397930,1710826395484,1978734,0
1710826397930,1710826395524,1979776,0
1710826397930,1710826395565,1980291,0
1710826397930,1710826395605,1981194,0
1710826397930,1710826395645,1981574,0
1710826397930,1710826395685,1980115,0
1710826397930,1710826395725,1978257,0
1710826397930,1710826395766,1978569,0
1710826397930,1710826395807,1979536,0
1710826397930,1710826395846,1980836,0
1710826397930,1710826395887,1982893,0
1710826397930,1710826395927,1986394,0
1710826397930,1710826395967,1990133,0
1710826397930,1710826396008,1994341,0
1710826397930,1710826396048,1998773,0
1710826397930,1710826396088,2002984,0
1710826397930,1710826396128,2008554,0
1710826397930,1710826396168,2015490,0
1710826397930,1710826396209,2021597,0
1710826397930,1710826396248,2026306,0
1710826397930,1710826396289,2029775,0
1710826397930,1710826396329,2033193,0
1710826397930,1710826396369,2036593,0
1710826397930,1710826396410,2038085,0
1710826397930,1710826396449,2036921,0
1710826397930,1710826396489,2035932,0
1710826397930,1710826396530,2035919,0
1710826397930,1710826396570,2036233,0
1710826397930,1710826396611,2036454,0
1710826397930,1710826396650,2037106,0
1710826397930,1710826396690,2037622,0
1710826397930,1710826396730,2037829,0
1710826397930,1710826396771,2037705,0
1710826397930,1710826396811,2037772,0
1710826397930,1710826396851,2038226,0
1710826397930,1710826396891,2038666,0
1710826397930,1710826396931,2039026,0
1710826397930,1710826396971,2039474,0
1710826397930,1710826397013,2039220,0
1710826397930,1710826397052,2038719,0
1710826397930,1710826397092,2037709,0
1710826397930,1710826397132,2036462,0
1710826397930,1710826397172,2033918,0
1710826397930,1710826397213,2029204,0
1710826397930,1710826397253,2025160,0
1710826397930,1710826397293,2022482,0
1710826397930,1710826397333,2020673,0
1710826397930,1710826397374,2019284,0
1710826397930,1710826397414,2018117,0
1710826397930,1710826397454,2017032,0
1710826397930,1710826397494,2015800,0
1710826397930,1710826397534,2014849,0
1710826397930,1710826397575,2014654,0
1710826397930,1710826397616,2015842,0
1710826397930,1710826397655,2017026,0
1710826397930,1710826397695,2017629,0
1710826397930,1710826397736,2018119,0
1710826397930,1710826397776,2018432,0
1710826397930,1710826397817,2018664,0
1710826397930,1710826397857,2018881,0
1710826409989,1710826397898,2019230,0
1710826409989,1710826397938,2019599,0
1710826409989,1710826397979,2017277,0
1710826409989,1710826398019,2012859,0
1710826409989,1710826398059,2009682,0
1710826409989,1710826398099,2007730,0
1710826409989,1710826398139,2006233,0
1710826409989,1710826398179,2005047,0
1710826409989,1710826398220,2004328,0
1710826409989,1710826398259,2003782,0
1710826409989,1710826398299,2003205,0
1710826409989,1710826398340,2002624,0
1710826409989,1710826398380,2002303,0
1710826409989,1710826398420,2001979,0
1710826409989,1710826398460,2001544,0
1710826409989,1710826398500,2001452,0
1710826409989,1710826398540,2001403,0
1710826409989,1710826398580,2001559,0
1710826409989,1710826398621,2001557,0
1710826409989,1710826398660,2001990,0
1710826409989,1710826398701,2002397,0
1710826409989,1710826398741,2003138,0
1710826409989,1710826398781,2003595,0
1710826409989,1710826398822,2001231,0
1710826409989,1710826398861,1998912,0
1710826409989,1710826398901,1997714,0
1710826409989,1710826398941,1997343,0
1710826409989,1710826398981,1997356,0
1710826409989,1710826399022,1997831,0
1710826409989,1710826399062,1998277,0
1710826409989,1710826399102,1998149,0
1710826409989,1710826399142,1997623,0
1710826409989,1710826399182,1996858,0
1710826409989,1710826399223,1996158,0
1710826409989,1710826399262,1994960,0
1710826409989,1710826399303,1994002,0
1710826409989,1710826399343,1993178,0
1710826409989,1710826399383,1992582,0
1710826409989,1710826399424,1991751,0
1710826409989,1710826399463,1991449,0
1710826409989,1710826399503,1991269,0
1710826409989,1710826399543,1991252,0
1710826409989,1710826399583,1991268,0
1710826409989,1710826399624,1990382,0
1710826409989,1710826399664,1986435,0
1710826409989,1710826399704,1982593,0
1710826409989,1710826399744,1981774,0
1710826409989,1710826399784,1984091,0
1710826409989,1710826399825,1986494,0
1710826409989,1710826399864,1988247,0
1710826409989,1710826399904,1989536,0
1710826409989,1710826399945,1989941,0
1710826409989,1710826399985,1990198,0
1710826409989,1710826400026,1990485,0
1710826409989,1710826400065,1992191,0
1710826409989,1710826400105,1994269,0
1710826409989,1710826400145,1996654,0
1710826409989,1710826400185,1999173,0
1710826409989,1710826400226,2003002,0
1710826409989,1710826400266,2007240,0
1710826409989,1710826400306,2010970,0
1710826409989,1710826400346,2014242,0
1710826409989,1710826400386,2016927,0
1710826409989,1710826400427,2020083,0
1710826409989,1710826400466,2022368,0
1710826409989,1710826400507,2021126,0
1710826409989,1710826400547,2018745,0
1710826409989,1710826400587,2017273,0
1710826409989,1710826400628,2016565,0
1710826409989,1710826400667,2015996,0
1710826409989,1710826400707,2015720,0
1710826409989,1710826400747,2015510,0
1710826409989,1710826400787,2015453,0
1710826409989,1710826400828,2016447,0
1710826409989,1710826400868,2024655,0
1710826409989,1710826400908,2027839,0
1710826409989,1710826400948,2030841,0
1710826409989,1710826400988,2034326,0
1710826409989,1710826401028,2036791,0
1710826409989,1710826401068,2038559,0
1710826409989,1710826401108,2040069,0
1710826409989,1710826401148,2041114,0
1710826409989,1710826401188,2041954,0
1710826409989,1710826401229,2040480,0
1710826409989,1710826401268,2036459,0
1710826409989,1710826401308,2033152,0
1710826409989,1710826401349,2031026,0
1710826409989,1710826401389,2029746,0
1710826409989,1710826401429,2028562,0
1710826409989,1710826401469,2027493,0
1710826409989,1710826401509,2026322,0
1710826409989,1710826401549,2024435,0
1710826409989,1710826401589,2022384,0
1710826409989,1710826401630,2020534,0
1710826409989,1710826401669,2019181,0
1710826409989,1710826401710,2018031,0
1710826409989,1710826401750,2017227,0
1710826409989,1710826401790,2016392,0
1710826409989,1710826401830,2015698,0
1710826409989,1710826401870,2015062,0
1710826409989,1710826401910,2014506,0
1710826409989,1710826401950,2014034,0
1710826409989,1710826401990,2012094,0
1710826409989,1710826402031,2006771,0
1710826409989,1710826402070,2001053,0
1710826409989,1710826402110,1996662,0
1710826409989,1710826402150,1993381,0
1710826409989,1710826402191,1990541,0
1710826409989,1710826402231,1988439,0
1710826409989,1710826402271,1986445,0
1710826409989,1710826402311,1984270,0
1710826409989,1710826402351,1982083,0
1710826409989,1710826402391,1980114,0
1710826409989,1710826402432,1978723,0
1710826409989,1710826402471,1977762,0
1710826409989,1710826402511,1977464,0
1710826409989,1710826402551,1977134,0
1710826409989,1710826402591,1976844,0
1710826409989,1710826402632,1977055,0
1710826409989,1710826402672,1977018,0
1710826409989,1710826402712,1977178,0
1710826409989,1710826402752,1977419,0
1710826409989,1710826402792,1974241,0
1710826409989,1710826402833,1968673,0
1710826409989,1710826402872,1964807,0
1710826409989,1710826402912,1964256,0
1710826409989,1710826402952,1967185,0
1710826409989,1710826402992,1971151,0
1710826409989,1710826403033,1975904,0
1710826409989,1710826403073,1980307,0
1710826409989,1710826403113,1984339,0
1710826409989,1710826403153,1987567,0
1710826409989,1710826403193,1990878,0
1710826409989,1710826403234,1994650,0
1710826409989,1710826403273,1998070,0
1710826409989,1710826403313,2001690,0
1710826409989,1710826403353,2004809,0
1710826409989,1710826403393,2008472,0
1710826409989,1710826403434,2012546,0
1710826409989,1710826403473,2016247,0
1710826409989,1710826403514,2020249,0
1710826409989,1710826403554,2023421,0
1710826409989,1710826403594,2023481,0
1710826409989,1710826403635,2022021,0
1710826409989,1710826403674,2021648,0
1710826409989,1710826403714,2022526,0
1710826409989,1710826403754,2023958,0
1710826409989,1710826403794,2025761,0
1710826409989,1710826403835,2027966,0
1710826409989,1710826403875,2029688,0
1710826409989,1710826403915,2031141,0
1710826409989,1710826403955,2032645,0
1710826409989,1710826403995,2035057,0
1710826409989,1710826404036,2037845,0
1710826409989,1710826404075,2040555,0
1710826409989,1710826404115,2043356,0
1710826409989,1710826404155,2045718,0
1710826409989,1710826404195,2048439,0
1710826409989,1710826404236,2051129,0
1710826409989,1710826404276,2053749,0
1710826409989,1710826404316,2056346,0
1710826409989,1710826404356,2059843,0
1710826409989,1710826404396,2063097,0
1710826409989,1710826404437,2063109,0
1710826409989,1710826404476,2063119,0
1710826409989,1710826404516,2063953,0
1710826409989,1710826404557,2065506,0
1710826409989,1710826404597,2067999,0
1710826409989,1710826404637,2071452,0
1710826409989,1710826404677,2074702,0
1710826409989,1710826404717,2077643,0
1710826409989,1710826404757,2080149,0
1710826409989,1710826404797,2082523,0
1710826409989,1710826404838,2085570,0
1710826409989,1710826404877,2088255,0
1710826409989,1710826404917,2091054,0
1710826409989,1710826404958,2094211,0
1710826409989,1710826404998,2097597,0
1710826409989,1710826405038,2101184,0
1710826409989,1710826405078,2104742,0
1710826409989,1710826405118,2107763,0
1710826409989,1710826405158,2110214,0
1710826409989,1710826405198,2112604,0
1710826409989,1710826405239,2112917,0
1710826409989,1710826405278,2110230,0
1710826409989,1710826405319,2107367,0
1710826409989,1710826405359,2104918,0
1710826409989,1710826405399,2101348,0
1710826409989,1710826405440,2097669,0
1710826409989,1710826405479,2093979,0
1710826409989,1710826405519,2090719,0
1710826409989,1710826405560,2087815,0
1710826409989,1710826405600,2085595,0
1710826409989,1710826405641,2083514,0
1710826409989,1710826405680,2082115,0
1710826409989,1710826405720,2081119,0
1710826409989,1710826405760,2080776,0
1710826409989,1710826405801,2080808,0
1710826409989,1710826405842,2080957,0
1710826409989,1710826405881,2081235,0
1710826409989,1710826405921,2081510,0
1710826409989,1710826405962,2081886,0
1710826409989,1710826406002,2082000,0
1710826409989,1710826406043,2079881,0
1710826409989,1710826406082,2073839,0
1710826409989,1710826406123,2067461,0
1710826409989,1710826406163,2062173,0
1710826409989,1710826406203,2057472,0
1710826409989,1710826406244,2053778,0
1710826409989,1710826406284,2051420,0
1710826409989,1710826406324,2050122,0
1710826409989,1710826406364,2048587,0
1710826409989,1710826406404,2046755,0
1710826409989,1710826406445,2044983,0
1710826409989,1710826406485,2043061,0
1710826409989,1710826406525,2041479,0
1710826409989,1710826406565,2039951,0
1710826409989,1710826406605,2038843,0
1710826409989,1710826406646,2037993,0
1710826409989,1710826406686,2037100,0
1710826409989,1710826406726,2036069,0
1710826409989,1710826406767,2035085,0
1710826409989,1710826406807,2033630,0
1710826409989,1710826406848,2030160,0
1710826409989,1710826406888,2023041,0
1710826409989,1710826406928,2016250,0
1710826409989,1710826406968,2010739,0
1710826409989,1710826407008,2006559,0
1710826409989,1710826407049,2002797,0
1710826409989,1710826407088,1999719,0
1710826409989,1710826407129,1996782,0
1710826409989,1710826407169,1993519,0
1710826409989,1710826407209,1990390,0
1710826409989,1710826407250,1988119,0
1710826409989,1710826407289,1986018,0
1710826409989,1710826407329,1984187,0
1710826409989,1710826407370,1982531,0
1710826409989,1710826407410,1981050,0
1710826409989,1710826407450,1979884,0
1710826409989,1710826407490,1978959,0
1710826409989,1710826407530,1977823,0
1710826409989,1710826407570,1976869,0
1710826409989,1710826407611,1976050,0
1710826409989,1710826407651,1975187,0
1710826409989,1710826407691,1970591,0
1710826409989,1710826407731,1963966,0
1710826409989,1710826407771,1958305,0
1710826409989,1710826407811,1954267,0
1710826409989,1710826407852,1950779,0
1710826409989,1710826407892,1947831,0
1710826409989,1710826407932,1945703,0
1710826409989,1710826407972,1943453,0
1710826409989,1710826408012,1940997,0
1710826409989,1710826408053,1938565,0
1710826409989,1710826408093,1936638,0
1710826409989,1710826408133,1935033,0
1710826409989,1710826408173,1933967,0
1710826409989,1710826408213,1933006,0
1710826409989,1710826408254,1932588,0
1710826409989,1710826408294,1932315,0
1710826409989,1710826408334,1931940,0
1710826409989,1710826408374,1931681,0
1710826409989,1710826408414,1931875,0
1710826409989,1710826408456,1932113,0
1710826409989,1710826408495,1932150,0
1710826409989,1710826408535,1928568,0
1710826409989,1710826408576,1923159,0
1710826409989,1710826408616,1918977,0
1710826409989,1710826408657,1917024,0
1710826409989,1710826408696,1916577,0
1710826409989,1710826408736,1916407,0
1710826409989,1710826408777,1916424,0
1710826409989,1710826408817,1915690,0
1710826409989,1710826408858,1914560,0
1710826409989,1710826408897,1913673,0
1710826409989,1710826408938,1912801,0
1710826409989,1710826408978,1912441,0
1710826409989,1710826409018,1912381,0
1710826409989,1710826409059,1912548,0
1710826409989,1710826409099,1912628,0
1710826409989,1710826409139,1912866,0
1710826409989,1710826409179,1913306,0
1710826409989,1710826409220,1913795,0
1710826409989,1710826409261,1914137,0
1710826409989,1710826409300,1914632,0
1710826409989,1710826409341,1915386,0
1710826409989,1710826409381,1913049,0
1710826409989,1710826409421,1908165,0
1710826409989,1710826409462,1904346,0
1710826409989,1710826409502,1901950,0
1710826409989,1710826409542,1900542,0
1710826409989,1710826409582,1899698,0
1710826409989,1710826409622,1899333,0
1710826409989,1710826409663,1898757,0
1710826409989,1710826409703,1897779,0
1710826409989,1710826409743,1896751,0
1710826409989,1710826409783,1896279,0
1710826409989,1710826409824,1896211,0
1710826409989,1710826409864,1896760,0
1710826409989,1710826409904,1897357,0
1710826422030,1710826409943,1898196,0
1710826422030,1710826409983,1898938,0
1710826422030,1710826410023,1899999,0
1710826422030,1710826410064,1901106,0
1710826422030,1710826410104,1902220,0
1710826422030,1710826410144,1903301,0
1710826422030,1710826410184,1901509,0
1710826422030,1710826410224,1897429,0
1710826422030,1710826410265,1894307,0
1710826422030,1710826410304,1892774,0
1710826422030,1710826410344,1891955,0
1710826422030,1710826410385,1891605,0
1710826422030,1710826410425,1891973,0
1710826422030,1710826410465,1891836,0
1710826422030,1710826410505,1891648,0
1710826422030,1710826410545,1891919,0
1710826422030,1710826410585,1893217,0
1710826422030,1710826410625,1894834,0
1710826422030,1710826410666,1896832,0
1710826422030,1710826410705,1899199,0
1710826422030,1710826410745,1901352,0
1710826422030,1710826410785,1903787,0
1710826422030,1710826410825,1906676,0
1710826422030,1710826410866,1909310,0
1710826422030,1710826410906,1908936,0
1710826422030,1710826410946,1906548,0
1710826422030,1710826410986,1905397,0
1710826422030,1710826411026,1905653,0
1710826422030,1710826411067,1906299,0
1710826422030,1710826411106,1907672,0
1710826422030,1710826411146,1909194,0
1710826422030,1710826411186,1910254,0
1710826422030,1710826411226,1910801,0
1710826422030,1710826411267,1911060,0
1710826422030,1710826411306,1911643,0
1710826422030,1710826411347,1912737,0
1710826422030,1710826411387,1913797,0
1710826422030,1710826411427,1915236,0
1710826422030,1710826411468,1916795,0
1710826422030,1710826411507,1918446,0
1710826422030,1710826411547,1920179,0
1710826422030,1710826411587,1921854,0
1710826422030,1710826411627,1923560,0
1710826422030,1710826411668,1922845,0
1710826422030,1710826411707,1919326,0
1710826422030,1710826411747,1916857,0
1710826422030,1710826411787,1915701,0
1710826422030,1710826411828,1915158,0
1710826422030,1710826411868,1915157,0
1710826422030,1710826411908,1915675,0
1710826422030,1710826411948,1915994,0
1710826422030,1710826411988,1916092,0
1710826422030,1710826412028,1916147,0
1710826422030,1710826412069,1916573,0
1710826422030,1710826412108,1917270,0
1710826422030,1710826412148,1918141,0
1710826422030,1710826412188,1919584,0
1710826422030,1710826412228,1920891,0
1710826422030,1710826412269,1922209,0
1710826422030,1710826412309,1923363,0
1710826422030,1710826412349,1924523,0
1710826422030,1710826412389,1925895,0
1710826422030,1710826412429,1926622,0
1710826422030,1710826412470,1924156,0
1710826422030,1710826412509,1920788,0
1710826422030,1710826412549,1918845,0
1710826422030,1710826412589,1917742,0
1710826422030,1710826412629,1917325,0
1710826422030,1710826412670,1917429,0
1710826422030,1710826412709,1917751,0
1710826422030,1710826412750,1917882,0
1710826422030,1710826412790,1917837,0
1710826422030,1710826412830,1918095,0
1710826422030,1710826412870,1918656,0
1710826422030,1710826412910,1919578,0
1710826422030,1710826412950,1920763,0
1710826422030,1710826412990,1922061,0
1710826422030,1710826413030,1923420,0
1710826422030,1710826413071,1924729,0
1710826422030,1710826413110,1926125,0
1710826422030,1710826413151,1927463,0
1710826422030,1710826413191,1928860,0
1710826422030,1710826413231,1930014,0
1710826422030,1710826413271,1928115,0
1710826422030,1710826413311,1924849,0
1710826422030,1710826413351,1922379,0
1710826422030,1710826413391,1921060,0
1710826422030,1710826413431,1920188,0
1710826422030,1710826413472,1919791,0
1710826422030,1710826413511,1919865,0
1710826422030,1710826413551,1919642,0
1710826422030,1710826413591,1919014,0
1710826422030,1710826413632,1918760,0
1710826422030,1710826413672,1918526,0
1710826422030,1710826413712,1918565,0
1710826422030,1710826413752,1918454,0
1710826422030,1710826413792,1918653,0
1710826422030,1710826413832,1919025,0
1710826422030,1710826413873,1919450,0
1710826422030,1710826413912,1920047,0
1710826422030,1710826413952,1920673,0
1710826422030,1710826413993,1921126,0
1710826422030,1710826414033,1919948,0
1710826422030,1710826414073,1915970,0
1710826422030,1710826414113,1912812,0
1710826422030,1710826414153,1910947,0
1710826422030,1710826414193,1909936,0
1710826422030,1710826414233,1909079,0
1710826422030,1710826414274,1909010,0
1710826422030,1710826414313,1908886,0
1710826422030,1710826414354,1908660,0
1710826422030,1710826414394,1908721,0
1710826422030,1710826414434,1908952,0
1710826422030,1710826414474,1909635,0
1710826422030,1710826414514,1910655,0
1710826422030,1710826414554,1911957,0
1710826422030,1710826414594,1913278,0
1710826422030,1710826414634,1914379,0
1710826422030,1710826414675,1915440,0
1710826422030,1710826414714,1916883,0
1710826422030,1710826414754,1918415,0
1710826422030,1710826414794,1919580,0
1710826422030,1710826414835,1917539,0
1710826422030,1710826414875,1914259,0
1710826422030,1710826414915,1912165,0
1710826422030,1710826414955,1911063,0
1710826422030,1710826414995,1910377,0
1710826422030,1710826415035,1910216,0
1710826422030,1710826415076,1910588,0
1710826422030,1710826415115,1910704,0
1710826422030,1710826415155,1910694,0
1710826422030,1710826415195,1910809,0
1710826422030,1710826415235,1911361,0
1710826422030,1710826415276,1912335,0
1710826422030,1710826415316,1913521,0
1710826422030,1710826415356,1914798,0
1710826422030,1710826415396,1916524,0
1710826422030,1710826415436,1918431,0
1710826422030,1710826415477,1921063,0
1710826422030,1710826415516,1923912,0
1710826422030,1710826415556,1926694,0
1710826422030,1710826415596,1928992,0
1710826422030,1710826415636,1929087,0
1710826422030,1710826415677,1926735,0
1710826422030,1710826415717,1924651,0
1710826422030,1710826415757,1923383,0
1710826422030,1710826415797,1922825,0
1710826422030,1710826415837,1922304,0
1710826422030,1710826415878,1922138,0
1710826422030,1710826415917,1922332,0
1710826422030,1710826415957,1922059,0
1710826422030,1710826415997,1921967,0
1710826422030,1710826416037,1922058,0
1710826422030,1710826416078,1922545,0
1710826422030,1710826416117,1923388,0
1710826422030,1710826416158,1924565,0
1710826422030,1710826416198,1925777,0
1710826422030,1710826416238,1927204,0
1710826422030,1710826416279,1928550,0
1710826422030,1710826416318,1929897,0
1710826422030,1710826416358,1931628,0
1710826422030,1710826416398,1933534,0
1710826422030,1710826416438,1934543,0
1710826422030,1710826416479,1932547,0
1710826422030,1710826416519,1931176,0
1710826422030,1710826416559,1932280,0
1710826422030,1710826416599,1936856,0
1710826422030,1710826416639,1942164,0
1710826422030,1710826416680,1947615,0
1710826422030,1710826416719,1953181,0
1710826422030,1710826416759,1957459,0
1710826422030,1710826416799,1961375,0
1710826422030,1710826416840,1966376,0
1710826422030,1710826416881,1971731,0
1710826422030,1710826416920,1976375,0
1710826422030,1710826416960,1981080,0
1710826422030,1710826417000,1985964,0
1710826422030,1710826417040,1990244,0
1710826422030,1710826417081,1993730,0
1710826422030,1710826417120,1996424,0
1710826422030,1710826417160,1999049,0
1710826422030,1710826417201,2001055,0
1710826422030,1710826417241,1999817,0
1710826422030,1710826417282,1997551,0
1710826422030,1710826417321,1996010,0
1710826422030,1710826417361,1994589,0
1710826422030,1710826417401,1993297,0
1710826422030,1710826417441,1991993,0
1710826422030,1710826417483,1990675,0
1710826422030,1710826417522,1988954,0
1710826422030,1710826417562,1987196,0
1710826422030,1710826417602,1986055,0
1710826422030,1710826417642,1985804,0
1710826422030,1710826417683,1986599,0
1710826422030,1710826417723,1988279,0
1710826422030,1710826417763,1991147,0
1710826422030,1710826417803,1994103,0
1710826422030,1710826417844,1997319,0
1710826422030,1710826417885,2000442,0
1710826422030,1710826417924,2003211,0
1710826422030,1710826417964,2005690,0
1710826422030,1710826418004,2004923,0
1710826422030,1710826418045,2003682,0
1710826422030,1710826418086,2002800,0
1710826422030,1710826418125,2002556,0
1710826422030,1710826418165,2002510,0
1710826422030,1710826418205,2002447,0
1710826422030,1710826418245,2002461,0
1710826422030,1710826418286,2001968,0
1710826422030,1710826418326,2001121,0
1710826422030,1710826418366,2000508,0
1710826422030,1710826418406,2000271,0
1710826422030,1710826418446,2000512,0
1710826422030,1710826418487,2001094,0
1710826422030,1710826418527,2001809,0
1710826422030,1710826418567,2002453,0
1710826422030,1710826418607,2002963,0
1710826422030,1710826418647,2003377,0
1710826422030,1710826418688,2003706,0
1710826422030,1710826418727,2003943,0
1710826422030,1710826418768,2002176,0
1710826422030,1710826418808,1997856,0
1710826422030,1710826418848,1994171,0
1710826422030,1710826418889,1991690,0
1710826422030,1710826418928,1989803,0
1710826422030,1710826418968,1988420,0
1710826422030,1710826419009,1987425,0
1710826422030,1710826419049,1986513,0
1710826422030,1710826419090,1985272,0
1710826422030,1710826419129,1984135,0
1710826422030,1710826419170,1983443,0
1710826422030,1710826419210,1983137,0
1710826422030,1710826419250,1983123,0
1710826422030,1710826419291,1983291,0
1710826422030,1710826419330,1983401,0
1710826422030,1710826419370,1983658,0
1710826422030,1710826419411,1983742,0
1710826422030,1710826419451,1984064,0
1710826422030,1710826419492,1984562,0
1710826422030,1710826419532,1985036,0
1710826422030,1710826419572,1984433,0
1710826422030,1710826419612,1980530,0
1710826422030,1710826419652,1976327,0
1710826422030,1710826419693,1973581,0
1710826422030,1710826419733,1971703,0
1710826422030,1710826419773,1970106,0
1710826422030,1710826419813,1968801,0
1710826422030,1710826419853,1967895,0
1710826422030,1710826419895,1966515,0
1710826422030,1710826419934,1964990,0
1710826422030,1710826419974,1963656,0
1710826422030,1710826420015,1962854,0
1710826422030,1710826420055,1962407,0
1710826422030,1710826420096,1962172,0
1710826422030,1710826420135,1962346,0
1710826422030,1710826420176,1962224,0
1710826422030,1710826420218,1962325,0
1710826422030,1710826420258,1962630,0
1710826422030,1710826420299,1962795,0
1710826422030,1710826420338,1963210,0
1710826422030,1710826420379,1963624,0
1710826422030,1710826420419,1962882,0
1710826422030,1710826420459,1958458,0
1710826422030,1710826420500,1953397,0
1710826422030,1710826420540,1949766,0
1710826422030,1710826420580,1947422,0
1710826422030,1710826420620,1945755,0
1710826422030,1710826420660,1944645,0
1710826422030,1710826420701,1943716,0
1710826422030,1710826420741,1942777,0
1710826422030,1710826420781,1941678,0
1710826422030,1710826420821,1941132,0
1710826422030,1710826420862,1940768,0
1710826422030,1710826420902,1940782,0
1710826422030,1710826420942,1941027,0
1710826422030,1710826420982,1941456,0
1710826422030,1710826421022,1941921,0
1710826422030,1710826421063,1942630,0
1710826422030,1710826421104,1943555,0
1710826422030,1710826421143,1946195,0
1710826422030,1710826421184,1947380,0
1710826422030,1710826421224,1946165,0
1710826422030,1710826421264,1941867,0
1710826422030,1710826421305,1937994,0
1710826422030,1710826421344,1935671,0
1710826422030,1710826421384,1934409,0
1710826422030,1710826421425,1933754,0
1710826422030,1710826421465,1933622,0
1710826422030,1710826421506,1933310,0
1710826422030,1710826421545,1932798,0
1710826422030,1710826421585,1932154,0
1710826422030,1710826421625,1932017,0
1710826422030,1710826421666,1932165,0
1710826422030,1710826421707,1932484,0
1710826422030,1710826421746,1933252,0
1710826422030,1710826421786,1933988,0
1710826422030,1710826421826,1934795,0
1710826422030,1710826421866,1935740,0
1710826422030,1710826421907,1937103,0
1710826422030,1710826421947,1938975,0
1710826434071,1710826421988,1939987,0
1710826434071,1710826422028,1938601,0
1710826434071,1710826422068,1936745,0
1710826434071,1710826422109,1936264,0
1710826434071,1710826422148,1936605,0
1710826434071,1710826422188,1937219,0
1710826434071,1710826422228,1938305,0
1710826434071,1710826422268,1939350,0
1710826434071,1710826422309,1939516,0
1710826434071,1710826422349,1939280,0
1710826434071,1710826422389,1939241,0
1710826434071,1710826422429,1939440,0
1710826434071,1710826422469,1940030,0
1710826434071,1710826422510,1940742,0
1710826434071,1710826422549,1941975,0
1710826434071,1710826422589,1944497,0
1710826434071,1710826422629,1948914,0
1710826434071,1710826422669,1955148,0
1710826434071,1710826422710,1962562,0
1710826434071,1710826422749,1971329,0
1710826434071,1710826422790,1978493,0
1710826434071,1710826422830,1983919,0
1710826434071,1710826422870,1989895,0
1710826434071,1710826422911,1996458,0
1710826434071,1710826422950,2002821,0
1710826434071,1710826422990,2008918,0
1710826434071,1710826423030,2014638,0
1710826434071,1710826423070,2018859,0
1710826434071,1710826423111,2020879,0
1710826434071,1710826423151,2022204,0
1710826434071,1710826423191,2024267,0
1710826434071,1710826423231,2026713,0
1710826434071,1710826423271,2029650,0
1710826434071,1710826423312,2032667,0
1710826434071,1710826423351,2035808,0
1710826434071,1710826423391,2038421,0
1710826434071,1710826423431,2041052,0
1710826434071,1710826423471,2043616,0
1710826434071,1710826423512,2046185,0
1710826434071,1710826423551,2048643,0
1710826434071,1710826423592,2048036,0
1710826434071,1710826423632,2045936,0
1710826434071,1710826423672,2045329,0
1710826434071,1710826423713,2045907,0
1710826434071,1710826423752,2046990,0
1710826434071,1710826423792,2048298,0
1710826434071,1710826423832,2050107,0
1710826434071,1710826423872,2051301,0
1710826434071,1710826423913,2053170,0
1710826434071,1710826423952,2055218,0
1710826434071,1710826423993,2057495,0
1710826434071,1710826424033,2059475,0
1710826434071,1710826424073,2061650,0
1710826434071,1710826424114,2064324,0
1710826434071,1710826424153,2066757,0
1710826434071,1710826424193,2069161,0
1710826434071,1710826424233,2071288,0
1710826434071,1710826424273,2073754,0
1710826434071,1710826424314,2075348,0
1710826434071,1710826424354,2074962,0
1710826434071,1710826424394,2072755,0
1710826434071,1710826424434,2071661,0
1710826434071,1710826424474,2072104,0
1710826434071,1710826424514,2073225,0
1710826434071,1710826424554,2074988,0
1710826434071,1710826424594,2077425,0
1710826434071,1710826424634,2079955,0
1710826434071,1710826424674,2082265,0
1710826434071,1710826424715,2084926,0
1710826434071,1710826424754,2087589,0
1710826434071,1710826424795,2090349,0
1710826434071,1710826424835,2092384,0
1710826434071,1710826424875,2094393,0
1710826434071,1710826424916,2095592,0
1710826434071,1710826424955,2096834,0
1710826434071,1710826424995,2098460,0
1710826434071,1710826425035,2100555,0
1710826434071,1710826425075,2102245,0
1710826434071,1710826425116,2101454,0
1710826434071,1710826425155,2099409,0
1710826434071,1710826425196,2098873,0
1710826434071,1710826425236,2098658,0
1710826434071,1710826425276,2098422,0
1710826434071,1710826425317,2098371,0
1710826434071,1710826425356,2098169,0
1710826434071,1710826425396,2097248,0
1710826434071,1710826425436,2095770,0
1710826434071,1710826425476,2094311,0
1710826434071,1710826425517,2093317,0
1710826434071,1710826425557,2093393,0
1710826434071,1710826425597,2093716,0
1710826434071,1710826425637,2094537,0
1710826434071,1710826425677,2095545,0
1710826434071,1710826425718,2096211,0
1710826434071,1710826425757,2096921,0
1710826434071,1710826425797,2097062,0
1710826434071,1710826425837,2094152,0
1710826434071,1710826425877,2090245,0
1710826434071,1710826425918,2087650,0
1710826434071,1710826425957,2086165,0
1710826434071,1710826425998,2085064,0
1710826434071,1710826426038,2084749,0
1710826434071,1710826426078,2084641,0
1710826434071,1710826426119,2084215,0
1710826434071,1710826426158,2083772,0
1710826434071,1710826426198,2083736,0
1710826434071,1710826426238,2084404,0
1710826434071,1710826426278,2084966,0
1710826434071,1710826426319,2085375,0
1710826434071,1710826426358,2085770,0
1710826434071,1710826426399,2086418,0
1710826434071,1710826426439,2087715,0
1710826434071,1710826426479,2089930,0
1710826434071,1710826426520,2093560,0
1710826434071,1710826426559,2096015,0
1710826434071,1710826426599,2098377,0
1710826434071,1710826426639,2101353,0
1710826434071,1710826426679,2104780,0
1710826434071,1710826426720,2107894,0
1710826434071,1710826426760,2110246,0
1710826434071,1710826426800,2112807,0
1710826434071,1710826426840,2114385,0
1710826434071,1710826426880,2114853,0
1710826434071,1710826426921,2114794,0
1710826434071,1710826426960,2114631,0
1710826434071,1710826427000,2114433,0
1710826434071,1710826427040,2114382,0
1710826434071,1710826427080,2114624,0
1710826434071,1710826427121,2114619,0
1710826434071,1710826427161,2114892,0
1710826434071,1710826427201,2115208,0
1710826434071,1710826427241,2115620,0
1710826434071,1710826427281,2115310,0
1710826434071,1710826427322,2111643,0
1710826434071,1710826427361,2107678,0
1710826434071,1710826427401,2104989,0
1710826434071,1710826427441,2103150,0
1710826434071,1710826427482,2101651,0
1710826434071,1710826427522,2100846,0
1710826434071,1710826427562,2100300,0
1710826434071,1710826427602,2099370,0
1710826434071,1710826427642,2098445,0
1710826434071,1710826427682,2097652,0
1710826434071,1710826427723,2097332,0
1710826434071,1710826427763,2097498,0
1710826434071,1710826427803,2097872,0
1710826434071,1710826427843,2098248,0
1710826434071,1710826427883,2098912,0
1710826434071,1710826427924,2099584,0
1710826434071,1710826427963,2100314,0
1710826434071,1710826428003,2100928,0
1710826434071,1710826428043,2099246,0
1710826434071,1710826428083,2095012,0
1710826434071,1710826428124,2091647,0
1710826434071,1710826428163,2089317,0
1710826434071,1710826428204,2087691,0
1710826434071,1710826428243,2086463,0
1710826434071,1710826428284,2086013,0
1710826434071,1710826428325,2085505,0
1710826434071,1710826428364,2084539,0
1710826434071,1710826428404,2083802,0
1710826434071,1710826428444,2083392,0
1710826434071,1710826428484,2083360,0
1710826434071,1710826428525,2083802,0
1710826434071,1710826428564,2084094,0
1710826434071,1710826428604,2084423,0
1710826434071,1710826428644,2084848,0
1710826434071,1710826428684,2085293,0
1710826434071,1710826428725,2086079,0
1710826434071,1710826428765,2085966,0
1710826434071,1710826428805,2082928,0
1710826434071,1710826428845,2079640,0
1710826434071,1710826428885,2077668,0
1710826434071,1710826428926,2076248,0
1710826434071,1710826428965,2074997,0
1710826434071,1710826429005,2074633,0
1710826434071,1710826429045,2074360,0
1710826434071,1710826429085,2073991,0
1710826434071,1710826429126,2073601,0
1710826434071,1710826429165,2073557,0
1710826434071,1710826429205,2074228,0
1710826434071,1710826429245,2075357,0
1710826434071,1710826429286,2076754,0
1710826434071,1710826429326,2078175,0
1710826434071,1710826429366,2079609,0
1710826434071,1710826429406,2080708,0
1710826434071,1710826429446,2082045,0
1710826434071,1710826429486,2083666,0
1710826434071,1710826429527,2084648,0
1710826434071,1710826429566,2082415,0
1710826434071,1710826429606,2079113,0
1710826434071,1710826429647,2076890,0
1710826434071,1710826429687,2075668,0
1710826434071,1710826429728,2074653,0
1710826434071,1710826429767,2074174,0
1710826434071,1710826429807,2074628,0
1710826434071,1710826429847,2074813,0
1710826434071,1710826429888,2075043,0
1710826434071,1710826429928,2075294,0
1710826434071,1710826429968,2075947,0
1710826434071,1710826430008,2076746,0
1710826434071,1710826430048,2077630,0
1710826434071,1710826430090,2078654,0
1710826434071,1710826430132,2080087,0
1710826434071,1710826430171,2081370,0
1710826434071,1710826430211,2082436,0
1710826434071,1710826430251,2083593,0
1710826434071,1710826430292,2084935,0
1710826434071,1710826430333,2086152,0
1710826434071,1710826430372,2084630,0
1710826434071,1710826430412,2081689,0
1710826434071,1710826430453,2079859,0
1710826434071,1710826430493,2079066,0
1710826434071,1710826430534,2078601,0
1710826434071,1710826430573,2078560,0
1710826434071,1710826430614,2078973,0
1710826434071,1710826430654,2078867,0
1710826434071,1710826430694,2078234,0
1710826434071,1710826430735,2077853,0
1710826434071,1710826430774,2077763,0
1710826434071,1710826430815,2078417,0
1710826434071,1710826430855,2079815,0
1710826434071,1710826430895,2082178,0
1710826434071,1710826430936,2084520,0
1710826434071,1710826430976,2087684,0
1710826434071,1710826431016,2091302,0
1710826434071,1710826431056,2094811,0
1710826434071,1710826431097,2098888,0
1710826434071,1710826431137,2100810,0
1710826434071,1710826431177,2100940,0
1710826434071,1710826431217,2102296,0
1710826434071,1710826431257,2103880,0
1710826434071,1710826431298,2105002,0
1710826434071,1710826431339,2105160,0
1710826434071,1710826431378,2104622,0
1710826434071,1710826431418,2104150,0
1710826434071,1710826431459,2103150,0
1710826434071,1710826431499,2102777,0
1710826434071,1710826431540,2102618,0
1710826434071,1710826431580,2102498,0
1710826434071,1710826431620,2102770,0
1710826434071,1710826431660,2103168,0
1710826434071,1710826431700,2103958,0
1710826434071,1710826431741,2104663,0
1710826434071,1710826431781,2105793,0
1710826434071,1710826431821,2106966,0
1710826434071,1710826431861,2107639,0
1710826434071,1710826431901,2107325,0
1710826434071,1710826431943,2104070,0
1710826434071,1710826431982,2099733,0
1710826434071,1710826432022,2095703,0
1710826434071,1710826432063,2095505,0
1710826434071,1710826432103,2096927,0
1710826434071,1710826432145,2099357,0
1710826434071,1710826432184,2102420,0
1710826434071,1710826432224,2105827,0
1710826434071,1710826432265,2109514,0
1710826434071,1710826432305,2113119,0
1710826434071,1710826432346,2117031,0
1710826434071,1710826432385,2120601,0
1710826434071,1710826432425,2123970,0
1710826434071,1710826432465,2127053,0
1710826434071,1710826432506,2130054,0
1710826434071,1710826432547,2132773,0
1710826434071,1710826432586,2135149,0
1710826434071,1710826432626,2137286,0
1710826434071,1710826432666,2137971,0
1710826434071,1710826432706,2137070,0
1710826434071,1710826432747,2137037,0
1710826434071,1710826432787,2138186,0
1710826434071,1710826432827,2139739,0
1710826434071,1710826432867,2140400,0
1710826434071,1710826432907,2141010,0
1710826434071,1710826432948,2142251,0
1710826434071,1710826432988,2145198,0
1710826434071,1710826433028,2150385,0
1710826434071,1710826433068,2156056,0
1710826434071,1710826433108,2161824,0
1710826434071,1710826433149,2166831,0
1710826434071,1710826433189,2171050,0
1710826434071,1710826433229,2174588,0
1710826434071,1710826433269,2177464,0
1710826434071,1710826433309,2180159,0
1710826434071,1710826433350,2182436,0
1710826434071,1710826433390,2184395,0
1710826434071,1710826433430,2186399,0
1710826434071,1710826433470,2185653,0
1710826434071,1710826433511,2181801,0
1710826434071,1710826433552,2178976,0
1710826434071,1710826433591,2176934,0
1710826434071,1710826433631,2174277,0
1710826434071,1710826433672,2171216,0
1710826434071,1710826433712,2168074,0
1710826434071,1710826433753,2163860,0
1710826434071,1710826433792,2159833,0
1710826434071,1710826433833,2155950,0
1710826434071,1710826433873,2152751,0
1710826434071,1710826433913,2149860,0
1710826434071,1710826433954,2147904,0
1710826434071,1710826433994,2146475,0
1710826446087,1710826434033,2144133,0
1710826446087,1710826434072,2141592,0
1710826446087,1710826434111,2138969,0
1710826446087,1710826434150,2136553,0
1710826446087,1710826434189,2132490,0
1710826446087,1710826434228,2124171,0
1710826446087,1710826434267,2115075,0
1710826446087,1710826434306,2107197,0
1710826446087,1710826434345,2100323,0
1710826446087,1710826434384,2094154,0
1710826446087,1710826434423,2089032,0
1710826446087,1710826434462,2084033,0
1710826446087,1710826434501,2079107,0
1710826446087,1710826434540,2074764,0
1710826446087,1710826434579,2071700,0
1710826446087,1710826434618,2068999,0
1710826446087,1710826434657,2066443,0
1710826446087,1710826434696,2064139,0
1710826446087,1710826434735,2062097,0
1710826446087,1710826434774,2060054,0
1710826446087,1710826434814,2058345,0
1710826446087,1710826434854,2057509,0
1710826446087,1710826434894,2056887,0
1710826446087,1710826434934,2055760,0
1710826446087,1710826434974,2050057,0
1710826446087,1710826435014,2041732,0
1710826446087,1710826435054,2034930,0
1710826446087,1710826435094,2030070,0
1710826446087,1710826435134,2025613,0
1710826446087,1710826435174,2022208,0
1710826446087,1710826435214,2020747,0
1710826446087,1710826435254,2017976,0
1710826446087,1710826435294,2014771,0
1710826446087,1710826435334,2011659,0
1710826446087,1710826435374,2008956,0
1710826446087,1710826435414,2006766,0
1710826446087,1710826435454,2004799,0
1710826446087,1710826435494,2003058,0
1710826446087,1710826435534,2001520,0
1710826446087,1710826435574,1999958,0
1710826446087,1710826435614,1997921,0
1710826446087,1710826435654,1996015,0
1710826446087,1710826435694,1994581,0
1710826446087,1710826435734,1993294,0
1710826446087,1710826435774,1991878,0
1710826446087,1710826435814,1986239,0
1710826446087,1710826435854,1976722,0
1710826446087,1710826435894,1968112,0
1710826446087,1710826435934,1961371,0
1710826446087,1710826435974,1955777,0
1710826446087,1710826436014,1950900,0
1710826446087,1710826436054,1947289,0
1710826446087,1710826436094,1943876,0
1710826446087,1710826436134,1939865,0
1710826446087,1710826436174,1935907,0
1710826446087,1710826436214,1932711,0
1710826446087,1710826436254,1929376,0
1710826446087,1710826436294,1926210,0
1710826446087,1710826436334,1923421,0
1710826446087,1710826436374,1921963,0
1710826446087,1710826436414,1922966,0
1710826446087,1710826436454,1922644,0
1710826446087,1710826436494,1921867,0
1710826446087,1710826436534,1921476,0
1710826446087,1710826436574,1919599,0
1710826446087,1710826436614,1914093,0
1710826446087,1710826436654,1905504,0
1710826446087,1710826436694,1897535,0
1710826446087,1710826436734,1891289,0
1710826446087,1710826436774,1885835,0
1710826446087,1710826436814,1880412,0
1710826446087,1710826436854,1876593,0
1710826446087,1710826436894,1874528,0
1710826446087,1710826436934,1872004,0
1710826446087,1710826436974,1869011,0
1710826446087,1710826437014,1867314,0
1710826446087,1710826437054,1865992,0
1710826446087,1710826437094,1865714,0
1710826446087,1710826437134,1867520,0
1710826446087,1710826437174,1869885,0
1710826446087,1710826437214,1873234,0
1710826446087,1710826437254,1875570,0
1710826446087,1710826437294,1877665,0
1710826446087,1710826437334,1881721,0
1710826446087,1710826437374,1887355,0
1710826446087,1710826437414,1893812,0
1710826446087,1710826437454,1899179,0
1710826446087,1710826437494,1904160,0
1710826446087,1710826437534,1911882,0
1710826446087,1710826437574,1922734,0
1710826446087,1710826437614,1931761,0
1710826446087,1710826437654,1939635,0
1710826446087,1710826437694,1947762,0
1710826446087,1710826437734,1955672,0
1710826446087,1710826437774,1964129,0
1710826446087,1710826437814,1973615,0
1710826446087,1710826437854,1983132,0
1710826446087,1710826437894,1991736,0
1710826446087,1710826437934,2000291,0
1710826446087,1710826437974,2009007,0
1710826446087,1710826438014,2017055,0
1710826446087,1710826438054,2025509,0
1710826446087,1710826438094,2033562,0
1710826446087,1710826438134,2039481,0
1710826446087,1710826438174,2043349,0
1710826446087,1710826438214,2044696,0
1710826446087,1710826438254,2044997,0
1710826446087,1710826438294,2044282,0
1710826446087,1710826438334,2040299,0
1710826446087,1710826438374,2034141,0
1710826446087,1710826438414,2028871,0
1710826446087,1710826438454,2025680,0
1710826446087,1710826438494,2023667,0
1710826446087,1710826438534,2022330,0
1710826446087,1710826438574,2021687,0
1710826446087,1710826438614,2020953,0
1710826446087,1710826438654,2020138,0
1710826446087,1710826438694,2020384,0
1710826446087,1710826438734,2021834,0
1710826446087,1710826438774,2024948,0
1710826446087,1710826438814,2028882,0
1710826446087,1710826438854,2032288,0
1710826446087,1710826438894,2035493,0
1710826446087,1710826438934,2039230,0
1710826446087,1710826438974,2044679,0
1710826446087,1710826439014,2050715,0
1710826446087,1710826439054,2058251,0
1710826446087,1710826439094,2067084,0
1710826446087,1710826439134,2075808,0
1710826446087,1710826439174,2082627,0
1710826446087,1710826439214,2088053,0
1710826446087,1710826439254,2091587,0
1710826446087,1710826439294,2092919,0
1710826446087,1710826439334,2093507,0
1710826446087,1710826439374,2094223,0
1710826446087,1710826439414,2095541,0
1710826446087,1710826439454,2097215,0
1710826446087,1710826439494,2098818,0
1710826446087,1710826439534,2100168,0
1710826446087,1710826439574,2101132,0
1710826446087,1710826439614,2102293,0
1710826446087,1710826439654,2103705,0
1710826446087,1710826439694,2105385,0
1710826446087,1710826439734,2107248,0
1710826446087,1710826439774,2109193,0
1710826446087,1710826439814,2111098,0
1710826446087,1710826439854,2113282,0
1710826446087,1710826439894,2115594,0
1710826446087,1710826439934,2118116,0
1710826446087,1710826439974,2121029,0
1710826446087,1710826440014,2124935,0
1710826446087,1710826440054,2129262,0
1710826446087,1710826440094,2132362,0
1710826446087,1710826440134,2133288,0
1710826446087,1710826440174,2133393,0
1710826446087,1710826440214,2133903,0
1710826446087,1710826440254,2134775,0
1710826446087,1710826440294,2136120,0
1710826446087,1710826440334,2137706,0
1710826446087,1710826440374,2139201,0
1710826446087,1710826440414,2140017,0
1710826446087,1710826440454,2140857,0
1710826446087,1710826440494,2142320,0
1710826446087,1710826440534,2143869,0
1710826446087,1710826440574,2145751,0
1710826446087,1710826440614,2147471,0
1710826446087,1710826440654,2149018,0
1710826446087,1710826440694,2150576,0
1710826446087,1710826440734,2152300,0
1710826446087,1710826440774,2154034,0
1710826446087,1710826440814,2155652,0
1710826446087,1710826440854,2157211,0
1710826446087,1710826440894,2158307,0
1710826446087,1710826440934,2156914,0
1710826446087,1710826440974,2154417,0
1710826446087,1710826441014,2153627,0
1710826446087,1710826441054,2154124,0
1710826446087,1710826441094,2155078,0
1710826446087,1710826441134,2156470,0
1710826446087,1710826441174,2157671,0
1710826446087,1710826441214,2158327,0
1710826446087,1710826441254,2158554,0
1710826446087,1710826441294,2158730,0
1710826446087,1710826441334,2158792,0
1710826446087,1710826441374,2156510,0
1710826446087,1710826441414,2153250,0
1710826446087,1710826441454,2151255,0
1710826446087,1710826441494,2149149,0
1710826446087,1710826441534,2148721,0
1710826446087,1710826441574,2150020,0
1710826446087,1710826441614,2151341,0
1710826446087,1710826441654,2149987,0
1710826446087,1710826441694,2145885,0
1710826446087,1710826441734,2141333,0
1710826446087,1710826441774,2138905,0
1710826446087,1710826441814,2140458,0
1710826446087,1710826441854,2143641,0
1710826446087,1710826441894,2148838,0
1710826446087,1710826441934,2156385,0
1710826446087,1710826441974,2166334,0
1710826446087,1710826442014,2175020,0
1710826446087,1710826442054,2182128,0
1710826446087,1710826442094,2187585,0
1710826446087,1710826442134,2191209,0
1710826446087,1710826442174,2192379,0
1710826446087,1710826442214,2193163,0
1710826446087,1710826442254,2193301,0
1710826446087,1710826442294,2193087,0
1710826446087,1710826442334,2192924,0
1710826446087,1710826442374,2191544,0
1710826446087,1710826442414,2186380,0
1710826446087,1710826442454,2179795,0
1710826446087,1710826442494,2174928,0
1710826446087,1710826442534,2171678,0
1710826446087,1710826442574,2169566,0
1710826446087,1710826442614,2168181,0
1710826446087,1710826442654,2166967,0
1710826446087,1710826442694,2165065,0
1710826446087,1710826442734,2163904,0
1710826446087,1710826442774,2164047,0
1710826446087,1710826442814,2165251,0
1710826446087,1710826442854,2167180,0
1710826446087,1710826442894,2168205,0
1710826446087,1710826442934,2169444,0
1710826446087,1710826442974,2171212,0
1710826446087,1710826443014,2173890,0
1710826446087,1710826443054,2175798,0
1710826446087,1710826443094,2175584,0
1710826446087,1710826443134,2168380,0
1710826446087,1710826443174,2159270,0
1710826446087,1710826443214,2152604,0
1710826446087,1710826443254,2148758,0
1710826446087,1710826443294,2146461,0
1710826446087,1710826443334,2145186,0
1710826446087,1710826443374,2144947,0
1710826446087,1710826443414,2144780,0
1710826446087,1710826443454,2144824,0
1710826446087,1710826443494,2145051,0
1710826446087,1710826443534,2145734,0
1710826446087,1710826443574,2146843,0
1710826446087,1710826443614,2148515,0
1710826446087,1710826443654,2149617,0
1710826446087,1710826443694,2150556,0
1710826446087,1710826443734,2151242,0
1710826446087,1710826443774,2152602,0
1710826446087,1710826443814,2153363,0
1710826446087,1710826443854,2153057,0
1710826446087,1710826443894,2150556,0
1710826446087,1710826443934,2153626,0
1710826446087,1710826443974,2158190,0
1710826446087,1710826444014,2152970,0
1710826446087,1710826444054,2146435,0
1710826446087,1710826444094,2139290,0
1710826446087,1710826444134,2134810,0
1710826446087,1710826444174,2136854,0
1710826446087,1710826444214,2142687,0
1710826446087,1710826444254,2148351,0
1710826446087,1710826444294,2151207,0
1710826446087,1710826444334,2154607,0
1710826446087,1710826444374,2158352,0
1710826446087,1710826444414,2162862,0
1710826446087,1710826444454,2167516,0
1710826446087,1710826444494,2171779,0
1710826446087,1710826444534,2176111,0
1710826446087,1710826444574,2179745,0
1710826446087,1710826444614,2181831,0
1710826446087,1710826444654,2182426,0
1710826446087,1710826444694,2181305,0
1710826446087,1710826444734,2180589,0
1710826446087,1710826444774,2180138,0
1710826446087,1710826444814,2180258,0
1710826446087,1710826444854,2180827,0
1710826446087,1710826444894,2181014,0
1710826446087,1710826444934,2180752,0
1710826446087,1710826444974,2180101,0
1710826446087,1710826445014,2179801,0
1710826446087,1710826445054,2180019,0
1710826446087,1710826445094,2180654,0
1710826446087,1710826445134,2181441,0
1710826446087,1710826445174,2183376,0
1710826446087,1710826445214,2184449,0
1710826446087,1710826445254,2185504,0
1710826446087,1710826445294,2186153,0
1710826446087,1710826445334,2183044,0
1710826446087,1710826445374,2177727,0
1710826446087,1710826445414,2173959,0
1710826446087,1710826445454,2172396,0
1710826446087,1710826445494,2172133,0
1710826446087,1710826445534,2172527,0
1710826446087,1710826445574,2173213,0
1710826446087,1710826445614,2173475,0
1710826446087,1710826445654,2173376,0
1710826446087,1710826445694,2173253,0
1710826446087,1710826445734,2173736,0
1710826446087,1710826445774,2174530,0
1710826446087,1710826445814,2175629,0
1710826446087,1710826445854,2176561,0
1710826446087,1710826445894,2177806,0
1710826446087,1710826445934,2179015,0
1710826446087,1710826445974,2180175,0
1710826458106,1710826446011,2181264,0
1710826458106,1710826446051,2182504,0
1710826458106,1710826446091,2182866,0
1710826458106,1710826446132,2178176,0
1710826458106,1710826446171,2172522,0
1710826458106,1710826446211,2169067,0
1710826458106,1710826446251,2167689,0
1710826458106,1710826446291,2167475,0
1710826458106,1710826446332,2167947,0
1710826458106,1710826446371,2168451,0
1710826458106,1710826446411,2168191,0
1710826458106,1710826446452,2167599,0
1710826458106,1710826446492,2167251,0
1710826458106,1710826446533,2167401,0
1710826458106,1710826446572,2168019,0
1710826458106,1710826446612,2168908,0
1710826458106,1710826446652,2170125,0
1710826458106,1710826446692,2171358,0
1710826458106,1710826446733,2172516,0
1710826458106,1710826446772,2173953,0
1710826458106,1710826446813,2175080,0
1710826458106,1710826446852,2176098,0
1710826458106,1710826446893,2177279,0
1710826458106,1710826446934,2177915,0
1710826458106,1710826446973,2173497,0
1710826458106,1710826447013,2163999,0
1710826458106,1710826447053,2154994,0
1710826458106,1710826447093,2148922,0
1710826458106,1710826447134,2144994,0
1710826458106,1710826447173,2141907,0
1710826458106,1710826447213,2138575,0
1710826458106,1710826447253,2132790,0
1710826458106,1710826447293,2125873,0
1710826458106,1710826447334,2119863,0
1710826458106,1710826447373,2115783,0
1710826458106,1710826447414,2112667,0
1710826458106,1710826447454,2111381,0
1710826458106,1710826447494,2112230,0
1710826458106,1710826447535,2113453,0
1710826458106,1710826447574,2114885,0
1710826458106,1710826447614,2116357,0
1710826458106,1710826447654,2118397,0
1710826458106,1710826447694,2120841,0
1710826458106,1710826447735,2122572,0
1710826458106,1710826447775,2124740,0
1710826458106,1710826447815,2127555,0
1710826458106,1710826447855,2129729,0
1710826458106,1710826447895,2126827,0
1710826458106,1710826447936,2123453,0
1710826458106,1710826447975,2124053,0
1710826458106,1710826448015,2128038,0
1710826458106,1710826448055,2133313,0
1710826458106,1710826448095,2139292,0
1710826458106,1710826448136,2145066,0
1710826458106,1710826448175,2149057,0
1710826458106,1710826448215,2151898,0
1710826458106,1710826448256,2154335,0
1710826458106,1710826448295,2156937,0
1710826458106,1710826448337,2160058,0
1710826458106,1710826448376,2163574,0
1710826458106,1710826448416,2166693,0
1710826458106,1710826448456,2169895,0
1710826458106,1710826448496,2172906,0
1710826458106,1710826448537,2175920,0
1710826458106,1710826448576,2178964,0
1710826458106,1710826448616,2181522,0
1710826458106,1710826448656,2184164,0
1710826458106,1710826448696,2186433,0
1710826458106,1710826448738,2188757,0
1710826458106,1710826448777,2190380,0
1710826458106,1710826448817,2190706,0
1710826458106,1710826448857,2189856,0
1710826458106,1710826448897,2188806,0
1710826458106,1710826448938,2187037,0
1710826458106,1710826448977,2185658,0
1710826458106,1710826449017,2184700,0
1710826458106,1710826449057,2183695,0
1710826458106,1710826449097,2182150,0
1710826458106,1710826449138,2181183,0
1710826458106,1710826449178,2181453,0
1710826458106,1710826449218,2182832,0
1710826458106,1710826449258,2185145,0
1710826458106,1710826449298,2187227,0
1710826458106,1710826449339,2189233,0
1710826458106,1710826449378,2190988,0
1710826458106,1710826449418,2192634,0
1710826458106,1710826449458,2194030,0
1710826458106,1710826449498,2195203,0
1710826458106,1710826449539,2196367,0
1710826458106,1710826449579,2197040,0
1710826458106,1710826449619,2197347,0
1710826458106,1710826449659,2196524,0
1710826458106,1710826449699,2193812,0
1710826458106,1710826449740,2190278,0
1710826458106,1710826449779,2188089,0
1710826458106,1710826449819,2187120,0
1710826458106,1710826449859,2186292,0
1710826458106,1710826449899,2185836,0
1710826458106,1710826449940,2185753,0
1710826458106,1710826449979,2186232,0
1710826458106,1710826450020,2186707,0
1710826458106,1710826450060,2187195,0
1710826458106,1710826450100,2187674,0
1710826458106,1710826450141,2187845,0
1710826458106,1710826450180,2188490,0
1710826458106,1710826450220,2189173,0
1710826458106,1710826450260,2189694,0
1710826458106,1710826450300,2190158,0
1710826458106,1710826450341,2190638,0
1710826458106,1710826450380,2191158,0
1710826458106,1710826450421,2191931,0
1710826458106,1710826450461,2192999,0
1710826458106,1710826450501,2193984,0
1710826458106,1710826450542,2195063,0
1710826458106,1710826450581,2196027,0
1710826458106,1710826450621,2196740,0
1710826458106,1710826450661,2197301,0
1710826458106,1710826450701,2197808,0
1710826458106,1710826450742,2198276,0
1710826458106,1710826450782,2198812,0
1710826458106,1710826450822,2199142,0
1710826458106,1710826450862,2199574,0
1710826458106,1710826450902,2199827,0
1710826458106,1710826450943,2200123,0
1710826458106,1710826450982,2200236,0
1710826458106,1710826451022,2200471,0
1710826458106,1710826451062,2200707,0
1710826458106,1710826451102,2201009,0
1710826458106,1710826451143,2201487,0
1710826458106,1710826451182,2201859,0
1710826458106,1710826451223,2202283,0
1710826458106,1710826451263,2202617,0
1710826458106,1710826451303,2202121,0
1710826458106,1710826451343,2198675,0
1710826458106,1710826451383,2193158,0
1710826458106,1710826451423,2188373,0
1710826458106,1710826451463,2185450,0
1710826458106,1710826451503,2185324,0
1710826458106,1710826451544,2187373,0
1710826458106,1710826451583,2185310,0
1710826458106,1710826451624,2182033,0
1710826458106,1710826451664,2181512,0
1710826458106,1710826451704,2178993,0
1710826458106,1710826451745,2177412,0
1710826458106,1710826451784,2179493,0
1710826458106,1710826451824,2185479,0
1710826458106,1710826451864,2188613,0
1710826458106,1710826451904,2185878,0
1710826458106,1710826451945,2179335,0
1710826458106,1710826451985,2171752,0
1710826458106,1710826452025,2160251,0
1710826458106,1710826452065,2143166,0
1710826458106,1710826452105,2124352,0
1710826458106,1710826452146,2108989,0
1710826458106,1710826452185,2098104,0
1710826458106,1710826452225,2090418,0
1710826458106,1710826452265,2085673,0
