Timestamp,Cleaned_PPG
1710811991585,0.0
1710811991626,0.0
1710811991667,0.0
1710811991706,0.0
1710811991746,0.0
1710811991786,0.0
1710811991826,0.0
1710811991867,0.0
1710811991906,0.0
1710811991947,0.0
1710811991987,0.0
1710811992027,0.0
1710811992068,0.0
1710811992107,0.0
1710811992147,0.0
1710811992187,0.0
1710811992228,0.0
1710811992269,0.0
1710811992308,0.0
1710811992348,0.0
1710811992388,0.0
1710811992428,0.0
1710811992469,0.0
1710811992508,0.0
1710811992548,0.0
1710811992589,0.0
1710811992629,0.0
1710811992670,0.0
1710811992709,0.0
1710811992752,0.0
1710811992789,0.0
1710811992829,0.0
1710811992871,2146140.0
1710811992910,2012113.853461978
1710811992950,1886554.9645454674
1710811992990,1768534.4761023002
1710811993030,1658019.2841070015
1710811993071,1556231.2850328335
1710811993110,1462396.1379551212
1710811993150,1376938.1437087578
1710811993191,1299958.5008544992
1710811993231,1231207.9694027393
1710811993272,1164588.0560676032
1710811993311,1097132.26509805
1710811993351,1027415.627063266
1710811993391,961398.0823041378
1710811993431,901962.1826340845
1710811993472,842700.3456307445
1710811993511,787028.0583702135
1710811993552,738446.9611400128
1710811993592,688082.8498657104
1710811993632,640089.1855790059
1710811993673,592590.5649761371
1710811993712,540204.5816447856
1710811993752,486628.87100276677
1710811993792,431411.96611223
1710811993832,381121.22535937815
1710811993874,338938.27335702674
1710811993913,305374.1248651047
1710811993953,274801.770053932
1710811993993,248467.7499665334
1710811994033,223946.9471115081
1710811994074,205570.6876411806
1710811994113,189359.4256016647
1710811994154,175538.78814002266
1710811994194,161504.79723921884
1710811994234,146533.23812626326
1710811994275,130306.51812582929
1710811994314,114831.6659621424
1710811994354,95102.23610106716
1710811994395,71971.46426304942
1710811994435,47940.00822903239
1710811994475,23648.380042769713
1710811994515,-1218.0461866138503
1710811994555,-17251.40122535266
1710811994595,-23007.08891344117
1710811994635,-20409.446275917348
1710811994676,-19427.38347216742
1710811994716,-25767.893970670877
1710811994756,-26298.454965106677
1710811994796,-26676.3414160565
1710811994836,-32677.26188349491
1710811994877,-31008.333521589637
1710811994916,-31010.213230390567
1710811994959,-30108.794116105884
1710811994996,-26458.142297922634
1710811995036,-20370.941562476335
1710811995077,-11652.702175150393
1710811995116,-1105.2468000347726
1710811995156,5164.8505406908225
1710811995197,6927.26901320694
1710811995237,7616.000099369325
1710811995277,7629.944943410344
1710811995317,5978.792303438531
1710811995357,745.5731436824426
1710811995397,-4669.813034201972
1710811995437,-10042.971595953219
1710811995478,-13309.163008042844
1710811995517,-15315.272596742958
1710811995557,-16743.450319611
1710811995598,-19996.24544582027
1710811995638,-23959.584930923767
1710811995678,-29693.87355342647
1710811995718,-38336.516949105775
1710811995758,-46608.69164486043
1710811995798,-51490.13882471016
1710811995838,-53697.6916277383
1710811995879,-53519.88699879311
1710811995918,-51719.455108978786
1710811995958,-48877.65249635605
1710811995999,-46659.00494698412
1710811996039,-44924.31921903789
1710811996080,-42612.04186834954
1710811996119,-39215.37483353866
1710811996159,-36439.26124051097
1710811996199,-33808.755040836055
1710811996239,-31695.2392223489
1710811996280,-29540.8989016735
1710811996320,-31296.355849281652
1710811996359,-36801.65108877211
1710811996400,-42232.66562944441
1710811996440,-45053.6851799814
1710811996480,-45084.05698075378
1710811996520,-43806.96597205801
1710811996560,-42610.297912508715
1710811996600,-44310.50444654771
1710811996640,-47440.076998508535
1710811996681,-51163.60690390784
1710811996720,-52994.81047180807
1710811996760,-52910.15732892719
1710811996800,-51493.364080559
1710811996840,-48578.47244366701
1710811996881,-45618.116853463696
1710811996921,-43570.49978403561
1710811996961,-45104.86214267672
1710811997001,-48011.091076557525
1710811997041,-50079.186951449374
1710811997082,-51229.327569879126
1710811997121,-51092.39158262336
1710811997161,-49347.36565210065
1710811997201,-47224.580322106835
1710811997242,-47292.21584819164
1710811997282,-47032.99980963487
1710811997322,-46226.66691141273
1710811997362,-43440.0168519665
1710811997402,-41749.11561669549
1710811997442,-39296.909999267664
1710811997483,-36312.5615767492
1710811997523,-33921.78948668367
1710811997562,-31968.825937736547
1710811997603,-33249.70672613848
1710811997643,-36990.73789891647
1710811997683,-39583.74549583392
1710811997723,-39945.027042860165
1710811997763,-38964.38753589522
1710811997803,-37697.84271954233
1710811997843,-37139.271766549675
1710811997884,-35694.14193813503
1710811997923,-35092.71302710124
1710811997963,-33751.236120295944
1710811998004,-32896.27329805796
1710811998044,-31538.71978461137
1710811998084,-28823.802748675924
1710811998124,-25347.953678535996
1710811998164,-21542.426867013797
1710811998204,-17259.743562492542
1710811998244,-15320.463099403773
1710811998285,-18278.36310595111
1710811998324,-22202.52808142081
1710811998365,-24325.647581117693
1710811998404,-23649.706606775522
1710811998445,-22053.438884294825
1710811998486,-19646.134661463555
1710811998525,-17362.93887696066
1710811998565,-16715.833711388987
1710811998605,-16546.957131052157
1710811998645,-16597.85130436765
1710811998686,-14508.631317167543
1710811998725,-11504.298271405045
1710811998765,-8856.361026605591
1710811998806,-5263.631723179948
1710811998846,-2979.842337153852
1710811998887,-790.9957400041167
1710811998926,657.8575586718507
1710811998966,-1492.9144814438187
1710811999006,-5561.940543109085
1710811999046,-8033.457621558569
1710811999087,-8323.594812783413
1710811999127,-7302.691406026483
1710811999167,-5700.088438561186
1710811999207,-3619.2566308900714
1710811999247,-2424.8591546209063
1710811999288,-1339.9820163256954
1710811999327,16.273642082698643
1710811999367,1274.7961528953165
1710811999407,1946.7604963912163
1710811999448,3093.577521773521
1710811999488,4333.289220730774
1710811999528,4828.712127781473
1710811999568,6103.2268950915895
1710811999608,4993.634401441319
1710811999648,1688.9583002151921
1710811999689,-2011.2558718756773
1710811999728,-3258.133603222901
1710811999768,-3261.1453193700872
1710811999809,-1991.7661046800204
1710811999849,-379.7941807585303
1710811999890,686.3268161516171
1710811999929,772.1696841847152
1710811999969,1145.9864332401194
1710812000009,1276.8018246085849
1710812000049,2037.3938862155192
1710812000090,3137.6841460654978
1710812000130,4852.118070712779
1710812000170,6480.890812068712
1710812000210,7506.770989472512
1710812000250,8034.230512824841
1710812000291,5602.899670126382
1710812000330,1608.3062840092462
1710812000370,-2106.6389949393924
1710812000411,-3373.8155859061517
1710812000451,-2763.436342985835
1710812000491,-1339.9189599109814
1710812000531,310.89369465364143
1710812000571,942.129513295833
1710812000611,1224.7453027539887
1710812000651,1169.6263776021078
1710812000692,2388.352476933971
1710812000731,4183.068396342685
1710812000772,5248.119938577525
1710812000812,7184.646715728566
1710812000852,9008.679904426914
1710812000893,10004.638686214574
1710812000932,11376.013270171126
1710812000972,9660.375516939443
1710812001012,5901.6980634192005
1710812001052,2912.1037924559787
1710812001093,2429.912730677286
1710812001133,3609.417086558882
1710812001173,4966.652032909682
1710812001213,5845.6043061725795
1710812001253,6366.415918513667
1710812001294,6964.26649595215
1710812001333,7564.471686251927
1710812001373,8661.400953050703
1710812001413,9665.865471181925
1710812001454,11006.150266931392
1710812001494,13472.13343427889
1710812001534,15307.285647873767
1710812001574,16922.760185259627
1710812001614,17917.103270699503
1710812001654,17382.56467411574
1710812001695,14701.657842261717
1710812001734,12718.997085807845
1710812001774,11756.791877353098
1710812001815,12503.763139566407
1710812001855,14198.307270874735
1710812001896,15702.76457980345
1710812001935,16817.188333099475
1710812001975,17658.223118410213
1710812002015,18311.584036393557
1710812002055,19288.232416223735
1710812002096,20619.8046199386
1710812002136,21349.876694760052
1710812002176,22993.265511048725
1710812002216,22459.80687716836
1710812002256,22429.02273470722
1710812002297,22163.106022588676
1710812002336,20051.181249303743
1710812002376,16365.874452523887
1710812002416,13763.409735148307
1710812002456,12450.130099244416
1710812002497,11892.766005284619
1710812002537,9210.608498894377
1710812002577,3139.010558422189
1710812002617,-5801.704158311011
1710812002657,-13279.195563075133
1710812002698,-23146.112286357675
1710812002737,-26127.843078404432
1710812002777,-22279.895202170126
1710812002817,-15609.394727306673
1710812002857,-9568.876299792435
1710812002898,-597.5065313524101
1710812002938,9017.082684207242
1710812002978,15710.348426398356
1710812003018,27686.73633021186
1710812003058,39692.706665040925
1710812003099,51794.139417997794
1710812003138,61307.37709893938
1710812003178,68235.86249229475
1710812003218,73023.75080634328
1710812003258,77342.89599006018
1710812003299,78665.6505714315
1710812003338,79809.22861471004
1710812003378,79645.40579383867
1710812003419,81251.98968926398
1710812003459,79919.7706604593
1710812003499,81165.73808356887
1710812003539,81875.86966576613
1710812003579,80860.14678076841
1710812003615,78564.01540351007
1710812003655,76531.93820358743
1710812003696,74937.90081126615
1710812003735,73523.92597843963
1710812003776,74151.25961788837
1710812003816,76517.09376833239
1710812003856,81090.52926256461
1710812003897,90037.60224602977
1710812003936,96952.41286297562
1710812003976,107900.87566071516
1710812004016,110807.7183868005
1710812004056,107271.80909568653
1710812004097,98898.66117788339
1710812004137,90431.20601322502
1710812004177,81980.57585272077
1710812004217,73266.14678563131
1710812004257,71812.7084905738
1710812004298,66548.88325239951
1710812004337,62183.09974043118
1710812004377,55805.10911852261
1710812004417,50169.63704354968
1710812004457,45503.13338294346
1710812004498,41813.555520303315
1710812004537,37624.060920640826
1710812004577,36411.26338401111
1710812004618,35229.174323935295
1710812004658,34990.86047956068
1710812004699,32706.631851265905
1710812004738,34015.78748852387
1710812004778,34649.60877333558
1710812004818,35511.27233061334
1710812004858,37720.755282386905
1710812004899,40590.81938180723
1710812004938,44240.09366839053
1710812004979,48861.486060031224
1710812005019,53126.93039406324
1710812005059,56861.20595616801
1710812005100,59204.48863786762
1710812005139,61732.450340847485
1710812005179,58872.98076168285
1710812005219,61967.88403434679
1710812005259,57493.5414595902
1710812005300,56830.01964827371
1710812005340,57215.311570179416
1710812005380,52159.691845959984
1710812005420,45461.80132193933
1710812005460,29825.252926816233
1710812005501,16335.391201801365
1710812005540,5818.324881019769
1710812005580,-2969.912255232921
1710812005620,-8262.395156764891
1710812005660,-13394.02197536407
1710812005701,-17502.757571143098
1710812005741,-20341.72180201835
1710812005781,-22625.690309536643
1710812005821,-24132.524972002953
1710812005861,-24503.559587642783
1710812005902,-25010.36500734184
1710812005941,-25385.358023104258
1710812005981,-25405.063854073873
1710812006021,-25840.885751421098
1710812006061,-28109.6290522262
1710812006102,-29713.05542900483
1710812006142,-31176.270640884526
1710812006182,-31922.344600729644
1710812006222,-33351.17717577377
1710812006262,-37097.848573366646
1710812006303,-39758.1368601704
1710812006342,-45990.81292020134
1710812006382,-51722.89640742028
1710812006422,-57156.02011268283
1710812006462,-57662.69571330119
1710812006503,-60255.65477926284
1710812006543,-57001.60452304431
1710812006583,-55127.3514293991
1710812006623,-56969.77380055422
1710812006663,-55403.6426721639
1710812006704,-54151.911376396194
1710812006743,-42706.700847103726
1710812006783,-31436.55143984221
1710812006823,-22802.629677334335
1710812006864,-16835.14143118402
1710812006904,-14545.547614391427
1710812006944,-13808.351481396705
1710812006984,-14949.073548056884
1710812007024,-19172.446673532017
1710812007064,-23230.717458249535
1710812007105,-26360.520064983284
1710812007145,-27218.69632509211
1710812007184,-26209.921994188335
1710812007225,-25435.989744885825
1710812007265,-26095.554751326796
1710812007306,-27330.281682357425
1710812007345,-28498.375341452658
1710812007385,-29557.873272023862
1710812007425,-31014.841347779147
1710812007466,-32379.859749019146
1710812007506,-31824.284087544307
1710812007546,-30987.314992973115
1710812007586,-31157.724444042193
1710812007626,-30483.686590346042
1710812007666,-31722.785971035715
1710812007707,-34704.65054472303
1710812007746,-37607.66191175068
1710812007786,-40300.17260246049
1710812007827,-40981.93602790078
1710812007867,-42125.24391619675
1710812007908,-42411.38179713604
1710812007947,-41294.77065268322
1710812007987,-38941.819753617514
1710812008027,-37074.56547198701
1710812008067,-36247.88874839712
1710812008108,-35386.58475071774
1710812008148,-32479.179111693054
1710812008188,-29923.162409575423
1710812008228,-27936.09260145179
1710812008268,-26784.53098479379
1710812008309,-25374.974416198675
1710812008348,-25622.68933525239
1710812008388,-26227.95404583169
1710812008429,-26404.2472222317
1710812008469,-25997.288004638627
1710812008510,-25457.73997034179
1710812008549,-23851.02638331917
1710812008589,-22655.798223709455
1710812008629,-22289.390276572667
1710812008669,-23147.25982475211
1710812008710,-22339.892866036855
1710812008750,-22530.09166651871
1710812008790,-26087.422109805513
1710812008830,-37727.31881680875
1710812008870,-51873.56598001346
1710812008911,-73945.03030868527
1710812008950,-91703.3337979191
1710812008990,-110156.31006228388
1710812009031,-120411.75584580027
1710812009071,-125012.1066257204
1710812009112,-120316.20335002826
1710812009151,-99504.04753077659
1710812009191,-78962.91582277673
1710812009231,-51025.42143858224
1710812009271,-11373.051063782535
1710812009312,17655.664263987448
1710812009352,55081.91897772043
1710812009392,83121.60646126629
1710812009432,102870.13751527388
1710812009472,117874.96577440901
1710812009513,136669.14353551855
1710812009552,151573.19978868123
1710812009592,168977.71409544628
1710812009632,161224.7297732795
1710812009672,166393.4638889837
1710812009713,181277.42117072642
1710812009752,188707.35176473763
1710812009793,177525.75083873235
1710812009833,171113.32006788556
1710812009873,165112.31939713797
1710812009914,158499.69026231836
1710812009953,152705.233902595
1710812009993,138630.7267756299
1710812010033,118080.39991026744
1710812010073,105808.18265794334
1710812010114,103497.41380506614
1710812010153,108763.6889349909
1710812010193,122117.29341875855
1710812010234,120203.0146802431
1710812010274,122758.2457837984
1710812010314,111868.84916581307
1710812010354,99969.51474344404
1710812010394,85783.21518575912
1710812010434,63104.436300982255
1710812010474,48556.05308416253
1710812010515,32055.40384981199
1710812010554,4637.45626812079
1710812010594,-9017.579001865117
1710812010635,-31271.220024983864
1710812010674,-42557.61814911547
1710812010715,-30293.83682956826
1710812010755,-22202.506468688603
1710812010795,-12793.035022228025
1710812010835,-10463.946254690178
1710812010875,1146.8573027658276
1710812010916,808.8401251006871
1710812010955,-11019.296300962102
1710812010995,-28246.755985189695
1710812011035,-35450.80723125022
1710812011075,-29497.036793217994
1710812011116,-24946.43633946986
1710812011156,-28980.05659764167
1710812011196,-16811.19750060793
1710812011236,-18388.343633353943
1710812011276,-12688.3886647264
1710812011317,-23008.734969631303
1710812011356,-42846.441438257694
1710812011396,-36167.63769360911
1710812011436,-16606.21081080241
1710812011477,7327.249007369392
1710812011517,33879.713653906714
1710812011557,35949.0982355224
1710812011597,36458.63720043143
1710812011637,49702.90319604101
1710812011677,44099.89142708434
1710812011718,42184.18737490126
1710812011757,49808.46081261244
1710812011797,56690.2585271711
1710812011837,61449.61958391615
1710812011878,37269.90578495432
1710812011918,38856.50944787776
1710812011958,16044.909588701325
1710812011998,-12168.103992142715
1710812012038,-21700.344171680277
1710812012078,-25786.12720767781
1710812012119,-29964.741856775712
1710812012158,-50657.38564243703
1710812012198,-42315.12441835995
1710812012238,-35093.70631562662
1710812012279,-28890.580258047674
1710812012320,-36921.99216914317
1710812012359,-24947.532351343893
1710812012399,-30689.304429050535
1710812012439,-20849.209615274565
1710812012479,-29917.092128778808
1710812012520,-4975.508654922014
1710812012560,17234.444637840614
1710812012599,50961.855424714275
1710812012640,90655.96001706412
1710812012680,90890.60450970009
1710812012720,60768.111121436814
1710812012760,37324.93205172126
1710812012800,20971.460677579744
1710812012840,36786.74385811761
1710812012880,60149.773750706576
1710812012921,68966.69145114347
1710812012960,94932.48408969608
1710812013000,95771.54830329865
1710812013041,88427.52859203774
1710812013081,76907.02558056731
1710812013122,65826.83696131804
1710812013161,83949.74665974174
1710812013201,68332.75057303719
1710812013241,66209.45075706625
1710812013281,66493.85120866215
1710812013322,61096.465492568444
1710812013361,39307.63489472144
1710812013402,41733.83680549869
1710812013442,62720.199079259066
1710812013482,59539.84380473383
1710812013523,58504.74076330103
1710812013562,52210.47944170609
1710812013602,65775.1756703551
1710812013642,60946.73630892346
1710812013682,70648.2238260014
1710812013723,75092.22506347648
1710812013763,82854.10297839437
1710812013803,69980.8210226195
1710812013843,56006.99207895668
1710812013883,43575.18706206372
1710812013924,39623.3826493097
1710812013963,32965.684269187506
1710812014003,39541.9160139428
1710812014044,28618.27921897522
1710812014084,28404.19399539428
1710812014125,15224.41073465813
1710812014164,6456.9610035032965
1710812014204,-3865.3292381893843
1710812014244,-16996.01463677548
1710812014284,-12033.902114613913
1710812014325,-10335.781045783311
1710812014365,-8814.196046526078
1710812014405,-676.8575251605362
1710812014445,2863.7947429772466
1710812014485,9169.867531327065
1710812014526,21245.459409442265
1710812014565,29432.024674834684
1710812014605,31708.224124817178
1710812014645,42102.82418415439
1710812014686,36409.820867171045
1710812014727,31525.513557672966
1710812014766,20190.87821945129
1710812014806,11082.022485554218
1710812014846,9545.83737759851
1710812014886,1964.9591287914664
1710812014927,2138.3576301643625
1710812014967,7325.513704038225
1710812015007,13763.93221205892
1710812015047,16873.328528211918
1710812015087,19963.36997648375
1710812015128,16304.880193326855
1710812015167,12414.761958462186
1710812015207,12098.600935339928
1710812015247,15046.897720035166
1710812015287,14919.708873257972
1710812015328,13757.30284977518
1710812015368,15295.755622703116
1710812015408,17062.202279646415
1710812015448,17501.630261747167
1710812015488,16420.0649321503
1710812015529,10534.579470502213
1710812015568,10832.94660619786
1710812015608,6211.860892630648
1710812015653,10243.705125641078
1710812015693,11391.651231246535
1710812015733,8531.972511682194
1710812015773,7447.825917270035
1710812015813,5394.374187006615
1710812015853,6874.251932406332
1710812015893,11792.108757621143
1710812015934,-1414.5203969758004
1710812015974,-5989.040364537388
1710812016014,-8820.570123191923
1710812016054,1097.4335472676903
1710812016094,2815.6465174797922
1710812016135,3495.8140168087557
1710812016175,2709.1136243920773
1710812016215,9638.401650894433
1710812016255,-2511.7188451793045
1710812016295,-337.58893560338765
1710812016336,5902.243570405059
1710812016375,2524.835758131463
1710812016416,4063.5581385307014
1710812016456,12128.607367870864
1710812016496,4712.2950307843275
1710812016537,12486.597598487511
1710812016576,13847.325706491247
1710812016616,418.2891133488156
1710812016656,-5677.164827958681
1710812016696,-9316.941879755352
1710812016737,-17756.55537361186
1710812016776,-28537.63925780682
1710812016816,-30757.361158966087
1710812016856,-20672.264069381636
1710812016897,-13269.998786523007
1710812016937,-11089.20062088687
1710812016977,-13720.422705579549
1710812017017,-8602.919718175195
1710812017057,-6281.76722134836
1710812017097,-1362.1543572838418
1710812017138,-3380.254950866103
1710812017177,-5660.455792366527
1710812017217,8656.793741055764
1710812017258,12831.022758932784
1710812017298,16482.035778185353
1710812017338,8348.461463942192
1710812017378,8121.597338593565
1710812017418,10560.930496846326
1710812017458,7736.015144833364
1710812017498,378.3217242239043
1710812017539,17994.803679160308
1710812017578,13765.390608883929
1710812017619,9949.21599082835
1710812017659,14602.88647104241
1710812017699,17462.663378971163
1710812017740,17835.170643277466
1710812017779,31156.94431912899
1710812017819,28023.148640043568
1710812017859,21765.47544995835
1710812017899,22797.521548193414
1710812017940,19058.609674455132
1710812017979,17653.862776520662
1710812018019,18235.457967429422
1710812018059,18959.424155751243
1710812018100,24379.973169710487
1710812018140,21138.583874289878
1710812018180,16383.4987003454
1710812018220,10746.402698930819
1710812018260,6764.429777022451
1710812018300,7188.487486045808
1710812018341,14517.487820577808
1710812018380,15706.003480235115
1710812018420,12857.04429680435
1710812018461,13500.883341812994
1710812018501,2663.5091712335125
1710812018541,-3520.1758442400023
1710812018581,-11686.354640603997
1710812018621,-13438.96547873877
1710812018661,-10115.202485287562
1710812018701,-8004.694751370698
1710812018742,-5994.830055487808
1710812018781,-4078.9452950954437
1710812018821,-846.072036488913
1710812018861,7173.701017623767
1710812018902,18937.886688398663
1710812018943,23224.34808984259
1710812018982,30547.730046664365
1710812019022,40443.4840111183
1710812019062,48185.265807447024
1710812019102,43929.633690741844
1710812019143,55162.108519231435
1710812019182,62949.86595603544
1710812019222,72983.79145345371
1710812019263,91192.70008898899
1710812019303,115220.23976643756
1710812019343,122156.9707209589
1710812019383,125217.31488460489
1710812019423,127113.99514779402
1710812019463,130642.40730785113
1710812019503,128443.14771664981
1710812019544,127221.79835342988
1710812019583,122160.6553064026
1710812019623,110959.59279670566
1710812019664,97808.14796192618
1710812019704,93689.91404016875
1710812019745,79052.53357911669
1710812019784,75018.66300157923
1710812019824,75873.27751332428
1710812019864,67431.79059465788
1710812019904,59282.28085046029
1710812019945,52074.0218912391
1710812019984,41492.15644867066
1710812020025,37563.27683642786
1710812020065,31082.166679995134
1710812020105,28103.95854408201
1710812020146,21288.09017918445
1710812020185,21628.439414495602
1710812020225,18326.844031720422
1710812020265,23211.11935827043
1710812020305,25903.953645721078
1710812020346,27600.72518895194
1710812020386,-24789.50871105073
1710812020426,-38469.53933757916
1710812020466,-50277.25668550609
1710812020506,-67179.49088534992
1710812020547,-90994.4333799826
1710812020586,-109703.5796386688
1710812020626,-115921.44010700518
1710812020666,-120133.59397900384
1710812020707,-123232.27624427946
1710812020747,-121995.69458525488
1710812020787,-117004.47934497613
1710812020827,-112831.83689930942
1710812020867,-112541.86541844346
1710812020907,-108587.12746439129
1710812020948,-101191.88547269488
1710812020987,-94196.63965092786
1710812021027,-86020.60578450095
1710812021067,-79980.78623814322
1710812021108,-79889.19262325484
1710812021148,-72040.42444929527
1710812021188,-69888.12245185394
1710812021228,-67315.23585182102
1710812021268,-62579.094444090966
1710812021308,-62676.40333877038
1710812021349,-63452.67059167754
1710812021388,-63936.30381282838
1710812021429,-65306.77385497093
1710812021469,-75995.14977444801
1710812021509,-75836.96857112693
1710812021550,-80889.50553958351
1710812021589,-87565.50029506627
1710812021629,-93619.2602851158
1710812021669,-32349.23042685166
1710812021710,-27360.901206814917
1710812021750,-26737.383716981392
1710812021790,-29674.862776817754
1710812021830,-28688.942118061474
1710812021870,-25031.154818143696
1710812021910,-23583.121729672188
1710812021951,-27884.27323526237
1710812021990,-36604.12736156164
1710812022030,-43825.79415444657
1710812022071,-53955.55770350504
1710812022111,-62996.740133349784
1710812022152,-67313.04196131788
1710812022191,-68818.05004547909
1710812022231,-71695.72877841
1710812022271,-76126.366785096
1710812022312,-75758.18245820771
1710812022352,-74660.34371726448
1710812022392,-72092.55380231654
1710812022432,-67326.20267995493
1710812022472,-64034.39953706507
1710812022512,-63919.73870491865
1710812022553,-61686.226565250894
1710812022593,-59336.633656259626
1710812022633,-56347.576488790335
1710812022673,-56606.067261486314
1710812022713,-59761.70516252518
1710812022754,-63800.004853796214
1710812022794,-66683.34350027842
1710812022834,-67592.03104849788
1710812022874,-67155.70727259689
1710812022914,-66697.27088247961
1710812022955,-66668.80071481201
1710812022994,-66472.30930282455
1710812023034,-65449.782760277856
1710812023074,-64877.17601796193
1710812023115,-62965.89803849929
1710812023156,-61107.34233616525
1710812023195,-58810.774191043805
1710812023235,-55819.012138798134
1710812023275,-54664.857246245956
1710812023315,-54489.2793670916
1710812023356,-56787.52214866923
1710812023395,-59326.875954180025
1710812023435,-60159.2654878397
1710812023476,-60312.05696245353
1710812023516,-58911.18638949469
1710812023556,-57001.28931561345
1710812023596,-55931.179027178325
1710812023636,-55424.920455276035
1710812023676,-53583.313445188105
1710812023716,-51468.364641263615
1710812023757,-49506.67192880483
1710812023796,-46224.355036753695
1710812023836,-44352.240320144454
1710812023877,-42072.95875125914
1710812023916,-39667.040722967125
1710812023957,-37377.21115560131
1710812023997,-39083.05433021253
1710812024037,-41588.66791436309
1710812024077,-43868.80327765038
1710812024117,-44715.10385680059
1710812024158,-44018.115977807436
1710812024197,-41863.537653885316
1710812024237,-39536.97430495918
1710812024277,-38119.88151987153
1710812024317,-37072.493305947166
1710812024358,-36195.50077755004
1710812024398,-35099.78528253501
1710812024438,-32492.500784876524
1710812024478,-30887.878499962622
1710812024518,-28805.817797727417
1710812024559,-26081.084425754845
1710812024598,-24334.812300222227
1710812024638,-24964.74865700002
1710812024678,-27754.705108794384
1710812024718,-30980.660580320982
1710812024759,-32240.858300026273
1710812024799,-32217.108105655527
1710812024839,-30881.587866502814
1710812024879,-28647.855377730913
1710812024919,-25978.21489809174
1710812024960,-24813.16744529782
1710812024999,-23364.241967138136
1710812025039,-21404.071931200102
1710812025079,-21104.14361223881
1710812025119,-19205.277211177396
1710812025160,-17864.288910709787
1710812025200,-16264.459828901803
1710812025240,-14213.416316725314
1710812025280,-11810.067281999625
1710812025320,-10587.666024225764
1710812025361,-11910.569329292513
1710812025400,-14789.023248063168
1710812025440,-16816.301221401663
1710812025480,-18082.14492515335
1710812025520,-18273.248505535536
1710812025561,-17061.939401334617
1710812025601,-16144.115195889724
1710812025641,-14907.747530926252
1710812025681,-14583.763756709173
1710812025721,-14352.108988803346
1710812025762,-12714.953669358278
1710812025801,-11788.54272908438
1710812025841,-10256.277117566206
1710812025881,-8606.04966206383
1710812025922,-6597.573076766683
1710812025962,-4757.818850276293
1710812026002,-2621.3448327074293
1710812026042,-1143.7170602225233
1710812026082,-439.8904137520585
1710812026122,-2484.2018400421366
1710812026163,-5468.557432107395
1710812026202,-7933.552357676439
1710812026242,-9696.095688035013
1710812026283,-9993.189311067108
1710812026323,-9632.258970259223
1710812026363,-8305.179501025472
1710812026403,-7334.059674649965
1710812026443,-6971.3328390815295
1710812026483,-5657.718332237098
1710812026523,-4848.256523736287
1710812026564,-4406.556974787265
1710812026603,-3078.548316684086
1710812026644,-1612.8154519209638
1710812026684,12.40698708826676
1710812026724,1022.649914986454
1710812026765,2408.229959559394
1710812026804,3923.7472734721377
1710812026844,5405.558003445854
1710812026884,7037.524457435124
1710812026924,5901.189452894963
1710812026965,3342.867896950338
1710812027005,1327.3249409862328
1710812027044,398.46686736820266
1710812027085,181.2070212212857
1710812027125,352.5147219095379
1710812027166,1023.5385764855891
1710812027205,1346.712689273525
1710812027245,2137.8917905951384
1710812027285,2395.2819287506863
1710812027325,3263.5275196339935
1710812027366,3900.5455751749687
1710812027406,4798.77392033115
1710812027446,6056.695849742973
1710812027486,6952.057524853386
1710812027526,8449.802810424473
1710812027567,9773.883190636057
1710812027606,10413.283248504624
1710812027646,12016.674555953592
1710812027686,13212.562925951555
1710812027726,13992.654985305853
1710812027766,12124.910119486973
1710812027806,10702.316253834171
1710812027846,9727.815916748485
1710812027886,8680.948335571215
1710812027926,8618.799801878398
1710812027967,9004.40223654965
1710812028006,9766.792625566944
1710812028047,10274.281513633672
1710812028087,10644.427877554903
1710812028127,10319.436158578377
1710812028168,10357.132759339642
1710812028207,11022.565076317871
1710812028247,11964.285669374513
1710812028287,12499.720262729097
1710812028328,13133.26067053061
1710812028368,13259.873465849552
1710812028408,14080.135088572279
1710812028448,15124.73558650259
1710812028488,15758.58837264427
1710812028528,15991.456880491227
1710812028569,16987.472522582626
1710812028608,15922.208063629922
1710812028648,14365.668146350654
1710812028689,13266.502428246662
1710812028729,12721.651018331992
1710812028769,13209.831983041251
1710812028809,13365.076812306419
1710812028849,13938.364825930912
1710812028889,14449.200991511345
1710812028929,14323.991093914025
1710812028970,14807.841172420885
1710812029010,15065.299250210635
1710812029050,15877.932084223256
1710812029090,16007.06334875431
1710812029130,16409.290876145475
1710812029171,17093.38940295996
1710812029210,17564.23142704321
1710812029251,17893.748542854795
1710812029291,18640.64056979399
1710812029331,19269.128576941323
1710812029372,19738.991069583222
1710812029411,19844.16154911928
1710812029451,18749.44865798019
1710812029492,17855.437444730196
1710812029532,17766.475277820602
1710812029573,17574.892448103055
1710812029612,17696.263966341736
1710812029652,18393.69005352864
1710812029692,18309.291269390844
1710812029732,17825.700810901355
1710812029773,17933.440879249945
1710812029813,17893.292350270553
1710812029853,17564.494878630154
1710812029893,17867.749745520297
1710812029933,18515.2136776438
1710812029974,18710.935544890584
1710812030013,18792.329844428226
1710812030053,19208.29208482383
1710812030094,20138.863386586774
1710812030134,19862.458295859862
1710812030175,20219.19978325977
1710812030214,19512.020247973036
1710812030254,18310.6881229328
1710812030294,17536.842658986337
1710812030334,16390.296420965577
1710812030375,16001.200970983366
1710812030414,15982.160339045338
1710812030454,16491.808549855603
1710812030495,16995.956827784423
1710812030535,16760.61168345879
1710812030575,16685.717887813225
1710812030615,16875.81250860449
1710812030655,16778.992282418534
1710812030695,16602.004481679294
1710812030735,16914.499473034404
1710812030776,16978.109093596693
1710812030815,16808.670578186167
1710812030855,17377.64813650772
1710812030895,17500.779883692972
1710812030935,17765.347358377185
1710812030976,18185.454046022147
1710812031016,18578.31594505254
1710812031056,17394.001422758913
1710812031096,16915.815331164747
1710812031136,16158.693023412954
1710812031177,15247.006483229343
1710812031216,14889.033910025842
1710812031256,15286.585501393303
1710812031296,15962.298087586183
1710812031336,15858.8237836943
1710812031377,15269.891681668116
1710812031416,14662.400662983535
1710812031457,12812.37975603994
1710812031497,12580.222858198918
1710812031537,11239.440216265153
1710812031578,12012.468103046529
1710812031617,11440.569554655813
1710812031657,11046.486260646489
1710812031697,9075.789952484658
1710812031737,9703.522550706286
1710812031778,21677.819757387042
1710812031818,28996.336933004437
1710812031857,29246.794639989967
1710812031898,33985.128957033856
1710812031938,36962.258167551365
1710812031978,42567.33943878184
1710812032018,44895.613070507534
1710812032058,36567.60908354912
1710812032098,32444.32365941
1710812032138,28944.47442656057
1710812032179,22230.20348439552
1710812032218,12479.764074737672
1710812032258,8439.239535994828
1710812032299,16100.14554482
1710812032339,28863.311564666685
1710812032379,33879.629324215
1710812032419,54244.92939029867
1710812032459,53146.48150074994
1710812032499,47636.11629502522
1710812032539,58811.075134551385
1710812032580,54176.335756083485
1710812032619,55033.97332200082
1710812032660,58740.50799408229
1710812032700,61885.08894596482
1710812032740,60298.31406495208
1710812032781,48667.85571198538
1710812032820,45039.22597338166
1710812032860,35615.96428786148
1710812032900,37725.55512127234
1710812032940,35235.81638042955
1710812032981,31833.346053464105
1710812033020,28240.340745972935
1710812033060,14179.384294233285
1710812033101,-2186.9326301361434
1710812033141,-5090.582868018188
1710812033181,-10257.365727504715
1710812033221,-11308.274148414843
1710812033261,-14686.03366813995
1710812033301,-14602.772216116078
1710812033341,-313.4452383092139
1710812033382,9162.63197768433
1710812033421,15046.396767412312
1710812033462,28109.910505912732
1710812033502,42495.80008758861
1710812033542,64398.31447912101
1710812033583,73143.20773002622
1710812033622,72960.31675866619
1710812033662,67493.9909507602
1710812033702,59801.73320596083
1710812033742,82451.69511016179
1710812033783,53037.78654051735
1710812033822,20058.069578669034
1710812033863,16331.4548032952
1710812033903,31859.534355355427
1710812033943,44034.493202151265
1710812033984,67695.68420577049
1710812034023,61982.94739939226
1710812034063,66443.02229059092
1710812034103,48042.36089303042
1710812034143,62536.20588936168
1710812034184,29577.05907806428
1710812034224,3453.540095651988
1710812034264,-50899.86924314685
1710812034304,-51916.061635446735
1710812034344,-51587.88720612321
1710812034385,-48720.35093664192
1710812034424,-57996.67157893814
1710812034464,-51686.34545382764
1710812034504,-44434.19305205392
1710812034544,-43278.24937888887
1710812034585,-45335.34976446396
1710812034625,-47683.86589677632
1710812034665,-41882.36429634411
1710812034705,-35613.67012808239
1710812034745,-27523.661495352164
1710812034786,-19726.734289088286
1710812034825,-21646.579022082966
1710812034865,-15027.379302054178
1710812034905,-10557.247379808454
1710812034945,-3624.501404446317
1710812034986,-13917.115719785215
1710812035026,-30586.084080453496
1710812035066,10503.23505068617
1710812035106,27232.060645131627
1710812035146,27578.837969175074
1710812035187,13198.578407517169
1710812035226,2262.194901363924
1710812035266,-26068.375713963993
1710812035306,-19916.851885198615
1710812035346,-27192.19005719386
1710812035387,-18786.285540551413
1710812035427,-39111.20983462967
1710812035467,-22308.15098549286
1710812035507,-1265.970003634924
1710812035547,47823.87967407447
1710812035588,42895.16915568197
1710812035627,31188.485258135246
1710812035667,28965.93848654395
1710812035708,39106.13910697214
1710812035748,34177.215849149274
1710812035789,22993.886901045218
1710812035828,23808.114508334547
1710812035868,26744.48510336131
1710812035908,25984.05783693213
1710812035948,20427.51741376007
1710812035989,17575.592264479492
1710812036029,13273.684814888984
1710812036069,13130.91816035565
1710812036109,12973.6421659037
1710812036149,10131.896583518479
1710812036190,10103.679891138803
1710812036229,14782.569664523471
1710812036269,18559.24084222736
1710812036309,19032.88168906793
1710812036350,17632.532806771807
1710812036391,16562.39191077277
1710812036430,18918.98198511079
1710812036470,19887.541213006014
1710812036510,20095.605460030958
1710812036550,20837.136365072103
1710812036591,18992.618149100104
1710812036631,16970.26988981664
1710812036671,17786.488224495435
1710812036711,16939.75287214713
1710812036751,15407.218343893997
1710812036792,15478.356333869044
1710812036831,13369.746584442211
1710812036871,14072.451664184919
1710812036911,14803.189932705835
1710812036952,14529.822476886678
1710812036993,11912.18120891531
1710812037032,6002.401555676013
1710812037072,-499.91899066697806
1710812037112,-2912.871746824123
1710812037152,-5378.316858503735
1710812037193,-5574.522148201242
1710812037233,-4217.987698433921
1710812037273,-4321.449836749118
1710812037313,-3353.083558382932
1710812037353,-3470.2645490774885
1710812037394,-4056.5258929082192
1710812037433,-3009.4646452642046
1710812037474,-2795.5885134814307
1710812037514,-2999.671736781951
1710812037554,-1962.6515102754347
1710812037595,-1434.4829164547846
1710812037634,-2390.6954002142884
1710812037674,-6315.153774172533
1710812037714,-10511.69751564879
1710812037754,-13262.851636788808
1710812037795,-14907.087794320192
1710812037834,-15163.186101584462
1710812037874,-14519.81105795037
1710812037914,-13099.54552903492
1710812037955,-13556.047642220743
1710812037995,-13874.153689387487
1710812038035,-14236.078406235203
1710812038075,-13832.287407781929
1710812038115,-12128.31960842479
1710812038155,-10996.867328066146
1710812038196,-9827.924407132203
1710812038235,-8636.995368461125
1710812038275,-7202.193059915211
1710812038316,-7275.892628380796
1710812038356,-9433.357652974548
1710812038396,-12355.356885988265
1710812038436,-14591.899293734692
1710812038476,-15045.091114039067
1710812038516,-14922.307952422183
1710812038556,-14309.206333375536
1710812038597,-12485.195277152117
1710812038636,-11157.051066564862
1710812038677,-10351.281636516564
1710812038717,-10455.428767807316
1710812038757,-9314.852863111068
1710812038798,-7856.124293232802
1710812038837,-5743.796204613056
1710812038877,-4699.294073792407
1710812038917,-2305.884585996624
1710812038957,-265.9718643045053
1710812038998,-165.47163883107714
1710812039037,-3724.4855458126403
1710812039077,-7866.177652331069
1710812039118,-10858.062688916223
1710812039158,-12139.824230284896
1710812039198,-12554.176035468467
1710812039238,-12195.66027960158
1710812039278,-11739.831338496879
1710812039318,-11251.518680483103
1710812039358,-10805.833456787048
1710812039399,-11074.83028074447
1710812039438,-10483.87012024736
1710812039478,-9285.755030112807
1710812039519,-7597.50843043183
1710812039559,-6689.534691357054
1710812039600,-5715.896570626181
1710812039639,-4352.81095844903
1710812039679,-4182.957638433669
1710812039719,-6604.3096334191505
1710812039760,-10266.881856061518
1710812039800,-12194.332718571182
1710812039840,-11815.06622496061
1710812039880,-11504.491515035741
1710812039920,-10835.946805689251
1710812039960,-9926.576834160136
1710812040001,-9237.607389528537
1710812040040,-8463.644979568664
1710812040080,-8085.666785491863
1710812040121,-7834.362603512593
1710812040161,-6602.565276182257
1710812040201,-6782.693059873767
1710812040241,-4884.030440600589
1710812040281,-4490.854744184762
1710812040321,-3294.7632396984845
1710812040361,-1648.9358300650492
1710812040402,-2709.4698558687232
1710812040441,-6045.892008061986
1710812040482,-9425.91477387119
1710812040522,-11283.38782293466
1710812040562,-12017.791258962825
1710812040603,-11632.525645957096
1710812040642,-10728.302394147497
1710812040682,-8896.207055102568
1710812040722,-8597.895347263897
1710812040762,-8593.055473071989
1710812040803,-8115.935718767345
1710812040843,-7550.546070768964
1710812040883,-6812.053902612068
1710812040923,-5579.744794331491
1710812040963,-4884.2052313042805
1710812041004,-3826.673594589578
1710812041043,-1901.2590853760485
1710812041083,-2080.7760707419366
1710812041123,-4538.722138546174
1710812041163,-7086.301254175603
1710812041204,-8665.761752663646
1710812041244,-8524.427176177036
1710812041284,-7924.817918173503
1710812041324,-7243.567194254138
1710812041364,-5653.149870848749
1710812041405,-5179.231470080791
1710812041444,-4631.397423211951
1710812041484,-4022.998215896776
1710812041524,-4314.202451359713
1710812041565,-3719.257570794085
1710812041605,-2253.3106869030744
1710812041645,-2056.9611851221416
1710812041685,-1042.5644708636682
1710812041725,1027.5671019898728
1710812041765,1775.4441666624043
1710812041806,-199.65691990032792
1710812041845,-3257.801026994828
1710812041886,-5454.407919113524
1710812041926,-6560.0636936347
1710812041966,-7392.267999825999
1710812042007,-6707.971912188921
1710812042046,-6327.66641484783
1710812042086,-5744.192083477741
1710812042126,-5126.625957636861
1710812042167,-4273.957719228696
1710812042207,-3608.0327530868817
1710812042247,-2152.2335675056092
1710812042287,-842.0803194423206
1710812042327,378.3257852590177
1710812042367,1972.972524346551
1710812042408,3157.051725594327
1710812042447,3828.364527920261
1710812042487,1659.7493489044718
1710812042528,-2418.5429416066036
1710812042568,-5213.236269223737
1710812042609,-6447.405121624703
1710812042648,-6797.3640168057755
1710812042688,-6026.458218995947
1710812042728,-4940.824805719312
1710812042769,-3657.051754219923
1710812042809,-3983.316042184597
1710812042849,-3482.5605524862185
1710812042889,-3332.439783550799
1710812042929,-2216.398575459607
1710812042969,-1025.9568399393465
1710812043010,-649.3699987619184
1710812043049,661.151419613976
1710812043090,1463.4634074713103
1710812043130,3103.960026938468
1710812043170,3707.989395516459
1710812043211,479.6955292406492
1710812043250,-2679.4387216563337
1710812043290,-4396.68694148073
1710812043330,-5441.547902658116
1710812043371,-6647.316362930462
1710812043411,-8452.96359598497
1710812043451,-8998.513015839271
1710812043491,-13430.727491755038
1710812043531,-18805.47896034387
1710812043571,-26217.664710752433
1710812043612,-27843.840781970648
1710812043651,-35304.432523162104
1710812043692,-58597.48557617678
1710812043732,-69636.41544375382
1710812043772,-84657.54637032747
1710812043813,-89723.63534283172
1710812043852,-98606.38559890795
1710812043892,-110395.38361499412
1710812043932,-115532.68276396627
1710812043973,-103228.46730327513
1710812044013,-83555.30483361147
1710812044053,-79363.41947043408
1710812044093,-77371.94776293589
1710812044133,-68519.56982719572
1710812044173,-44577.89471684303
1710812044214,-22328.83238216862
1710812044253,-1571.512565949466
1710812044293,12297.571545959916
1710812044334,25341.7712344483
1710812044374,35665.02713533724
1710812044414,51115.6940038926
1710812044454,60513.361278724624
1710812044494,73297.43444025796
1710812044534,84548.22996229632
1710812044574,93646.02263041423
1710812044615,98140.37965933
1710812044654,104596.47599306982
1710812044694,108051.00638540043
1710812044735,108382.31884733983
1710812044775,111159.75974909845
1710812044816,115028.20103806257
1710812044855,120568.00150601333
1710812044895,120055.49623139529
1710812044935,123565.16399005521
1710812044975,141575.18911471101
1710812045016,148252.89486616105
1710812045055,165398.00417810772
1710812045095,173915.90151823778
1710812045136,187947.59394323127
1710812045176,206073.41843789467
1710812045216,226872.9544265794
1710812045256,229021.24881504336
1710812045296,223749.75920108613
1710812045336,234489.14514328586
1710812045376,242702.1490797603
1710812045417,236025.15918604238
1710812045456,217471.58454436017
1710812045496,181545.64842196554
1710812045537,130457.9279096243
1710812045576,68211.51494524
1710812045617,11467.349804063793
1710812045657,-31762.47793738963
1710812045697,-58048.49793888023
1710812045737,-75342.97925192583
1710812045777,-80883.49932955019
1710812045818,-79714.73800062481
1710812045857,-77547.20605843235
1710812045897,-77376.2883635778
1710812045937,-66150.38013223931
1710812045978,-69478.51590615371
1710812046018,-66903.33571876772
1710812046058,-74166.49638841394
1710812046098,-83951.76916722301
1710812046138,-84349.77840387635
1710812046178,-85565.88600825053
1710812046219,-88258.03773823567
1710812046258,-90531.18826423027
1710812046298,-93824.75726778805
1710812046338,-102879.39050669037
1710812046379,-102861.50811648555
1710812046419,-98985.70452581951
1710812046459,-93686.2385889776
1710812046499,-102968.92375090951
1710812046539,-104494.44780332455
1710812046579,-110367.80922731478
1710812046620,-122891.54119399376
1710812046659,-138080.22688915674
1710812046699,-147421.56594736548
1710812046739,-161572.54573277896
1710812046779,-154005.84904868575
1710812046820,-131447.96233163727
1710812046860,-96583.23956937063
1710812046900,-67319.57226931793
1710812046940,-45854.574159070384
1710812046980,-36690.19002214121
1710812047021,-29268.949689589906
1710812047060,-30643.78810656676
1710812047100,-37675.04744339804
1710812047140,-46336.29731790349
1710812047180,-47454.36364116985
1710812047221,-60692.76952571771
1710812047261,-57856.638035021955
1710812047301,-59982.29686430725
1710812047341,-53249.68212170806
1710812047381,-45144.18508441211
1710812047422,-41809.58178518433
1710812047461,-40236.8006001343
1710812047501,-36387.04102771124
1710812047542,-32891.644170648884
1710812047582,-27712.567200206686
1710812047623,-21352.02563792467
1710812047662,-26206.163575116545
1710812047702,-37343.44335751142
1710812047742,-46127.63366573886
1710812047782,-48593.04937348934
1710812047823,-52169.96802235907
1710812047862,-51897.678061816376
1710812047905,-48990.28930227365
1710812047943,-48010.643886354286
1710812047983,-48160.994009129936
1710812048024,-47754.201306214556
1710812048063,-48939.2834647689
1710812048103,-49398.04753078683
1710812048143,-48192.0720947471
1710812048183,-46403.03331112163
1710812048224,-43935.512349474244
1710812048264,-41266.35341297719
1710812048304,-38091.77901737392
1710812048344,-36359.50537096476
1710812048384,-36888.47591786203
1710812048425,-39509.8036782993
1710812048464,-39183.797379236436
1710812048504,-39636.160805720836
1710812048545,-38227.2036717087
1710812048584,-37612.06468987232
1710812048625,-37264.31009260728
1710812048665,-35609.68711349089
1710812048705,-34088.736854022834
1710812048745,-31840.985059910454
1710812048785,-30048.47435811977
1710812048826,-28641.586004032753
1710812048865,-26650.31815698184
1710812048905,-24830.910024790093
1710812048945,-21885.570626144297
1710812048986,-19154.01095741894
1710812049027,-17684.221355390735
1710812049066,-17366.2668941468
1710812049106,-21185.1937844723
1710812049146,-25280.767957912292
1710812049186,-28002.84889540728
1710812049227,-29002.03657873976
1710812049267,-27763.241727711167
1710812049307,-27155.0330280161
1710812049347,-25954.07557707932
1710812049387,-24860.029913413804
1710812049428,-23584.84641980147
1710812049467,-21719.269814932253
1710812049507,-19794.165624716785
1710812049547,-18595.314933632035
1710812049588,-16493.45536052296
1710812049628,-13829.475775678875
1710812049668,-11438.237261201255
1710812049708,-8325.01670691371
1710812049748,-6301.502994303592
1710812049788,-5114.653044539737
1710812049829,-7440.71542539401
1710812049869,-10615.208398590563
1710812049909,-12376.761576646939
1710812049949,-14118.246515757404
1710812049989,-14485.934350692667
1710812050030,-13183.256052559242
1710812050069,-12313.163227172336
1710812050112,-10409.955192807596
1710812050149,-10165.418948689708
1710812050189,-9095.679603268392
1710812050230,-8907.446475827135
1710812050270,-6718.118575674947
1710812050310,-5104.723397717811
1710812050350,-2901.540642164182
1710812050390,-222.8836747277528
1710812050431,1284.4240579693578
1710812050471,4447.349276686786
1710812050511,6735.0978963919915
1710812050551,7786.846884324681
1710812050591,6213.628521873383
1710812050632,3155.130178968888
1710812050671,532.6954660916235
1710812050711,-1788.934039265383
1710812050751,-2245.7198737089057
1710812050792,-1479.6541563705541
1710812050832,262.33490421343595
1710812050872,1125.6901457605418
1710812050912,353.92833810066804
1710812050952,318.9292979061138
1710812050992,217.95487193623558
1710812051033,953.2393324244767
1710812051073,4241.908294226974
1710812051113,6443.479610321578
1710812051153,8550.414396676002
1710812051193,14051.703434332274
1710812051234,22350.16328091966
1710812051273,20691.711481553502
1710812051313,15448.027205521008
1710812051353,10060.24813063792
1710812051393,5680.970723538427
1710812051434,3862.55555703328
1710812051473,3200.2265115124173
1710812051513,4527.170977870235
1710812051554,4518.4312814543955
1710812051593,4174.296953751473
1710812051634,3203.6249605636112
1710812051674,2157.4543526656926
1710812051714,2366.110195121728
1710812051754,2696.0956697457004
1710812051794,3320.960611515213
1710812051835,4657.467054986395
1710812051874,5398.2649954329245
1710812051914,6836.901393069187
1710812051954,7940.295948689338
1710812051994,7563.81979395519
1710812052035,3307.270644364413
1710812052075,-756.8422683349345
1710812052115,-2978.6921613169834
1710812052155,-3972.9929566006176
1710812052195,-3541.1182477253024
1710812052236,-2557.883681348525
1710812052275,-1749.360384593252
1710812052315,-1296.5706182513386
1710812052355,-1476.564997196896
1710812052396,-392.4592494382523
1710812052436,1622.969164611306
1710812052476,780.2858473733068
1710812052516,413.6461539599113
1710812052556,1987.5664761783555
1710812052596,3718.950607542414
1710812052637,5914.396545962663
1710812052676,8141.534800046822
1710812052716,9238.119575307006
1710812052756,7703.149322499055
1710812052796,3361.3879895473365
1710812052837,-311.602425343357
1710812052877,-1436.631294158753
1710812052917,-2538.3253668509424
1710812052957,-2158.892030159477
1710812052997,-530.9265928678215
1710812053038,-193.1186454205308
1710812053077,-58.76402666512877
1710812053117,-1008.7380501457956
1710812053157,-56.13065842259675
1710812053197,101.12427517375909
1710812053238,1130.1095316826832
1710812053278,1934.238884084858
1710812053318,3766.4982948186807
1710812053358,5070.206640749238
1710812053398,6255.2277711702045
1710812053439,7771.571886578109
1710812053478,8310.483911335235
1710812053518,5718.506670281757
1710812053558,1676.0950075918809
1710812053598,-856.0304409461096
1710812053639,-2355.518124437891
1710812053679,-3187.0257272953168
1710812053719,-2678.590047837468
1710812053759,-2979.7022975338623
1710812053799,-2803.8187829111703
1710812053840,-3066.377951903967
1710812053879,-3356.7838448002003
1710812053919,-3281.5582345451694
1710812053959,-2923.2158017947804
1710812053999,-1157.9111144798808
1710812054040,358.5379241015762
1710812054080,1057.9427041586023
1710812054120,2368.656357778702
1710812054160,3879.56100533437
1710812054200,5111.679209267488
1710812054241,4322.076472605113
1710812054280,367.351952848956
1710812054320,-2365.2322407788597
1710812054360,-4973.927438899176
1710812054400,-4907.795808814
1710812054441,-4323.092158148764
1710812054481,-3469.3351845135912
1710812054521,-3098.5514691621065
1710812054561,-1786.7193606439978
1710812054601,-1810.3445898066275
1710812054642,-1148.8842395048123
1710812054681,-305.80182479834184
1710812054721,1033.2096293084323
1710812054761,1821.4875845108181
1710812054802,3518.839286550414
1710812054842,5143.386523611378
1710812054882,6509.721372117754
1710812054922,8608.850952097215
1710812054962,9724.769583939109
1710812055002,8194.391305473167
1710812055043,5382.824402043829
1710812055082,2085.204688566737
1710812055122,-138.99423866299912
1710812055162,-825.9441197274718
1710812055202,-565.6472853971645
1710812055243,130.4376359716989
1710812055283,-391.8248331528157
1710812055323,-665.3961767137516
1710812055363,-460.64597154641524
1710812055403,404.8773410168942
1710812055444,785.756263686344
1710812055483,2605.476716723293
1710812055524,3850.393456899561
1710812055564,4975.057880410459
1710812055604,6672.328800449148
1710812055645,8140.756783267716
1710812055684,9316.62345667556
1710812055724,10910.494767443743
1710812055764,10653.799283748493
1710812055804,8160.117412125459
1710812055845,4722.069508938119
1710812055885,3074.298967297189
1710812055925,1250.3012405016925
1710812055965,-90.6885366733186
1710812056005,12.864407856948674
1710812056046,1054.0731164598837
1710812056085,1353.8545292909257
1710812056125,1347.4005267480388
1710812056165,1549.4777322034352
1710812056205,1080.4338133714627
1710812056246,1657.8309262036346
1710812056286,4517.846000696532
1710812056326,5114.984542965423
1710812056366,4711.762018286157
1710812056406,7391.491309677018
1710812056447,8902.375240639318
1710812056486,9229.45430743089
1710812056526,8968.163382856175
1710812056567,7487.313647550065
1710812056607,4082.6841431790963
1710812056648,691.4548527451698
1710812056687,-1982.3101734970696
1710812056727,-1914.3409963231534
1710812056767,-2478.9541131379083
1710812056807,-3047.663098971825
1710812056848,-2714.7894705585204
1710812056888,-2975.494725590106
1710812056928,-952.6098904162645
1710812056968,-744.7174651087262
1710812057008,443.5653544161469
1710812057049,2149.3658047835343
1710812057088,4914.807051946642
1710812057128,8479.900281714275
1710812057168,10133.251932730898
1710812057209,12003.63247554563
1710812057249,14073.609567329288
1710812057289,15486.224829908926
1710812057329,16427.898733374663
1710812057369,17592.867871304043
1710812057409,15954.77786403359
1710812057450,12068.468197448878
1710812057489,9608.874362482922
1710812057530,9188.952808032278
1710812057570,7620.870914641302
1710812057610,8918.618530515814
1710812057651,11621.62515091896
1710812057690,10421.029004856478
1710812057730,8324.394124537008
1710812057770,7072.3651886815205
1710812057811,6840.04025294329
1710812057851,9416.164207132533
1710812057891,10918.11033049412
1710812057931,11073.862008735538
1710812057971,10793.839664756786
1710812058011,8374.244339533849
1710812058052,8680.684591829311
1710812058092,9448.625897664111
1710812058132,9874.995721202577
1710812058172,12202.864434496965
1710812058212,2977.8870632995386
1710812058253,-3100.6715189833194
1710812058292,-7422.061225995189
1710812058332,-3964.558925276622
1710812058372,-1710.288159574382
1710812058412,6634.339162176941
1710812058453,19912.84003467858
1710812058493,26847.402702487074
1710812058533,31775.931438859552
1710812058573,31923.235091625247
1710812058613,28614.04178849794
1710812058654,29948.519150320906
1710812058693,31782.497018998256
1710812058733,32549.695173713146
1710812058773,32361.787280555815
1710812058813,18783.840544030536
1710812058854,16508.78416281077
1710812058893,-1176.5058749387972
1710812058933,7356.035099656787
1710812058973,20645.254460654687
1710812059014,31806.761272130767
1710812059054,35183.57792709023
1710812059094,24317.9662933934
1710812059134,21953.147090953076
1710812059174,-1742.2364715668373
1710812059214,-21780.669398531783
1710812059255,-8546.492732475046
1710812059294,15641.850833322154
1710812059334,13053.366244533798
1710812059374,82.7728299270384
1710812059414,-23226.697710694745
1710812059455,-35066.41292667901
1710812059495,-16425.92687067669
1710812059535,1592.65524453111
1710812059575,9692.64895612793
1710812059615,6742.113452265505
1710812059656,10391.318522448419
1710812059695,8125.101508288179
1710812059735,-1647.4794843432028
1710812059775,-5370.1046959208325
1710812059815,-9664.532428841107
1710812059856,-9714.21873490652
1710812059895,-5676.608285835013
1710812059935,-7776.805952229071
1710812059976,-8139.496982695768
1710812060016,-5711.233331522439
1710812060056,-3081.0114282919094
1710812060096,13465.818206800614
1710812060136,16138.006656118669
1710812060176,36995.885566246696
1710812060216,28283.065539003816
1710812060257,12782.994705707999
1710812060296,-1032.3448066578712
1710812060336,-6366.788827586453
1710812060376,3290.934363985434
1710812060417,4864.381485645659
1710812060457,30027.79405350471
1710812060497,54179.23619632097
1710812060537,42905.09579214058
1710812060577,16861.162202167325
1710812060617,15469.69927795371
1710812060658,27909.53340880247
1710812060697,53316.84740438778
1710812060737,64949.028741245624
1710812060777,56683.05794130615
1710812060818,49074.34307406843
1710812060858,45828.13844504906
1710812060898,45795.342009619344
1710812060938,43593.8786049746
1710812060978,42171.280660442775
1710812061018,43213.58126010606
1710812061059,43098.04739248613
1710812061098,41901.75732531678
1710812061138,40126.699601334054
1710812061178,38917.69920573942
1710812061218,38672.98005000665
1710812061259,35073.269392292714
1710812061299,30849.389709688723
1710812061339,26749.47584868828
1710812061379,24306.945509382524
1710812061419,22663.27023781743
1710812061460,21367.071193020092
1710812061499,21183.554467062466
1710812061539,21083.559872834012
1710812061579,19785.71724310727
1710812061620,17930.62831471814
1710812061661,19900.33970926702
1710812061700,18967.20360164577
1710812061740,20377.850086037535
1710812061780,20846.831096677808
1710812061820,18963.52203345718
1710812061861,18723.477671918925
1710812061900,17400.90695500374
1710812061940,16959.799882726045
1710812061981,16148.54453791026
1710812062021,12905.729350487702
1710812062062,9041.894240791444
1710812062101,7029.317961157998
1710812062141,6431.975652166409
1710812062181,6700.6121243601665
1710812062221,6623.573706496041
1710812062262,6500.944079526933
1710812062301,6554.894700480625
1710812062342,6265.966688534711
1710812062382,5701.313569637481
1710812062422,6088.080346788745
1710812062463,6802.189187407726
1710812062502,8023.4812266323715
1710812062542,9441.444952212274
1710812062582,9986.963712064782
1710812062622,11337.017264016671
1710812062663,11767.538207364501
1710812062703,13715.441714284243
1710812062743,13891.987418584526
1710812062783,12155.861144046998
1710812062823,9195.533643794246
1710812062864,7691.165484066587
1710812062903,6633.260968250921
1710812062943,4732.969237482408
1710812062984,6022.512084288755
1710812063024,5723.39264118718
1710812063064,4833.185234384146
1710812063104,5977.686596984975
1710812063144,6822.80370895192
1710812063184,7074.141748212278
1710812063224,7545.445174266817
1710812063265,8111.1443296668585
1710812063305,8693.206165225245
1710812063345,10460.923199482728
1710812063385,10921.534655418247
1710812063425,11699.548085963354
1710812063466,12015.236539512407
1710812063505,11998.311394025572
1710812063546,9616.35995746241
1710812063586,6946.863184658112
1710812063626,5199.864341048757
1710812063667,5156.872341534356
1710812063706,5931.190608887002
1710812063746,6262.770336702932
1710812063785,6441.946697179694
1710812063826,6685.934063824359
1710812063866,6768.854212201899
1710812063906,7332.736387126381
1710812063946,7785.417761971243
1710812063986,7754.854505442316
1710812064026,9037.439486892428
1710812064067,10095.232213125564
1710812064106,11088.13571578497
1710812064146,11912.978339783382
1710812064187,12970.932030986529
1710812064227,12457.306267621927
1710812064268,9597.93906435743
1710812064307,7421.551938363118
1710812064347,6273.513962998986
1710812064387,6052.628333653323
1710812064428,5849.4232544119
1710812064468,6237.529215812683
1710812064508,7291.182085106848
1710812064548,7934.602302442538
1710812064588,8234.952230613213
1710812064628,7845.710609611124
1710812064669,8083.216828833567
1710812064708,8037.980020549614
1710812064749,8497.805149975233
1710812064789,10046.844322120305
1710812064829,11285.404815503163
1710812064870,12075.167293341365
1710812064909,12987.841046720278
1710812064949,13137.55033352971
1710812064989,10426.865211898927
1710812065030,7823.407255197875
1710812065070,6149.269991276553
1710812065110,4847.210612173891
1710812065150,4606.456076966599
1710812065190,4935.379677376011
1710812065230,5802.059497377602
1710812065271,6164.518086474622
1710812065311,5720.61003285693
1710812065351,5739.930288019124
1710812065391,7070.9379491112195
1710812065431,7420.979601764819
1710812065472,8195.394186024554
1710812065511,8513.199541686568
1710812065551,9747.032184931915
1710812065591,10272.780669480097
1710812065631,11436.581375013571
1710812065672,11537.488295871299
1710812065711,9384.226529231295
1710812065751,6725.885546831414
1710812065792,4364.524014811963
1710812065832,3310.7895683739334
1710812065873,3269.491727731889
1710812065912,3247.863902698271
1710812065952,4211.8968986831605
1710812065992,5149.604839001317
1710812066032,5352.613510593539
1710812066073,4730.868359274231
1710812066112,4801.649985982571
1710812066152,5139.365299853263
1710812066192,6075.590255258838
1710812066233,6658.3849763670005
1710812066273,8059.561766330618
1710812066313,9155.296699978877
1710812066353,9722.723386315629
1710812066393,10648.70088599762
1710812066433,11135.024355653906
1710812066474,11192.390191278886
1710812066513,9096.36131973425
1710812066553,6498.565498300595
1710812066594,4451.0896409158595
1710812066634,3427.0714597827755
1710812066674,3441.6089904531837
1710812066714,3986.2149453687016
1710812066754,4647.987642584834
1710812066794,5170.012852251064
1710812066834,4600.184775134083
1710812066875,5268.42195753986
1710812066914,5325.506935153622
1710812066954,5757.718744875863
1710812066994,7028.627662947401
1710812067035,7858.306672591018
1710812067075,8380.609118125401
1710812067115,8847.369216580875
1710812067155,9530.049828126328
1710812067195,10959.959995941259
1710812067235,11232.371877304977
1710812067276,11919.43619979336
1710812067315,11414.955969522707
1710812067355,8365.841653370764
1710812067395,6345.307315166341
1710812067436,5165.780945411883
1710812067476,4193.926901178667
1710812067516,5155.501269493252
1710812067556,4916.17828790471
1710812067596,5209.541766404407
1710812067636,5110.594565851614
1710812067677,5179.645258283708
1710812067716,5060.304388908669
1710812067756,5588.432153034024
1710812067797,5833.039867202053
1710812067836,6227.830204954138
1710812067877,7391.1516541661695
1710812067917,7985.828873725608
1710812067957,9078.37565827975
1710812067997,9790.481604182627
1710812068037,10339.457899964415
1710812068078,11629.4912894757
1710812068117,12354.215115614701
1710812068157,10150.572320139501
1710812068197,7354.74227856053
1710812068237,5673.68145084288
1710812068278,4322.083984457189
1710812068318,4188.3252054564655
1710812068358,5082.259573576972
1710812068398,5759.362474007765
1710812068438,6230.861041664612
1710812068479,5752.575102554634
1710812068518,5587.457527587656
1710812068558,5540.149104061071
1710812068598,5334.595879597589
1710812068639,5287.932472072309
1710812068679,5442.551025621127
1710812068719,5799.639281822834
1710812068759,6505.807553544175
1710812068799,7210.353990204167
1710812068839,7350.113285135245
1710812068880,8623.307743211044
1710812068919,8528.97424577456
1710812068959,6519.539857599651
1710812068999,4005.730531085981
1710812069039,1885.8699715028051
1710812069080,975.3988686404191
1710812069120,939.8095284285955
1710812069160,1406.0247217854485
1710812069200,2431.691754109226
1710812069240,2680.694796181051
1710812069281,3112.8369233021513
1710812069320,3285.8919320614077
1710812069360,2551.231584685389
1710812069400,2552.4171206641477
1710812069441,3177.858848474454
1710812069481,3736.9626764608547
1710812069521,3674.983401063597
1710812069561,4548.861277420772
1710812069601,5620.57220003102
1710812069641,6587.372384855524
1710812069682,5653.476581691066
1710812069721,2691.596121746581
1710812069761,-54.28057340788655
1710812069801,-1216.5615499648266
1710812069842,-1719.6929058900569
1710812069882,-826.8450231587049
1710812069922,341.67281629517674
1710812069962,992.4049546583556
1710812070002,864.5766582607757
1710812070042,639.8996446137317
1710812070083,570.5753038325347
1710812070122,1163.2996150166728
1710812070162,1438.9493570236955
1710812070203,2181.855420414824
1710812070243,2771.529761757236
1710812070283,3326.5699707660824
1710812070323,4424.460857372265
1710812070363,5289.151224677917
1710812070403,3685.9501588793937
1710812070443,505.5678456258029
1710812070484,-2477.4197818334214
1710812070524,-4176.900087426882
1710812070564,-4864.0032070335
1710812070604,-4633.721312623471
1710812070644,-3997.0741285076365
1710812070685,-3767.5492764662486
1710812070724,-4316.145023468416
1710812070764,-4385.137078231201
1710812070804,-4049.597021793481
1710812070844,-3752.886199504137
1710812070885,-3297.039370342158
1710812070925,-2421.1610842007212
1710812070965,-1492.3506996938959
1710812071005,-979.6245287060738
1710812071045,-477.62606584560126
1710812071086,624.4881604225375
1710812071125,-818.0864602909423
1710812071165,-4886.870421122527
1710812071205,-8127.9255128256045
1710812071245,-10074.751924065175
1710812071286,-10041.322316500824
1710812071326,-10443.12108634878
1710812071366,-10020.385571824387
1710812071406,-9944.101416945923
1710812071446,-9678.917522483505
1710812071487,-10024.429026498925
1710812071526,-9793.098779163323
1710812071566,-9432.986370461993
1710812071606,-9440.008773187641
1710812071647,-8120.8220687643625
1710812071687,-6735.281734658638
1710812071727,-5114.188611451071
1710812071767,-4002.8056750928517
1710812071807,-3056.833783258684
1710812071847,-1889.6125570640434
1710812071888,-2041.9750703009777
1710812071927,-5273.290269670542
1710812071967,-8631.840392880142
1710812072008,-10837.151731542777
1710812072048,-11863.240829096641
1710812072088,-12337.096746839583
1710812072128,-11573.531948147342
1710812072168,-11265.994390705368
1710812072208,-11316.257944837911
1710812072248,-11384.154174824245
1710812072289,-11270.496657354292
1710812072328,-10698.206046456937
1710812072369,-10104.222771918867
1710812072409,-8845.263254311867
1710812072449,-7641.509977082023
1710812072490,-6796.297109903069
1710812072529,-5579.7597393505275
1710812072569,-4514.538790686987
1710812072609,-3320.51089970069
1710812072649,-2351.0111881229095
1710812072690,-613.8327136149164
1710812072730,-1176.7143519688398
1710812072770,-4445.518025783123
1710812072810,-7780.074960483005
1710812072850,-9489.824518879177
1710812072891,-10359.524555241689
1710812072930,-10979.063366625924
1710812072970,-10601.87601383566
1710812073010,-10420.154412793228
1710812073050,-9876.462859308813
1710812073091,-9838.70121253538
1710812073131,-9582.924819332547
1710812073171,-9434.862572554499
1710812073211,-8597.62578751496
1710812073251,-7928.271680926671
1710812073292,-6537.455197351752
1710812073331,-5565.766746486537
1710812073371,-4333.486615977716
1710812073411,-2834.7424349973444
1710812073451,-1761.2000603964552
1710812073492,-1229.9519441381563
1710812073531,-76.99970949883573
1710812073571,1677.7545773526654
1710812073611,126.0617128284648
1710812073652,-3094.1436357474886
1710812073693,-5609.454396111425
1710812073732,-6968.700211482588
1710812073772,-7059.942612478044
1710812073812,-6407.768565569539
1710812073852,-5619.361159443855
1710812073893,-5116.738521357998
1710812073932,-4634.9055265442
1710812073972,-5413.44752260996
1710812074012,-5222.235387690831
1710812074053,-4447.090470836265
1710812074093,-4006.7789246574976
1710812074133,-2945.6269295150414
1710812074173,-1577.322925042361
1710812074213,-225.2037125970237
1710812074253,1407.9463146170601
1710812074294,2301.3307259303983
1710812074333,2487.145999826025
1710812074373,3774.4408499333076
1710812074413,3370.0339746109676
1710812074453,1066.6378375287168
1710812074494,-1790.2828490338288
1710812074534,-3817.934863078175
1710812074574,-4674.477408727864
1710812074614,-4469.216609688243
1710812074654,-3563.0937880771235
1710812074694,-2951.985934218159
1710812074734,-2645.741652320139
1710812074774,-2100.0516760414466
1710812074814,-2063.054765249137
1710812074854,-1875.386013674084
1710812074895,-819.0387051054277
1710812074934,340.4241313878447
1710812074974,1094.4938809350133
1710812075015,2414.4994901861064
1710812075054,3502.879350385163
1710812075095,4212.786523216637
1710812075135,5221.214095183415
1710812075175,6344.061554472428
1710812075215,5685.675576683134
1710812075255,2839.603646530537
1710812075296,-447.2977562805172
1710812075335,-2210.1687584409956
1710812075375,-2587.616923749447
1710812075415,-2164.778908159584
1710812075455,-1420.9498260822147
1710812075496,-910.2320631076582
1710812075536,-1078.4566380253527
1710812075576,-1026.1407793576363
1710812075616,-76.14086947008036
1710812075656,97.48203468718566
1710812075697,1686.1219431487843
1710812075736,2513.8589591132477
1710812075776,3182.7297369542066
1710812075817,4778.213808432687
1710812075858,5773.730037032161
1710812075898,6827.481602929067
1710812075938,7950.716872696765
1710812075978,9210.583446649602
1710812076018,9766.777382985223
1710812076058,8043.947994291782
1710812076099,4842.912657623878
1710812076138,1597.4537380307447
1710812076178,-35.47873733378947
1710812076218,-578.6060592844151
1710812076258,34.912093551363796
1710812076299,713.352209941484
1710812076339,1391.8315434739925
1710812076379,1887.713702361798
1710812076419,1639.4458647859283
1710812076459,1269.4392129159532
1710812076500,1957.6935803741217
1710812076539,2986.238329792628
1710812076579,3953.8847362876404
1710812076619,4675.816754045896
1710812076659,5963.133402275853
1710812076700,6937.503429904813
1710812076740,8038.355175814126
1710812076780,9122.37136511528
1710812076820,9922.689697338035
1710812076860,11228.542708671652
1710812076901,10770.600955304224
1710812076940,8157.51223778096
1710812076980,3691.7415416631848
1710812077020,1375.3559221164323
1710812077061,-331.3301323512569
1710812077101,-695.3255093889311
1710812077141,251.16497541731223
1710812077181,1581.6710189387668
1710812077221,1160.039832845796
1710812077261,582.8936230989639
1710812077302,1354.3295635303948
1710812077341,1579.5435649622232
1710812077381,2264.519213806838
1710812077422,2586.20051123295
1710812077462,3453.416562098777
1710812077502,4481.573121655732
1710812077542,5122.168806732632
1710812077582,5872.865971300751
1710812077622,6660.387726379093
1710812077662,7272.431062669959
1710812077703,8474.263999072835
1710812077742,9676.556940123672
1710812077783,8765.54453329742
1710812077823,5661.232270238688
1710812077863,2825.7339561097324
1710812077904,911.7233589375392
1710812077943,93.16127744363621
1710812077983,47.091826318064705
1710812078023,824.5583053145092
1710812078063,1580.2001062938944
1710812078104,1998.1910962148104
1710812078144,1543.1790821058676
1710812078184,1509.3986260199454
1710812078224,1521.6682157383766
1710812078264,2429.7104108224157
1710812078305,3193.8104307297617
1710812078344,4566.36255940632
1710812078384,5266.873056623153
1710812078424,5387.532595159952
1710812078464,5548.797606677515
1710812078505,6621.343901125016
1710812078545,7310.869614705909
1710812078585,7851.056572491303
1710812078625,8981.024635721464
1710812078665,7152.930847554235
1710812078706,4653.489769782405
1710812078745,1761.0931913999375
1710812078785,-49.59841151628643
1710812078825,90.09721849462949
1710812078866,554.5471021272242
1710812078906,1497.9515939578414
1710812078946,1668.6116126168054
1710812078986,1878.105779595673
1710812079026,1209.4550947996322
1710812079066,584.538213448599
1710812079107,916.4362718178891
1710812079146,956.7976257773116
1710812079186,2233.295879178215
1710812079227,2537.5073654237203
1710812079267,3715.72093851096
1710812079308,3919.4228942021728
1710812079347,4577.895457782783
1710812079387,5184.707707292633
1710812079427,6160.714971160982
1710812079467,6699.342946796911
1710812079508,4524.736298864242
1710812079548,2189.836698370287
1710812079588,-67.64490596298128
1710812079628,-807.1588349540252
1710812079668,-504.8130433165934
1710812079709,821.2369976176415
1710812079748,2168.479206149932
1710812079788,3158.0004647797905
1710812079829,3382.079105561832
1710812079869,2984.5444942023605
1710812079909,2580.4137906949036
1710812079949,3632.389031184837
1710812079989,4022.623224086594
1710812080029,4819.832047418458
1710812080069,6118.697051387746
1710812080110,7077.369856588077
1710812080149,7975.931301715784
1710812080190,8323.029567319667
1710812080230,9626.244641780388
1710812080270,9131.518263421021
1710812080311,6408.070270285942
1710812080350,3319.9253015769646
1710812080390,148.72864211443812
1710812080430,-556.5302199693397
1710812080470,-1133.4615058144554
1710812080511,-628.5175299830735
1710812080551,-198.73049021093175
1710812080591,-339.298978978768
1710812080631,-204.25741917849518
1710812080671,-221.32594489771873
1710812080712,10.781043147668242
1710812080751,268.5187731629703
1710812080791,1098.9080610331148
1710812080831,1690.3467155946419
1710812080871,2510.013746551238
1710812080912,3953.474537369795
1710812080951,5068.966361217666
1710812080991,5471.207143389853
1710812081032,6619.65867039049
1710812081072,5771.613789377268
1710812081112,1735.7357518177014
1710812081152,-2023.4302779585123
1710812081192,-4186.09336414421
1710812081232,-5461.889921125025
1710812081272,-5841.885644174879
1710812081313,-5726.178290233249
1710812081352,-5120.252084214939
1710812081392,-5628.269246401032
1710812081432,-6139.7421052493155
1710812081472,-5578.206579036079
1710812081513,-5652.755583922379
1710812081553,-4609.120025140699
1710812081593,-3184.9125164255966
1710812081633,-2191.064994064858
1710812081673,-1092.3477112064138
1710812081714,231.80936863669194
1710812081753,1321.0488531638402
1710812081793,2604.475181274116
1710812081833,3484.964199665468
1710812081874,2043.293779762229
1710812081914,-1987.7722389509436
1710812081954,-5702.8646523403
1710812081994,-7872.937294213567
1710812082034,-8692.232573010726
1710812082074,-8589.585152538959
1710812082115,-7924.076459314907
1710812082154,-7054.352168628713
1710812082194,-7943.140828015748
1710812082234,-8588.814760679845
1710812082274,-8556.087146924809
1710812082315,-8634.7374936915
1710812082355,-8397.034397033043
1710812082395,-6663.878673703177
1710812082435,-5427.415071099065
1710812082475,-4191.079660434974
1710812082516,-3611.3411459932104
1710812082555,-1758.8413950267714
1710812082595,-476.42126759374514
1710812082635,-2800.9061822947115
1710812082675,-6476.356656980701
1710812082716,-9645.19955111714
1710812082755,-11108.032339835074
1710812082796,-11238.054177514743
1710812082836,-10401.158180725528
1710812082876,-9160.5836042827
1710812082917,-9034.104854098521
1710812082956,-8336.306809971109
1710812082996,-8574.7808424721
1710812083036,-8409.866948196664
1710812083076,-7760.521501417039
1710812083117,-6515.96922313422
1710812083156,-5466.816737884656
1710812083197,-4114.325627312064
1710812083237,-3226.0993558764458
1710812083277,-2157.279066989897
1710812083318,-711.2954774962272
1710812083357,-1297.687683513388
1710812083397,-4475.136381086195
1710812083437,-7607.839116191724
1710812083477,-8910.518200314371
1710812083518,-9380.878273488022
1710812083558,-8648.832818351686
1710812083598,-7660.938145863824
1710812083638,-6801.900111051276
1710812083678,-7237.278716376284
1710812083718,-7445.607399906963
1710812083758,-7634.700193694094
1710812083798,-6582.34655910451
1710812083838,-5415.352627868764
1710812083878,-4362.481697891839
1710812083919,-2728.3111195517704
1710812083958,-2135.7672418202274
1710812083999,11.291750037111342
1710812084039,1296.7283180081286
1710812084079,-592.3751574682537
1710812084119,-4318.69392660493
1710812084159,-8222.171565530822
1710812084199,-10042.008046793053
1710812084239,-11155.080649087904
1710812084279,-10925.540077664657
1710812084320,-9634.569241522811
1710812084360,-8987.495940835215
1710812084400,-9390.667914408026
1710812084440,-9490.182178094052
1710812084480,-9557.407781403512
1710812084521,-8009.468854031526
1710812084560,-6749.556365127442
1710812084600,-5573.245786663843
1710812084640,-4678.289876612835
1710812084680,-3027.662919405848
1710812084721,-2506.455808740575
1710812084761,-498.69456373597495
1710812084801,-400.29773763916455
1710812084841,-4298.290561070666
1710812084881,-8443.62810393027
1710812084922,-11342.853304625256
1710812084961,-12205.845382948872
1710812085001,-12876.044177550357
1710812085041,-12079.875238797162
1710812085082,-11616.941720752046
1710812085122,-11851.277624843176
1710812085162,-12077.09487693524
1710812085202,-12175.460116559174
1710812085242,-10937.077445663046
1710812085282,-10462.842721385648
1710812085323,-9576.226186645683
1710812085362,-7849.947475231253
1710812085402,-5829.849790989887
1710812085443,-4543.233516689856
1710812085483,-3414.19187934231
1710812085523,-1699.8488256616984
1710812085563,-635.35125003336
1710812085603,-2668.6050774599425
1710812085643,-6877.747774156276
1710812085683,-10698.41647197958
1710812085724,-12864.366452713497
1710812085763,-13385.449073024094
1710812085804,-13558.080209475243
1710812085844,-13146.716816949192
1710812085884,-12281.657968216576
1710812085925,-11609.772117296467
1710812085964,-12418.691478653811
1710812086004,-11497.553543248214
1710812086044,-10850.396523200674
1710812086085,-9689.732690395322
1710812086125,-7408.99484158773
1710812086165,-5723.161812438164
1710812086205,-4136.937366478145
1710812086245,-2556.4647065117024
1710812086285,-413.4480274831876
1710812086326,1060.820197430905
1710812086365,2808.799283470493
1710812086405,2427.478345887037
1710812086446,-1675.5649668779224
1710812086486,-6032.946377539542
1710812086526,-8623.9578874656
1710812086566,-9121.405020700768
1710812086606,-8660.74207820138
1710812086646,-8269.617926357314
1710812086686,-7925.086197232362
1710812086727,-6965.849846199155
1710812086766,-6808.27364303451
1710812086806,-6697.883989941096
1710812086846,-6300.780556654558
1710812086887,-5535.139841759577
1710812086928,-4495.22086935956
1710812086967,-2837.76797148725
1710812087007,-1145.4282713539433
1710812087047,700.7333308893722
1710812087087,2772.7568672546186
1710812087128,4272.198726332048
1710812087168,5300.7688273654785
1710812087208,6396.454761093948
1710812087248,7511.808413300896
1710812087288,4937.485202522017
1710812087329,959.0740272225812
1710812087368,-1588.2876814410556
1710812087409,-2964.9555627442896
1710812087449,-3520.676283817971
1710812087489,-2540.1192858782597
1710812087530,-1520.2875562948175
1710812087569,-1375.7747433972545
1710812087609,-1388.3793252673931
1710812087650,-1763.5317152242642
1710812087690,-1233.2338873129338
1710812087730,-322.07778528891504
1710812087770,850.3225998620037
1710812087810,1514.0962126459926
1710812087850,2777.1100900247693
1710812087890,4183.282017549034
1710812087931,5732.819539909251
1710812087970,7180.7134015429765
1710812088010,8014.1503101629205
1710812088050,8710.739752463298
1710812088090,10243.892051763367
1710812088131,10949.308897882933
1710812088170,8358.499014770146
1710812088211,5058.243545489386
1710812088251,2171.4536000797525
1710812088291,1293.4830082310364
1710812088332,1251.8680792548694
1710812088371,1647.8115947255865
1710812088411,3100.8156214836054
1710812088451,4294.7209598154295
1710812088491,3399.326517208712
1710812088532,3449.2710566255264
1710812088571,4013.2244874364696
1710812088612,4031.661697994452
1710812088652,3771.058414850384
1710812088692,5148.97515227017
1710812088733,6711.573552832007
1710812088772,7847.042505713645
1710812088812,8754.818516049767
1710812088852,9373.593754991423
1710812088892,10768.346646814607
1710812088933,12009.802423566813
1710812088972,11812.249839068623
1710812089012,8644.4580199935
1710812089053,5093.193204751704
1710812089093,3183.588440940017
1710812089133,2282.8938760715537
1710812089173,2503.750302786473
1710812089213,3526.0963974008337
1710812089253,3946.2860744616482
1710812089293,4201.605428605573
1710812089334,4188.205449141096
1710812089373,3657.0603758259676
1710812089413,3934.107425280381
1710812089454,4385.903414395172
1710812089494,5431.145568646956
1710812089534,6263.542761462741
1710812089574,7042.449353093747
1710812089614,7682.777473401278
1710812089654,9112.037624798482
1710812089694,10559.125178634189
1710812089735,11028.937527089845
1710812089774,9277.648526619188
1710812089814,5097.389926410746
1710812089854,2368.391398845939
1710812089895,1263.4149362561293
1710812089935,1660.2761010974646
1710812089975,1778.786595584359
1710812090015,2662.555791144492
1710812090055,3218.985185066471
1710812090095,3563.276585015934
1710812090136,3255.101360751316
1710812090175,2487.0372312818654
1710812090215,2703.0139392833225
1710812090255,3560.420911473222
1710812090296,4308.884191533783
1710812090336,5273.312895298004
1710812090376,5689.095765833976
1710812090416,6495.543134139385
1710812090456,7652.987732408335
1710812090496,6748.7453995207325
1710812090537,3351.3567440165207
1710812090576,-306.0206963857636
1710812090616,-2621.909231840167
1710812090656,-3610.3893713809084
1710812090696,-4092.064589836169
1710812090737,-3119.0395100386813
1710812090777,-2585.0222150010522
1710812090817,-1927.2009605176281
1710812090857,-2435.9656754669268
1710812090897,-2433.4940022602677
1710812090938,-2427.670926712919
1710812090977,-2411.6475739916787
1710812091017,-1451.4522414305247
1710812091057,-122.03166199824773
1710812091097,1408.0262228148058
1710812091138,2241.8432734985836
1710812091178,3197.15058083646
1710812091218,4109.9095023421105
1710812091258,2071.25943551166
1710812091298,-2424.8964986670762
1710812091339,-7115.226822212804
1710812091378,-9611.87926164642
1710812091418,-10617.318582283799
1710812091458,-10722.897986263502
1710812091498,-9911.010422526859
1710812091539,-9845.961366633186
1710812091579,-9965.911195487017
1710812091619,-10687.297458767891
1710812091659,-10367.804148135707
1710812091699,-10352.957015998196
1710812091740,-9400.039072766434
1710812091779,-7699.505813966971
1710812091819,-6242.120250259992
1710812091859,-4844.282848036848
1710812091899,-4069.4193882257678
1710812091940,-2894.7273434391245
1710812091980,-1185.1160543677397
1710812092020,-1937.916524288943
1710812092060,-6108.331898412202
1710812092100,-11520.292396870209
1710812092141,-14583.180887856055
1710812092180,-16236.040008643642
1710812092220,-17079.82513464475
1710812092260,-17219.071433156263
1710812092301,-17077.884828857146
1710812092341,-17426.970391836017
1710812092381,-17918.8482492005
1710812092421,-17660.081007273402
1710812092461,-17056.98859730689
1710812092501,-15801.394868438598
1710812092542,-13892.525922823232
1710812092581,-12486.519543741131
1710812092621,-10927.919248449383
1710812092662,-9510.3670233523
1710812092702,-8174.285995494807
1710812092742,-6973.711162953405
1710812092782,-5484.097416665871
1710812092822,-4363.897453676444
1710812092862,-6081.9129833315965
1710812092902,-10323.953180766199
1710812092943,-14621.341051251628
1710812092982,-16624.178081313148
1710812093023,-18178.829187835567
1710812093063,-19019.96006073407
1710812093103,-18455.676319378195
1710812093144,-18330.363003164995
1710812093183,-18367.28997714445
1710812093223,-18534.825022781733
1710812093263,-18659.737763500772
1710812093304,-17325.635107593145
1710812093344,-16140.715355782304
1710812093384,-14565.985448431224
1710812093424,-13147.918352451641
1710812093464,-11381.891589849489
1710812093504,-9446.263077106327
1710812093545,-7514.32890909072
1710812093584,-5889.062892085873
1710812093624,-3594.99136339128
1710812093665,-1724.9757786849514
1710812093705,-2553.0189881091937
1710812093745,-7201.168555798009
1710812093785,-11314.249952180777
1710812093825,-14169.704306875356
1710812093865,-14621.931273442926
1710812093905,-14621.039615693502
1710812093946,-14037.87290711375
1710812093986,-13467.271703277249
1710812094026,-13020.446059408598
1710812094066,-13431.294392524054
1710812094106,-13023.951542664086
1710812094147,-12513.084095298313
1710812094186,-11180.880768982228
1710812094226,-9593.658702909946
1710812094267,-8050.228878858732
1710812094307,-5758.727804873139
1710812094347,-3823.092230836628
1710812094387,-2365.118806370534
1710812094427,-1159.9488371168263
1710812094467,434.4886927437037
1710812094507,2421.721731830854
1710812094548,4390.282724997494
1710812094587,2447.0250127238687
1710812094628,-1948.4359984535258
1710812094668,-5266.018918733578
1710812094708,-7099.444756776094
1710812094749,-7421.266309808707
1710812094788,-6809.453868276672
1710812094828,-5433.757963218261
1710812094869,-5091.937033854891
1710812094909,-5540.9394235454965
1710812094949,-5734.727374536917
1710812094989,-4560.933825913351
1710812095029,-3310.378449109383
1710812095069,-1850.1202258525882
1710812095109,-161.95195729704574
1710812095150,692.4049207326025
1710812095189,2388.0835040418897
1710812095229,3730.6708147297613
1710812095269,5709.848427424673
1710812095309,6804.99024493061
1710812095350,8110.92279701354
1710812095390,8870.301834154408
1710812095430,5489.413841313915
1710812095470,1057.4652995513752
1710812095510,-1523.8430598569103
1710812095551,-2766.6887307851575
1710812095590,-2559.5881586023606
1710812095630,-1632.7819324065931
1710812095670,-640.0529103148729
1710812095710,-395.9036846444942
1710812095751,-65.4501983341761
1710812095791,595.1227548017632
1710812095831,749.9684534918051
1710812095871,2042.8759151287377
1710812095911,3273.6511961440556
1710812095952,4682.50551529089
1710812095991,6360.218101351988
1710812096031,7853.648183770012
1710812096071,9065.252067134483
1710812096111,9943.584782033693
1710812096152,10885.390495372936
1710812096192,12160.82416913053
1710812096231,13108.601310464554
1710812096272,10890.966140074655
1710812096312,7019.7358007726725
1710812096353,4000.6914783916436
1710812096392,2841.6968638869002
1710812096432,3207.599244545214
1710812096472,4137.233526229393
1710812096512,5088.478527479107
1710812096553,5189.18210431328
1710812096592,4998.917388180969
1710812096632,4731.425486060092
1710812096673,4598.624745449051
1710812096713,5660.832429937087
1710812096753,6923.821342990268
1710812096793,8241.846086937236
1710812096833,9498.01654259162
1710812096873,10555.047746198485
1710812096913,12148.714472020976
1710812096954,13520.703972255113
1710812096993,14386.367245564703
1710812097033,15412.994208579417
1710812097073,15280.441461687908
1710812097114,12077.142456464004
1710812097155,7726.393582135905
1710812097194,4269.831802346511
1710812097234,2602.1853118613362
1710812097274,2126.3025225950405
1710812097314,2648.363229229115
1710812097355,3675.34239994199
1710812097394,4209.404756185599
1710812097434,4365.413054989185
1710812097474,3772.269817272667
1710812097515,3461.429122593254
1710812097555,4195.175591218285
1710812097595,5276.751587131992
1710812097635,6393.147867934778
1710812097675,7585.427568470128
1710812097715,9325.955672464333
1710812097756,10326.614563791081
1710812097795,11334.199233190157
1710812097835,12188.506199062336
1710812097875,13245.843143613543
1710812097915,12983.628574878443
1710812097956,8398.455340165645
1710812097996,3445.62331735529
1710812098036,622.4185131983832
1710812098076,-595.470294712577
1710812098116,-869.7272612946108
1710812098157,-217.74537951638922
1710812098196,-264.9993748781271
1710812098236,-677.0923337156419
1710812098276,-624.7881350335665
1710812098316,-1116.3998952768743
1710812098357,-263.70318276411854
1710812098397,1311.4481757180765
1710812098437,1927.473174376879
1710812098477,3825.3691325159743
1710812098517,4807.162859233096
1710812098558,6275.897556252312
1710812098597,7582.563631494064
1710812098637,8482.773541058647
1710812098677,9379.149727173615
1710812098718,10544.889168364462
1710812098758,10547.142311930656
1710812098798,6602.064958086703
1710812098838,1799.1633907132782
1710812098878,-1534.7301640822552
1710812098918,-3051.2336319778115
1710812098959,-3229.046736298362
1710812098998,-3217.446483564563
1710812099038,-2736.913244550349
1710812099079,-2799.0050628460012
1710812099119,-3383.1750211860053
1710812099160,-3498.8559009307064
1710812099199,-3442.4722078908235
1710812099239,-2190.0677378051914
1710812099279,-1044.6125541739166
1710812099319,-103.88177389255725
1710812099360,1430.585199885536
1710812099399,3118.944504758576
1710812099440,4349.014746784233
1710812099480,5704.260723333806
1710812099520,6974.128662579227
1710812099561,8122.8740263485815
1710812099600,7947.886256738333
1710812099640,3388.460250769509
1710812099680,-1882.8421391204465
1710812099720,-5256.1413213368505
1710812099761,-6965.283047538716
1710812099801,-6714.963634755928
1710812099841,-6252.932011558674
1710812099881,-5851.419453926617
1710812099921,-5916.045020109508
1710812099962,-6314.112704714062
1710812100001,-6589.444461406674
1710812100041,-6512.060728321783
1710812100081,-5729.916719717439
1710812100122,-4594.718477254733
1710812100163,-2977.9965326110832
1710812100202,-1788.945979293203
1710812100242,-438.1732664895244
1710812100282,852.8086707107723
1710812100322,2489.974728354253
1710812100363,3473.753073441796
1710812100403,5008.502387402579
1710812100443,5057.623740009032
1710812100483,1004.12067602342
1710812100523,-3926.6374053806067
1710812100564,-7024.124465518864
1710812100603,-8282.647612899076
1710812100643,-8346.692416544072
1710812100683,-7695.776520827087
1710812100723,-7221.9376063989475
1710812100764,-7071.4073449024
1710812100804,-7619.791753624566
1710812100844,-7905.327342114877
1710812100884,-7416.723307074746
1710812100924,-6437.456436763983
1710812100965,-5230.841645970009
1710812101005,-3278.7459190348163
1710812101045,-2061.9737625760026
1710812101085,-603.0393314198591
1710812101125,695.2442378089763
1710812101166,2376.222607175354
1710812101205,4032.832944046939
1710812101245,4835.345120924292
1710812101286,3393.7682609241456
1710812101326,-1450.4465175452642
1710812101367,-6515.975608130917
1710812101406,-8703.937457532622
1710812101446,-9837.376962647308
1710812101486,-9481.780221361201
1710812101526,-8823.875051292125
1710812101567,-8198.856842107605
1710812101607,-9228.381410674192
1710812101647,-9056.187261324143
1710812101687,-9524.422781870235
1710812101727,-8734.234811034054
1710812101768,-7402.424034619471
1710812101808,-5827.8665121961385
1710812101848,-4189.120826264378
1710812101888,-2703.9501913210843
1710812101928,-1550.1178756104782
1710812101969,-246.311549032107
1710812102008,665.053552665282
1710812102048,2198.831575452583
1710812102088,3785.8025071616285
1710812102128,882.8566106040962
1710812102169,-4039.9151167697273
1710812102209,-7924.727329724468
1710812102249,-9801.384955818066
1710812102289,-10384.174734377768
1710812102329,-9345.793328308035
1710812102369,-8467.160270800348
1710812102409,-8564.520461225184
1710812102449,-9206.397327390965
1710812102489,-9707.98635676317
1710812102529,-9268.413003736874
1710812102570,-8244.56088822172
1710812102609,-6502.74668340385
1710812102649,-4726.671263817931
1710812102690,-3503.1738236765377
1710812102729,-2448.8450108792167
1710812102770,-828.5021233982407
1710812102810,-32.472999712917954
1710812102850,1169.9374900297262
1710812102890,2996.7981946067885
1710812102930,1831.2213215737138
1710812102971,-2768.419053868158
1710812103010,-6825.506633390207
1710812103050,-8720.415765737649
1710812103090,-9394.11893720436
1710812103130,-9325.16919853026
1710812103171,-8205.42751383828
1710812103210,-7533.987068521092
1710812103251,-8116.135510590393
1710812103291,-7848.521598548628
1710812103331,-7450.067943931557
1710812103371,-7122.1027567265555
1710812103411,-6226.324780921917
1710812103451,-4915.811756428797
1710812103491,-3248.2201163247228
1710812103531,-1980.5772588700056
1710812103572,-632.3457676107064
1710812103611,478.1364751351066
1710812103651,1316.4940750221722
1710812103691,3087.17996743042
1710812103731,1477.0018974230625
1710812103772,-3218.7037130387034
1710812103812,-6924.47193565825
1710812103852,-8732.991879174951
1710812103892,-9067.667999783065
1710812103932,-8456.348345191684
1710812103973,-7188.300993195968
1710812104012,-6292.971343531273
1710812104052,-6296.6989655089565
1710812104092,-6104.7101896426175
1710812104132,-6318.8931739002
1710812104173,-5448.771342995111
1710812104213,-4257.515129107982
1710812104253,-2446.79404976801
1710812104293,-925.2037522972096
1710812104333,723.2228488815017
1710812104374,1933.5525244658347
1710812104413,3506.4334422028624
1710812104453,5060.547909754794
1710812104493,3354.668065341655
1710812104533,-1540.9988712850027
1710812104574,-5843.877722315723
1710812104614,-8533.712011149153
1710812104654,-9597.382266670931
1710812104694,-9263.78044677293
1710812104734,-8455.514310893137
1710812104775,-7904.999274482019
1710812104814,-7883.298844984267
1710812104854,-8018.2843364703
1710812104894,-7635.463057067245
1710812104934,-6038.270582818193
1710812104975,-4993.197363779414
1710812105014,-3395.714512559818
1710812105055,-1724.8639858304523
1710812105095,-144.78150438284501
1710812105135,1624.652152577648
1710812105176,2824.122824148275
1710812105215,4416.985158361727
1710812105255,4946.903500852408
1710812105295,911.1841850006022
1710812105335,-4927.5654013645835
1710812105376,-8938.530404595658
1710812105415,-10360.171329593286
1710812105456,-11208.691554600373
1710812105496,-10508.882125138538
1710812105536,-9559.656253488036
1710812105577,-9627.770478587365
1710812105616,-10557.927058564499
1710812105656,-10531.749529294204
1710812105696,-10013.408048764803
1710812105736,-8068.730656111147
1710812105777,-6132.794948722236
1710812105817,-4165.633485926548
1710812105857,-2430.413593354635
1710812105897,-533.8604772314429
1710812105937,1362.2900870149024
1710812105978,2897.775746114552
1710812106017,4557.3360679950565
1710812106057,6527.891392342746
1710812106097,4681.371183236595
1710812106137,-755.3687616339885
1710812106178,-4699.61632315279
1710812106218,-7085.840535390889
1710812106258,-7792.137196590193
1710812106298,-7631.3351090094075
1710812106338,-6386.236799253151
1710812106379,-5745.104183157673
1710812106418,-5519.396942073945
1710812106458,-5692.916944084456
1710812106498,-5620.552674979204
1710812106539,-4498.018878882052
1710812106579,-3169.5367182800546
1710812106619,-1124.2562375147827
1710812106659,1104.982388493605
1710812106699,2976.092096483102
1710812106739,4781.180965504609
1710812106780,6654.401039410848
1710812106819,7391.702051675413
1710812106859,9539.631121105049
1710812106900,11792.68181148544
1710812106940,11298.404165768065
1710812106980,6478.939549868461
1710812107020,1419.5828313233797
1710812107060,-1207.8532251215074
1710812107100,-1607.6650435405318
1710812107140,-1163.2969614453614
1710812107181,-717.6216054987162
1710812107221,-58.99341325531714
1710812107261,39.87241883785464
1710812107301,-240.90608805045485
1710812107341,-278.1669600107707
1710812107382,591.0105717775878
1710812107421,1648.993413189659
1710812107461,3098.4452558546327
1710812107502,4510.727380805649
1710812107542,6246.66593279643
1710812107582,7343.192876805551
1710812107622,8750.619858425809
1710812107662,10469.53144438751
1710812107702,11490.161593024619
1710812107742,12576.069806370419
1710812107783,13760.306612106739
1710812107823,9714.29410051182
1710812107863,5613.756297725253
1710812107903,2744.6186268406454
1710812107943,1427.088411411969
1710812107984,1561.8412489099428
1710812108023,2774.011706237681
1710812108066,3313.7326696543023
1710812108103,4396.562405682867
1710812108144,3867.396619605366
1710812108184,3298.984488049289
1710812108224,3883.551205218537
1710812108264,5190.742467596196
1710812108304,6929.663526992314
1710812108344,8537.954768733587
1710812108385,9781.576890490018
1710812108425,11282.406829038635
1710812108465,13133.704431287246
1710812108505,14135.884636607952
1710812108545,15555.758969726041
1710812108586,17165.8399966266
1710812108625,18037.020392338512
1710812108665,14636.015925868182
1710812108706,10876.280395397684
1710812108746,8226.67855738895
1710812108787,7763.780988852959
1710812108826,7388.676774998661
1710812108866,8261.266645643627
1710812108906,8907.394762775162
1710812108946,8576.758678842336
1710812108987,8267.437270342605
1710812109027,8197.775873430539
1710812109067,8034.210064706625
1710812109107,9117.532751269639
1710812109147,10107.641876920592
1710812109188,11033.75747419335
1710812109227,12670.222486031707
1710812109267,15310.43202174548
1710812109307,15821.621803895105
1710812109347,17228.903994943714
1710812109388,18043.04799156706
1710812109428,15814.965192396194
1710812109468,12549.631097890437
1710812109508,9131.3701741884
1710812109548,7546.395813036943
1710812109589,7228.8018669309095
1710812109628,7844.831479432294
1710812109668,8812.056320016505
1710812109708,8808.569475313649
1710812109748,8066.438273117412
1710812109789,8029.368572426727
1710812109829,7774.382345629623
1710812109869,8320.141214044765
1710812109909,9178.918372214306
1710812109949,10505.432398599805
1710812109990,12110.240004937164
1710812110029,12644.72400494432
1710812110069,13210.655447688187
1710812110109,14266.226935395272
1710812110150,15431.077041396173
1710812110190,15312.80563100893
1710812110230,11020.79627948068
1710812110273,7134.463656690903
1710812110310,4946.784700637916
1710812110350,4497.412244684994
1710812110391,4502.315008630045
1710812110430,5860.736060906667
1710812110470,6321.966249827528
1710812110510,6258.401516617974
1710812110550,6193.982700142078
1710812110591,6281.538257091772
1710812110631,6715.237009319942
1710812110671,7248.018836476142
1710812110711,8354.97466218099
1710812110751,8824.80183169432
1710812110792,10116.175558716524
1710812110831,11423.268289180007
1710812110871,12499.35769842472
1710812110911,13462.112258262467
1710812110951,14040.89380334015
1710812110992,11325.613251870964
1710812111032,6849.999526103027
1710812111072,3377.129679893609
1710812111112,1828.5543169460725
1710812111152,1005.6187531875912
1710812111193,820.9967112299055
1710812111232,1764.0812716637738
1710812111272,1342.4818429674488
1710812111312,661.1544958474115
1710812111353,443.87929293117486
1710812111393,828.8039387122262
1710812111433,959.7020191312768
1710812111473,2352.086909422651
1710812111513,3946.398441217607
1710812111553,5238.194029965438
1710812111594,6164.593431624584
1710812111633,7238.6803788146935
1710812111673,8181.72652219329
1710812111714,9239.318559562322
1710812111754,9072.000466407742
1710812111794,4854.852508178446
1710812111834,-219.45620388071984
1710812111874,-3231.979644261766
1710812111914,-4742.824852725491
1710812111954,-4873.323119487381
1710812111995,-4228.658516365103
1710812112034,-3109.582615817664
1710812112074,-3042.209051047452
1710812112114,-4014.0440975152887
1710812112155,-4584.832366381772
1710812112196,-4310.340839774581
1710812112235,-3834.088705639355
1710812112275,-2581.5288313087076
1710812112315,-1797.9679773976095
1710812112355,-933.858526205644
1710812112396,690.4154765957501
1710812112436,2515.1489700037055
1710812112476,4171.939383128658
1710812112516,5040.947503836127
1710812112556,5713.2582634973805
1710812112597,2119.1822233558632
1710812112636,-2370.5893178633414
1710812112676,-4943.688228163868
1710812112716,-5734.402628339361
1710812112756,-5737.840884681791
1710812112797,-5042.734430683544
1710812112837,-4537.78740854701
1710812112877,-4528.162197457161
1710812112917,-4445.670157244895
1710812112957,-4615.428272078047
1710812112998,-4237.707331533078
1710812113037,-2867.877260452602
1710812113077,-1555.069763905136
1710812113117,-97.1258487526793
1710812113157,1554.6538671031594
1710812113198,2570.1197820082307
1710812113237,3670.1812614363153
1710812113278,4592.10890101688
1710812113318,6132.905687437858
1710812113358,6338.181398576824
1710812113399,3229.1829587332904
1710812113438,-294.1546308766119
1710812113478,-2924.789816419594
1710812113518,-4001.7701983614825
1710812113558,-3993.8993775127456
1710812113599,-2766.942771124188
1710812113639,-1506.9828662350774
1710812113679,-1682.284270268632
1710812113719,-2556.6219957177527
1710812113759,-2425.5645212882664
1710812113800,-2281.779206009349
1710812113839,-1959.1611134137493
1710812113879,-94.20100832683966
1710812113919,1322.6417651958764
1710812113960,1889.0455884924158
1710812114001,3447.49776802375
1710812114040,4236.533982920228
1710812114080,5639.858073834563
1710812114120,6422.489756507566
1710812114160,3707.3947080662474
1710812114201,-676.0476188659668
1710812114241,-2822.093544103671
1710812114281,-3910.7434314587153
1710812114321,-3496.039128818549
1710812114361,-2124.8487731926143
1710812114402,-1491.934410143178
1710812114441,-1496.4419216839597
1710812114481,-896.4784455583431
1710812114521,-432.708939217031
1710812114562,349.9711394328624
1710812114603,473.17434579040855
1710812114642,2321.6919117816724
1710812114682,4441.849555026041
1710812114722,6001.460863377433
1710812114762,6577.157174825203
1710812114803,7612.494509530952
1710812114843,8292.275540617062
1710812114883,9585.630984243471
1710812114923,8549.702518652193
1710812114963,4518.248564580921
1710812115004,1284.658973397687
1710812115043,-456.1461159037426
1710812115083,-540.9646034494508
1710812115123,312.2610055441037
1710812115164,672.7366230171174
1710812115205,1199.5418841799255
1710812115244,880.3424361865036
1710812115284,64.30808025225997
1710812115324,-92.42289701430127
1710812115364,-461.6472510583699
1710812115405,457.8048917292617
1710812115445,1376.0627281523775
1710812115485,3065.8020781534724
1710812115525,3922.078815460438
1710812115565,5838.502596199978
1710812115606,6184.392570041353
1710812115645,7093.277776585193
1710812115685,8721.409410915338
1710812115725,7342.81881833775
1710812115766,2452.7238555429503
1710812115807,-1621.5787671462167
1710812115846,-3805.999641294591
1710812115886,-3932.9158452730626
1710812115926,-4078.8605713448487
1710812115966,-4026.4596097692847
1710812116007,-3623.8293191343546
1710812116047,-2787.753276976524
1710812116087,-2905.297787352465
1710812116127,-2382.6601399981882
1710812116167,-1974.771606808994
1710812116208,-995.7686911639757
1710812116247,263.86753901513293
1710812116287,1888.3343525049277
1710812116327,3440.6850897278637
1710812116367,5082.333011399023
1710812116408,5853.146326238755
1710812116448,6974.170623750659
1710812116488,8120.247872965876
1710812116528,6920.717799872626
1710812116568,2439.327599686105
1710812116609,-723.2215440366417
1710812116648,-2531.63130617328
1710812116688,-2866.798464247491
1710812116728,-2796.1114281285554
1710812116768,-1920.1434167812113
1710812116809,-1417.0123053742573
1710812116849,-1476.140482752584
1710812116889,-1405.6979516251013
1710812116929,-1448.5354553502984
1710812116969,-969.4306213073432
1710812117010,-87.88378936308436
1710812117049,926.4198466595262
1710812117089,2583.337127723964
1710812117129,3737.807127390988
1710812117169,5423.418974509463
1710812117210,6650.19019888388
1710812117250,7917.069380997447
1710812117290,9172.549990714993
1710812117330,8892.768321790034
1710812117370,4856.591482929885
1710812117411,1095.8502703313716
1710812117450,-1458.7763061854057
1710812117490,-2421.928761349758
1710812117530,-2150.977180286078
1710812117570,-1200.796824744437
1710812117611,-544.9811450014822
1710812117651,-845.3975075071212
1710812117691,-552.5889593337197
1710812117731,-776.9976251097396
1710812117771,-535.5292516956106
1710812117812,355.705921608489
1710812117851,1862.195648952853
1710812117891,2784.515033266507
1710812117931,4206.774335654918
1710812117972,5453.071876798291
1710812118012,7093.56187903625
1710812118052,7752.7938509690575
1710812118092,9198.352660663892
1710812118132,9776.712044178974
1710812118172,6240.007457296597
1710812118213,2716.688588393852
1710812118252,45.39620175934397
1710812118292,-794.1860790885985
1710812118333,-774.8164594750851
1710812118373,517.9568648440763
1710812118413,1979.9753093239851
1710812118453,1897.5664515395183
1710812118493,1795.608376806369
1710812118533,1082.6683181622066
1710812118573,1043.3441375368275
1710812118614,2359.3779135243967
1710812118653,4051.8973860228434
1710812118693,5405.939231459983
1710812118733,7027.937798196683
1710812118774,8737.927918444853
1710812118814,9549.999732275493
1710812118854,10111.68596582883
1710812118894,11408.873748676851
1710812118934,12020.330455074087
1710812118974,9348.41222956567
1710812119015,4899.246896413388
1710812119055,1690.1976971947588
1710812119095,-234.76438806951046
1710812119135,-600.2909076963551
1710812119175,-183.90722936904058
1710812119216,547.1100518750027
1710812119255,396.5497941460926
1710812119295,-253.64763324102387
1710812119335,-319.48568516853265
1710812119375,-292.4612841778435
1710812119416,-256.7269031838514
1710812119456,859.4644963536412
1710812119496,1503.4213992920704
1710812119536,2488.7072823382914
1710812119576,3581.3087621605955
1710812119617,4908.546387041919
1710812119657,5822.370641666232
1710812119696,6700.025353794685
1710812119737,7669.367326645181
1710812119777,5148.885870686965
1710812119818,1045.9956180676818
1710812119857,-2013.4750762963668
1710812119897,-4611.1405536555685
1710812119937,-5445.866344724316
1710812119977,-5015.463627803605
1710812120018,-4339.795154256746
1710812120058,-4748.240612751106
1710812120098,-5568.008285192307
1710812120138,-5912.9528258848
1710812120178,-6508.63429521909
1710812120219,-6009.358383706771
1710812120258,-5728.838638054673
1710812120298,-4494.304400548106
1710812120339,-3666.627777328249
1710812120379,-2766.4004070574883
1710812120420,-1958.97939394298
1710812120459,-502.56376000726596
1710812120499,58.28331679198891
1710812120539,-2375.892554804217
1710812120579,-6350.509870265843
1710812120620,-9353.20105148293
1710812120660,-11044.954310937785
1710812120700,-10379.412301893346
1710812120740,-9052.645873115165
1710812120780,-8481.129373486387
1710812120821,-8426.77398560266
1710812120861,-9061.487633106532
1710812120901,-9149.218871194636
1710812120941,-8878.715845713858
1710812120981,-8011.338594672037
1710812121022,-6991.067387625575
1710812121061,-5367.306774022058
1710812121101,-3840.1797538278624
1710812121141,-2711.3472338388674
1710812121181,-1099.6344438493252
1710812121222,184.57245221338235
1710812121262,-2212.705314517021
1710812121302,-7393.552079036133
1710812121342,-11305.650874970015
1710812121382,-12727.120326652192
1710812121423,-13083.868713706732
1710812121463,-11980.29638907453
1710812121503,-11194.119400235824
1710812121543,-10542.632578323595
1710812121583,-11153.61552209733
1710812121624,-11595.642885244451
1710812121663,-10833.723823378328
1710812121704,-9732.133043386275
1710812121744,-8589.05608247919
1710812121784,-7276.112991004018
1710812121825,-5385.051879778039
1710812121864,-3911.877258050721
1710812121904,-3225.222070890013
1710812121944,-1875.3609890746884
1710812121985,-853.0231064865366
1710812122025,-3473.2654453259893
1710812122065,-8120.494777599815
1710812122105,-12104.209594712127
1710812122145,-13692.419518008363
1710812122185,-14505.01714875456
1710812122226,-14379.338953910163
1710812122266,-13798.952261340804
1710812122306,-13408.067354383646
1710812122346,-13933.388565925881
1710812122386,-15046.140991239808
1710812122427,-13939.305500512011
1710812122466,-12222.075436961139
1710812122506,-10394.408728721552
1710812122546,-8559.206308586756
1710812122586,-6261.683329705149
1710812122627,-4837.878975505009
1710812122667,-3680.9572855206206
1710812122707,-2356.2791006360203
1710812122747,-817.4921644702554
1710812122787,-2982.7482145666145
1710812122827,-7503.547609924804
1710812122867,-11191.273865307681
1710812122907,-12355.23770995508
1710812122947,-13667.558814201504
1710812122987,-13163.810201547109
1710812123028,-12675.69643449504
1710812123067,-11931.633252497762
1710812123107,-12442.81422821246
1710812123148,-12510.926111269742
1710812123188,-11930.197529728292
1710812123228,-10736.225715653505
1710812123268,-9527.524686241522
1710812123308,-7951.5112736627925
1710812123348,-5863.681443430949
1710812123388,-4061.9736194023862
1710812123429,-2702.962909975322
1710812123468,-684.3046436992008
1710812123508,733.7162761013024
1710812123549,2312.1824549278244
1710812123589,3718.36420588335
1710812123629,2160.4018219741993
1710812123669,-2131.858633846976
1710812123709,-5648.356822614092
1710812123749,-6841.654382753884
1710812123789,-7169.989455669187
1710812123830,-6703.2828544124495
1710812123869,-5931.607950138161
1710812123909,-5531.358177930582
1710812123949,-5849.374524414772
1710812123990,-5555.283373817569
1710812124030,-5844.401515977923
1710812124070,-4636.617213302758
1710812124110,-3077.872208690271
1710812124150,-1424.1555432514288
1710812124190,-257.2673418817576
1710812124231,1874.0587111434434
1710812124270,3359.3513685087673
1710812124310,4764.573132320773
1710812124351,5950.681462935638
1710812124390,6868.809302351903
1710812124431,5441.354779789923
1710812124471,1516.6862057885155
1710812124511,-1074.284236012958
1710812124551,-1842.223708835896
1710812124591,-1045.6936596122105
1710812124632,-245.80250869784504
1710812124671,1408.2527881115675
1710812124711,2991.863212504657
1710812124751,4311.535200882703
1710812124792,4928.994086381048
1710812124832,6017.910891204607
1710812124872,7988.368294156622
1710812124912,10309.755817241035
1710812124952,13520.126677683089
1710812124992,16268.951041856315
1710812125033,18570.073679224122
1710812125073,20747.428724811645
1710812125113,22219.94908317621
1710812125153,23747.365866810083
1710812125193,25407.65743114706
1710812125234,27134.176434061956
1710812125273,25356.549976414768
1710812125313,20688.666904498823
1710812125353,15997.332620377187
1710812125393,14436.974250604399
1710812125434,14562.227396038128
1710812125474,14650.086255519185
1710812125514,14730.377492809203
1710812125554,14678.263797276188
1710812125594,13918.909045333508
1710812125635,13519.568614545045
1710812125674,14453.377818857087
1710812125714,15604.965055925306
1710812125754,17123.661289399024
1710812125794,18089.85417551198
1710812125835,18457.584585263394
1710812125875,18616.24297186802
1710812125915,19226.853814328555
1710812125955,18804.90928097209
1710812125995,18168.99183513876
1710812126036,16453.273429474328
1710812126075,15622.793890622444
1710812126115,13189.20653124759
1710812126156,7076.423406604212
1710812126196,2035.1842850551475
1710812126236,-1820.1030495641753
1710812126276,-4437.003889138345
1710812126316,-5535.577186930692
1710812126356,-5692.219134903513
1710812126396,-5176.154340926558
1710812126437,-5642.322678113356
1710812126476,-6220.977473554201
1710812126517,-6828.573067129124
1710812126557,-6485.732015335932
1710812126597,-5375.115961119765
1710812126638,-4113.269938413985
1710812126677,-3463.1972004398704
1710812126717,-2795.3635550853796
1710812126757,-1532.1450844912324
1710812126797,317.0609779898077
1710812126838,1192.8361098878086
1710812126878,2916.708005395718
1710812126918,4203.158860505791
1710812126958,2082.6347706590313
1710812126998,-2455.1106049260125
1710812127039,-6538.658313043881
1710812127078,-8964.757055109134
1710812127118,-9272.053382129874
1710812127158,-8571.65907799406
1710812127198,-7332.452778266743
1710812127239,-7234.758773803711
1710812127279,-7874.687414964661
1710812127319,-8266.984489877708
1710812127359,-7821.203135221032
1710812127399,-7281.275415567448
1710812127440,-6172.104885503184
1710812127480,-4854.43231915636
1710812127520,-3060.9718827302568
1710812127560,-928.8574831003789
1710812127600,443.3435810392257
1710812127641,1317.0444108322263
1710812127680,2640.960175114684
1710812127720,4442.97939881403
1710812127760,4758.854021624196
1710812127801,1100.2271505841054
1710812127841,-3268.3440284123644
1710812127881,-6143.387713081669
1710812127921,-7369.697406045627
1710812127961,-7128.269986236002
1710812128001,-6437.753875911934
1710812128042,-5135.065167265013
1710812128081,-6201.133053373313
1710812128121,-6228.807326088892
1710812128162,-6630.137194619514
1710812128202,-6147.622084456962
1710812128242,-4939.111256510485
1710812128282,-3504.9647433836944
1710812128322,-1636.5590433066245
1710812128362,-372.8398620202206
1710812128402,996.1697435807437
1710812128443,1575.9870279282331
1710812128483,2858.5541899050586
1710812128523,3802.4315333724953
1710812128563,3905.5934133557603
1710812128603,541.9597351253033
1710812128644,-2998.669609165285
1710812128683,-5710.200162889902
1710812128723,-6116.194316964131
1710812128764,-5700.321201836225
1710812128804,-4415.8430873772595
1710812128845,-3315.2871136267204
1710812128884,-3357.468968681991
1710812128924,-3293.9212774434127
1710812128964,-3283.3700015982613
1710812129004,-2821.3903860454448
1710812129045,-1936.3308969847858
1710812129085,-56.0123308962211
1710812129125,1727.892726461636
1710812129165,2985.268480671104
1710812129205,4960.8276494266465
1710812129246,5984.72149290517
1710812129285,7078.110701142345
1710812129325,4838.594749795506
1710812129365,1035.1406377428211
1710812129405,-2338.2973215787206
1710812129446,-3568.3428790720645
1710812129486,-3835.0045050503686
1710812129526,-3238.4965442246757
1710812129566,-1899.8157088833395
1710812129606,-1952.048725885339
1710812129647,-1592.1560815207195
1710812129686,-1780.1432019607164
1710812129726,-936.4280188197736
1710812129766,-596.4589977066498
1710812129806,872.223051528912
1710812129847,2833.5688211161178
1710812129887,4758.978335626423
1710812129927,5963.245269782143
1710812129967,7400.247785649262
1710812130007,8821.388044531923
1710812130048,8818.782574536046
1710812130087,4467.563522269484
1710812130127,-450.59279396757483
1710812130167,-2821.3037488218397
1710812130207,-3382.856420726748
1710812130248,-3105.574199736351
1710812130288,-2740.025143749779
1710812130328,-1427.7581274900585
1710812130368,-1173.2484130570665
1710812130408,-1783.4033756928984
1710812130449,-1402.4243361863773
1710812130488,-1021.8805616931058
1710812130528,179.32052530604415
1710812130568,1412.6807503201999
1710812130608,2582.394050541334
1710812130649,4106.045709603932
1710812130689,5699.9663034444675
1710812130729,6174.048985699192
1710812130769,7879.307947236346
1710812130809,9136.806953136576
1710812130850,6092.525284244679
1710812130889,1522.2822869897354
1710812130929,-2510.256872703554
1710812130969,-3949.4881606756244
1710812131009,-3692.60417119693
1710812131050,-3109.324044768233
1710812131090,-1714.402947100345
1710812131130,-2098.512238016352
1710812131170,-2621.4885317082517
1710812131210,-2796.505622864235
1710812131251,-2499.9932994381525
1710812131290,-1745.1055389207322
1710812131330,-1333.3127881207038
1710812131370,254.9105723220855
1710812131410,2220.3976516244
1710812131451,3254.0649589425884
1710812131490,4008.254598554224
1710812131531,5086.094216465484
1710812131571,6766.768226788845
1710812131611,8161.076752929483
1710812131652,6444.057155197952
1710812131691,2642.9126576078124
1710812131731,-1855.475250544725
1710812131771,-3447.6208926797844
1710812131811,-4327.4913819052745
1710812131852,-3562.3886065203696
1710812131891,-3149.241781294346
1710812131932,-2331.5416774465702
1710812131972,-2548.0785798053257
1710812132012,-2304.691026167944
1710812132053,-2514.8268262681086
1710812132092,-2111.6058229312766
1710812132132,-534.0650673620403
1710812132172,448.4680274599232
1710812132212,2309.239798437804
1710812132253,3681.348618964199
1710812132292,4819.2291753194295
1710812132332,5877.418770057149
1710812132373,6140.528358436655
1710812132413,7631.6064348963555
1710812132453,8868.149375186302
1710812132493,6900.259833599441
1710812132533,2584.170477571897
1710812132573,-1050.14274490159
1710812132613,-2605.015062643215
1710812132654,-2737.916908951942
1710812132693,-2649.580150367925
1710812132733,-1498.4133509108797
1710812132774,-965.35091758403
1710812132814,-1100.822567035677
1710812132854,-1626.9899519411847
1710812132894,-2057.1409916139673
1710812132934,-1266.198773629032
1710812132974,-950.268503993284
1710812133014,194.75331348273903
1710812133055,1145.9990744015668
1710812133094,2350.1806045975536
1710812133135,2730.663862172514
1710812133175,4788.935403576121
1710812133215,6385.965949756093
1710812133256,7454.154307510937
1710812133295,5757.145449227653
1710812133335,2055.009287752211
1710812133375,-1185.9645927385427
1710812133415,-3121.066991611384
1710812133456,-3187.6676888982765
1710812133496,-2376.1090902362484
1710812133536,-1181.4371989122592
1710812133576,-1148.3067836861592
1710812133616,-567.8075020397082
1710812133657,-994.7812912422232
1710812133696,-1094.373339066049
1710812133736,-1165.7705351528712
1710812133776,-342.2157497073058
1710812133816,620.1511842003092
1710812133857,1432.0179040539078
1710812133897,2438.7812042599544
1710812133937,4556.344438676024
1710812133977,5954.15492918808
1710812134017,8090.712497097906
1710812134058,7672.954195373692
1710812134097,3726.0132806343026
1710812134137,-264.21176747675054
1710812134177,-1829.8039286960848
1710812134218,-1727.7438515773974
1710812134258,-785.4361037560739
1710812134298,939.351954179816
1710812134338,1832.6038525931071
1710812134378,2276.0563415521756
1710812134418,2460.4627598589286
1710812134459,1897.3047184972093
1710812134498,2074.2760328687727
1710812134538,2761.0716818934307
1710812134579,4187.06861065398
1710812134619,5099.620237754192
1710812134659,6763.926169441314
1710812134699,8249.152658377774
1710812134739,9353.294362024171
1710812134779,10586.915076130535
1710812134819,11505.746351959882
1710812134860,10347.563698873855
1710812134899,5122.479630166898
1710812134940,1536.9415493393317
1710812134980,-517.3713341883849
1710812135020,-1213.1427495935932
1710812135061,-793.2087078674231
1710812135100,-358.537179550156
1710812135140,-191.7298664166592
1710812135180,-267.9971182299778
1710812135220,-1467.2938878764398
1710812135261,-1149.8403913294896
1710812135301,-1279.4307878515683
1710812135341,-468.5374076855369
1710812135381,615.3464630781673
1710812135421,1757.939226419432
1710812135462,3515.868385202717
1710812135501,4464.382436078275
1710812135541,5308.461163524538
1710812135581,6412.437081430806
1710812135622,7479.696228116751
1710812135663,6128.249516169075
1710812135702,1387.3102331385016
1710812135742,-2371.8401114954613
1710812135782,-5427.43309274083
1710812135822,-6369.075924041681
1710812135863,-6048.613620491466
1710812135903,-5238.551266796887
1710812135943,-4932.779266927857
1710812135983,-4575.786248984281
1710812136023,-5004.19623107207
1710812136064,-5153.033528042724
1710812136103,-4493.438841195311
1710812136143,-4313.503893681802
1710812136183,-2852.4308080733754
1710812136224,-1111.4585285373032
1710812136265,334.87054964271374
1710812136304,2001.8431281610392
1710812136344,3435.5722061493434
1710812136384,4459.024998553563
1710812136424,6508.1005079611205
1710812136465,3285.3372371376026
1710812136504,-694.5114114123862
1710812136544,-3977.8321633646265
1710812136584,-5212.333694364876
1710812136625,-5139.879744673846
1710812136665,-3819.8438410745002
1710812136705,-2689.3038764540106
1710812136745,-2780.117947838269
1710812136785,-3408.5939105316065
1710812136825,-3716.8238802538253
1710812136866,-3670.291708939243
1710812136905,-3140.624511485221
1710812136945,-2171.6098922546953
1710812136985,-444.5332361413166
1710812137025,786.6836586471181
1710812137066,2384.083686736878
1710812137106,3119.623100985773
1710812137145,4141.7139387945645
1710812137186,5406.517967093736
1710812137226,5252.4992442238145
1710812137266,928.4725830045063
1710812137306,-2575.5245662163943
1710812137346,-5343.597223091405
1710812137386,-6006.769773609936
1710812137426,-5012.628480555955
1710812137467,-3843.4745760310907
1710812137507,-2994.942628401099
1710812137547,-3558.90840252419
1710812137587,-4251.064821171109
1710812137627,-4266.234258944867
1710812137668,-3440.69843514706
1710812137707,-2700.434008768527
1710812137747,-1539.5266848395113
1710812137787,-247.42349030822515
1710812137827,923.0014014355838
1710812137868,1657.7453739712946
1710812137907,2695.4716127631254
1710812137948,3474.419168252498
1710812137988,1240.7679191459902
1710812138028,-2914.922968828352
1710812138069,-6467.415932299569
1710812138108,-7914.484609661158
1710812138148,-8634.600867285393
1710812138188,-7989.628136419691
1710812138228,-6772.734963162569
1710812138269,-6582.048982390435
1710812138309,-6805.940049810102
1710812138349,-7184.257119157352
1710812138389,-6714.578725784551
1710812138429,-5518.969217745587
1710812138470,-4636.042022493668
1710812138509,-3731.9732114502694
1710812138549,-1790.5844296561554
1710812138589,-713.7269638767466
1710812138630,530.7147030080669
1710812138671,2365.496435099747
1710812138710,1632.6665573329665
