dataReceived,timestamp,ppg,status
1711417134798,1711417122748,2097152,0
1711417134798,1711417122787,2371475,0
1711417134798,1711417122827,2371581,0
1711417134798,1711417122867,2371673,0
1711417134798,1711417122908,2371712,0
1711417134798,1711417122949,2371821,0
1711417134798,1711417122988,2371888,0
1711417134798,1711417123028,2372035,0
1711417134798,1711417123068,2372244,0
1711417134798,1711417123108,2372572,0
1711417134798,1711417123149,2120656,0
1711417134798,1711417123188,2120845,0
1711417134798,1711417123228,2121303,0
1711417134798,1711417123268,2121610,0
1711417134798,1711417123308,2121955,0
1711417134798,1711417123349,2115420,0
1711417134798,1711417123389,2116066,0
1711417134798,1711417123429,2116689,0
1711417134798,1711417123469,2116483,0
1711417134798,1711417123509,2115481,0
1711417134798,1711417123550,2063881,0
1711417134798,1711417123589,2062509,0
1711417134798,1711417123629,2061710,0
1711417134798,1711417123669,2061419,0
1711417134798,1711417123709,2061296,0
1711417134798,1711417123750,2061253,0
1711417134798,1711417123789,2061246,0
1711417134798,1711417123829,2061687,0
1711417134798,1711417123870,2062455,0
1711417134798,1711417123910,2063670,0
1711417134798,1711417123953,2064920,0
1711417134798,1711417123990,2066298,0
1711417134798,1711417124030,2067931,0
1711417134798,1711417124070,2069568,0
1711417134798,1711417124110,2071205,0
1711417134798,1711417124151,2072940,0
1711417134798,1711417124191,2074778,0
1711417134798,1711417124231,2076801,0
1711417134798,1711417124271,2077945,0
1711417134798,1711417124311,2076800,0
1711417134798,1711417124352,2074904,0
1711417134798,1711417124391,2073677,0
1711417134798,1711417124431,2072995,0
1711417134798,1711417124471,2072813,0
1711417134798,1711417124511,2072915,0
1711417134798,1711417124552,2073007,0
1711417134798,1711417124592,2073125,0
1711417134798,1711417124632,2073528,0
1711417134798,1711417124672,2073602,0
1711417134798,1711417124712,2072581,0
1711417134798,1711417124753,2069963,0
1711417134798,1711417124792,2067646,0
1711417134798,1711417124832,2065140,0
1711417134798,1711417124872,2062697,0
1711417134798,1711417124912,2061753,0
1711417134798,1711417124954,2061686,0
1711417134798,1711417124992,2062149,0
1711417134798,1711417125033,2063278,0
1711417134798,1711417125073,2063974,0
1711417134798,1711417125113,2063966,0
1711417134798,1711417125154,2064236,0
1711417134798,1711417125193,2065377,0
1711417134798,1711417125233,2067521,0
1711417134798,1711417125273,2070849,0
1711417134798,1711417125314,2075581,0
1711417134798,1711417125354,2081456,0
1711417134798,1711417125394,2087094,0
1711417134798,1711417125434,2092884,0
1711417134798,1711417125474,2098559,0
1711417134798,1711417125514,2103496,0
1711417134798,1711417125555,2108143,0
1711417134798,1711417125594,2112679,0
1711417134798,1711417125634,2116890,0
1711417134798,1711417125675,2120804,0
1711417134798,1711417125714,2124369,0
1711417134798,1711417125756,2127565,0
1711417134798,1711417125795,2130956,0
1711417134798,1711417125835,2134196,0
1711417134798,1711417125875,2136925,0
1711417134798,1711417125915,2137782,0
1711417134798,1711417125956,2137518,0
1711417134798,1711417125995,2137616,0
1711417134798,1711417126035,2138030,0
1711417134798,1711417126075,2138614,0
1711417134798,1711417126115,2139771,0
1711417134798,1711417126159,2141359,0
1711417134798,1711417126196,2142459,0
1711417134798,1711417126236,2143950,0
1711417134798,1711417126276,2146135,0
1711417134798,1711417126316,2148439,0
1711417134798,1711417126357,2151024,0
1711417134798,1711417126397,2153834,0
1711417134798,1711417126436,2156844,0
1711417134798,1711417126476,2160255,0
1711417134798,1711417126517,2163499,0
1711417134798,1711417126558,2166387,0
1711417134798,1711417126597,2169327,0
1711417134798,1711417126637,2172615,0
1711417134798,1711417126677,2174696,0
1711417134798,1711417126717,2174740,0
1711417134798,1711417126758,2174221,0
1711417134798,1711417126797,2173965,0
1711417134798,1711417126837,2174184,0
1711417134798,1711417126878,2174910,0
1711417134798,1711417126918,2176417,0
1711417134798,1711417126959,2178181,0
1711417134798,1711417126998,2180316,0
1711417134798,1711417127038,2182109,0
1711417134798,1711417127078,2183628,0
1711417134798,1711417127118,2185529,0
1711417134798,1711417127159,2187210,0
1711417134798,1711417127198,2189061,0
1711417134798,1711417127239,2190664,0
1711417134798,1711417127279,2192449,0
1711417134798,1711417127319,2194347,0
1711417134798,1711417127360,2196182,0
1711417134798,1711417127399,2198043,0
1711417134798,1711417127439,2198374,0
1711417134798,1711417127479,2195777,0
1711417134798,1711417127519,2192810,0
1711417134798,1711417127560,2190519,0
1711417134798,1711417127600,2188806,0
1711417134798,1711417127640,2187947,0
1711417134798,1711417127680,2187291,0
1711417134798,1711417127720,2186528,0
1711417134798,1711417127761,2185745,0
1711417134798,1711417127800,2185040,0
1711417134798,1711417127840,2184776,0
1711417134798,1711417127880,2185047,0
1711417134798,1711417127920,2185219,0
1711417134798,1711417127961,2185811,0
1711417134798,1711417128000,2186352,0
1711417134798,1711417128041,2187108,0
1711417134798,1711417128081,2186693,0
1711417134798,1711417128121,2185995,0
1711417134798,1711417128162,2184600,0
1711417134798,1711417128201,2180428,0
1711417134798,1711417128241,2176561,0
1711417134798,1711417128281,2174503,0
1711417134798,1711417128321,2175413,0
1711417134798,1711417128362,2177515,0
1711417134798,1711417128401,2179192,0
1711417134798,1711417128441,2179195,0
1711417134798,1711417128481,2178213,0
1711417134798,1711417128521,2177265,0
1711417134798,1711417128563,2176753,0
1711417134798,1711417128602,2176523,0
1711417134798,1711417128642,2176996,0
1711417134798,1711417128682,2177357,0
1711417134798,1711417128722,2177810,0
1711417134798,1711417128763,2178552,0
1711417134798,1711417128802,2179408,0
1711417134798,1711417128842,2180521,0
1711417134798,1711417128882,2181422,0
1711417134798,1711417128922,2179802,0
1711417134798,1711417128963,2175381,0
1711417134798,1711417129002,2170704,0
1711417134798,1711417129043,2167369,0
1711417134798,1711417129083,2164405,0
1711417134798,1711417129123,2162384,0
1711417134798,1711417129164,2160989,0
1711417134798,1711417129203,2159595,0
1711417134798,1711417129243,2158151,0
1711417134798,1711417129283,2157097,0
1711417134798,1711417129323,2156666,0
1711417134798,1711417129364,2156510,0
1711417134798,1711417129403,2156851,0
1711417134798,1711417129443,2157344,0
1711417134798,1711417129483,2157844,0
1711417134798,1711417129524,2158857,0
1711417134798,1711417129565,2159728,0
1711417134798,1711417129604,2160801,0
1711417134798,1711417129644,2161917,0
1711417134798,1711417129684,2160221,0
1711417134798,1711417129724,2155217,0
1711417134798,1711417129765,2150185,0
1711417134798,1711417129804,2146285,0
1711417134798,1711417129844,2142996,0
1711417134798,1711417129884,2140639,0
1711417134798,1711417129924,2138847,0
1711417134798,1711417129965,2137194,0
1711417134798,1711417130005,2135280,0
1711417134798,1711417130045,2133888,0
1711417134798,1711417130085,2133098,0
1711417134798,1711417130125,2132677,0
1711417134798,1711417130166,2132693,0
1711417134798,1711417130205,2132990,0
1711417134798,1711417130245,2133452,0
1711417134798,1711417130285,2134247,0
1711417134798,1711417130325,2135130,0
1711417134798,1711417130366,2136306,0
1711417134798,1711417130405,2137671,0
1711417134798,1711417130446,2138798,0
1711417134798,1711417130486,2136044,0
1711417134798,1711417130526,2131200,0
1711417134798,1711417130567,2127330,0
1711417134798,1711417130606,2124724,0
1711417134798,1711417130646,2122918,0
1711417134798,1711417130686,2122192,0
1711417134798,1711417130726,2121394,0
1711417134798,1711417130767,2120319,0
1711417134798,1711417130806,2119380,0
1711417134798,1711417130846,2119058,0
1711417134798,1711417130886,2119164,0
1711417134798,1711417130927,2119708,0
1711417134798,1711417130968,2120637,0
1711417134798,1711417131007,2121689,0
1711417134798,1711417131047,2122645,0
1711417134798,1711417131087,2124025,0
1711417134798,1711417131127,2125588,0
1711417134798,1711417131168,2127272,0
1711417134798,1711417131207,2128175,0
1711417134798,1711417131247,2125717,0
1711417134798,1711417131288,2121908,0
1711417134798,1711417131328,2119251,0
1711417134798,1711417131369,2118056,0
1711417134798,1711417131408,2117806,0
1711417134798,1711417131448,2117992,0
1711417134798,1711417131488,2118083,0
1711417134798,1711417131528,2118015,0
1711417134798,1711417131569,2118131,0
1711417134798,1711417131608,2118781,0
1711417134798,1711417131648,2119968,0
1711417134798,1711417131689,2121326,0
1711417134798,1711417131729,2122930,0
1711417134798,1711417131770,2124645,0
1711417134798,1711417131809,2126573,0
1711417134798,1711417131849,2128572,0
1711417134798,1711417131889,2130613,0
1711417134798,1711417131929,2130548,0
1711417134798,1711417131970,2127604,0
1711417134798,1711417132009,2124417,0
1711417134798,1711417132050,2122385,0
1711417134798,1711417132090,2121456,0
1711417134798,1711417132130,2121416,0
1711417134798,1711417132171,2121619,0
1711417134798,1711417132210,2121811,0
1711417134798,1711417132250,2121858,0
1711417134798,1711417132290,2122182,0
1711417134798,1711417132330,2123023,0
1711417134798,1711417132371,2124205,0
1711417134798,1711417132410,2125607,0
1711417134798,1711417132450,2127126,0
1711417134798,1711417132491,2128906,0
1711417134798,1711417132531,2130590,0
1711417134798,1711417132572,2132605,0
1711417134798,1711417132611,2134296,0
1711417134798,1711417132651,2132589,0
1711417134798,1711417132691,2129292,0
1711417134798,1711417132731,2126821,0
1711417134798,1711417132772,2124996,0
1711417134798,1711417132811,2123521,0
1711417134798,1711417132852,2122866,0
1711417134798,1711417132892,2122614,0
1711417134798,1711417132932,2122712,0
1711417134798,1711417132973,2123064,0
1711417134798,1711417133012,2123400,0
1711417134798,1711417133052,2124697,0
1711417134798,1711417133092,2126262,0
1711417134798,1711417133132,2127781,0
1711417134798,1711417133173,2129308,0
1711417134798,1711417133213,2130966,0
1711417134798,1711417133253,2132517,0
1711417134798,1711417133293,2134437,0
1711417134798,1711417133333,2136377,0
1711417134798,1711417133374,2135728,0
1711417134798,1711417133413,2132370,0
1711417134798,1711417133453,2129831,0
1711417134798,1711417133493,2128042,0
1711417134798,1711417133533,2126609,0
1711417134798,1711417133574,2125981,0
1711417134798,1711417133614,2126008,0
1711417134798,1711417133654,2126395,0
1711417134798,1711417133694,2126466,0
1711417134798,1711417133734,2126799,0
1711417134798,1711417133775,2127576,0
1711417134798,1711417133814,2128559,0
1711417134798,1711417133854,2129898,0
1711417134798,1711417133894,2131126,0
1711417134798,1711417133934,2132255,0
1711417134798,1711417133976,2133700,0
1711417134798,1711417134015,2135295,0
1711417134798,1711417134055,2136535,0
1711417134798,1711417134095,2138435,0
1711417134798,1711417134135,2138434,0
1711417134798,1711417134176,2135384,0
1711417134798,1711417134215,2132007,0
1711417134798,1711417134255,2130167,0
1711417134798,1711417134295,2129411,0
1711417134798,1711417134336,2128988,0
1711417134798,1711417134377,2129074,0
1711417134798,1711417134416,2129397,0
1711417134798,1711417134456,2129514,0
1711417134798,1711417134496,2129389,0
1711417134798,1711417134536,2129678,0
1711417134798,1711417134577,2129507,0
1711417134798,1711417134616,2128632,0
1711417134798,1711417134656,2126551,0
1711417134798,1711417134697,2121463,0
1711417134798,1711417134737,2115933,0
1711417146830,1711417134775,2111600,0
1711417146830,1711417134814,2108904,0
1711417146830,1711417134854,2107086,0
1711417146830,1711417134894,2106304,0
1711417146830,1711417134934,2107261,0
1711417146830,1711417134975,2109117,0
1711417146830,1711417135015,2110859,0
1711417146830,1711417135055,2112273,0
1711417146830,1711417135095,2113836,0
1711417146830,1711417135135,2115620,0
1711417146830,1711417135176,2118069,0
1711417146830,1711417135215,2120406,0
1711417146830,1711417135255,2122751,0
1711417146830,1711417135296,2125488,0
1711417146830,1711417135336,2128029,0
1711417146830,1711417135377,2130700,0
1711417146830,1711417135416,2133394,0
1711417146830,1711417135456,2136271,0
1711417146830,1711417135496,2139111,0
1711417146830,1711417135536,2141993,0
1711417146830,1711417135577,2144649,0
1711417146830,1711417135617,2147169,0
1711417146830,1711417135657,2149769,0
1711417146830,1711417135697,2152264,0
1711417146830,1711417135737,2154911,0
1711417146830,1711417135778,2157557,0
1711417146830,1711417135817,2160034,0
1711417146830,1711417135857,2161989,0
1711417146830,1711417135897,2163632,0
1711417146830,1711417135937,2165432,0
1711417146830,1711417135978,2167407,0
1711417146830,1711417136018,2169192,0
1711417146830,1711417136058,2171362,0
1711417146830,1711417136098,2173218,0
1711417146830,1711417136138,2175296,0
1711417146830,1711417136179,2177506,0
1711417146830,1711417136218,2179544,0
1711417146830,1711417136258,2181878,0
1711417146830,1711417136298,2184119,0
1711417146830,1711417136338,2186558,0
1711417146830,1711417136379,2189278,0
1711417146830,1711417136418,2191534,0
1711417146830,1711417136458,2193812,0
1711417146830,1711417136499,2196231,0
1711417146830,1711417136538,2198477,0
1711417146830,1711417136580,2201083,0
1711417146830,1711417136619,2203195,0
1711417146830,1711417136659,2204451,0
1711417146830,1711417136699,2205609,0
1711417146830,1711417136739,2206707,0
1711417146830,1711417136780,2207838,0
1711417146830,1711417136819,2209260,0
1711417146830,1711417136859,2210609,0
1711417146830,1711417136899,2212069,0
1711417146830,1711417136939,2213513,0
1711417146830,1711417136981,2215002,0
1711417146830,1711417137020,2216500,0
1711417146830,1711417137060,2217795,0
1711417146830,1711417137100,2219323,0
1711417146830,1711417137140,2220879,0
1711417146830,1711417137181,2222544,0
1711417146830,1711417137220,2224342,0
1711417146830,1711417137260,2226183,0
1711417146830,1711417137300,2229870,0
1711417146830,1711417137340,2233601,0
1711417146830,1711417137381,2234490,0
1711417146830,1711417137420,2233804,0
1711417146830,1711417137461,2232778,0
1711417146830,1711417137501,2232206,0
1711417146830,1711417137541,2232413,0
1711417146830,1711417137581,2232991,0
1711417146830,1711417137621,2232945,0
1711417146830,1711417137661,2232847,0
1711417146830,1711417137701,2233240,0
1711417146830,1711417137741,2234277,0
1711417146830,1711417137782,2234828,0
1711417146830,1711417137821,2235705,0
1711417146830,1711417137861,2237128,0
1711417146830,1711417137901,2237876,0
1711417146830,1711417137941,2238242,0
1711417146830,1711417137982,2239032,0
1711417146830,1711417138022,2239691,0
1711417146830,1711417138062,2240131,0
1711417146830,1711417138102,2240064,0
1711417146830,1711417138142,2237552,0
1711417146830,1711417138183,2234092,0
1711417146830,1711417138222,2231127,0
1711417146830,1711417138262,2228932,0
1711417146830,1711417138302,2227688,0
1711417146830,1711417138342,2226469,0
1711417146830,1711417138383,2225194,0
1711417146830,1711417138423,2223870,0
1711417146830,1711417138462,2222686,0
1711417146830,1711417138503,2221746,0
1711417146830,1711417138543,2221187,0
1711417146830,1711417138583,2221009,0
1711417146830,1711417138623,2221047,0
1711417146830,1711417138663,2221411,0
1711417146830,1711417138703,2221830,0
1711417146830,1711417138743,2221964,0
1711417146830,1711417138784,2222278,0
1711417146830,1711417138823,2222858,0
1711417146830,1711417138863,2221169,0
1711417146830,1711417138904,2216218,0
1711417146830,1711417138944,2210345,0
1711417146830,1711417138984,2205441,0
1711417146830,1711417139024,2201415,0
1711417146830,1711417139064,2198435,0
1711417146830,1711417139104,2196135,0
1711417146830,1711417139144,2193299,0
1711417146830,1711417139185,2190368,0
1711417146830,1711417139224,2187907,0
1711417146830,1711417139264,2185984,0
1711417146830,1711417139304,2184249,0
1711417146830,1711417139345,2182759,0
1711417146830,1711417139385,2181474,0
1711417146830,1711417139425,2180616,0
1711417146830,1711417139465,2180174,0
1711417146830,1711417139505,2179666,0
1711417146830,1711417139545,2179634,0
1711417146830,1711417139586,2176860,0
1711417146830,1711417139625,2170260,0
1711417146830,1711417139665,2162941,0
1711417146830,1711417139705,2157050,0
1711417146830,1711417139746,2152164,0
1711417146830,1711417139786,2148897,0
1711417146830,1711417139826,2145758,0
1711417146830,1711417139866,2142452,0
1711417146830,1711417139906,2138931,0
1711417146830,1711417139946,2136046,0
1711417146830,1711417139987,2133940,0
1711417146830,1711417140026,2132292,0
1711417146830,1711417140066,2131024,0
1711417146830,1711417140106,2129964,0
1711417146830,1711417140146,2129065,0
1711417146830,1711417140187,2128448,0
1711417146830,1711417140227,2128145,0
1711417146830,1711417140267,2127451,0
1711417146830,1711417140307,2121510,0
1711417146830,1711417140347,2113078,0
1711417146830,1711417140388,2105447,0
1711417146830,1711417140427,2099480,0
1711417146830,1711417140467,2094446,0
1711417146830,1711417140507,2090875,0
1711417146830,1711417140547,2087384,0
1711417146830,1711417140588,2083992,0
1711417146830,1711417140628,2080864,0
1711417146830,1711417140668,2078466,0
1711417146830,1711417140708,2076833,0
1711417146830,1711417140748,2075580,0
1711417146830,1711417140789,2074752,0
1711417146830,1711417140828,2074207,0
1711417146830,1711417140868,2073855,0
1711417146830,1711417140908,2073721,0
1711417146830,1711417140948,2074087,0
1711417146830,1711417140989,2073879,0
1711417146830,1711417141028,2068878,0
1711417146830,1711417141069,2061319,0
1711417146830,1711417141109,2054676,0
1711417146830,1711417141149,2049579,0
1711417146830,1711417141190,2045353,0
1711417146830,1711417141229,2042744,0
1711417146830,1711417141269,2040392,0
1711417146830,1711417141309,2037962,0
1711417146830,1711417141349,2035809,0
1711417146830,1711417141390,2034440,0
1711417146830,1711417141429,2033838,0
1711417146830,1711417141469,2033660,0
1711417146830,1711417141510,2034058,0
1711417146830,1711417141550,2034570,0
1711417146830,1711417141590,2035470,0
1711417146830,1711417141630,2036468,0
1711417146830,1711417141670,2037987,0
1711417146830,1711417141710,2039539,0
1711417146830,1711417141750,2038001,0
1711417146830,1711417141791,2033049,0
1711417146830,1711417141830,2028486,0
1711417146830,1711417141870,2025412,0
1711417146830,1711417141911,2023119,0
1711417146830,1711417141951,2022093,0
1711417146830,1711417141992,2021707,0
1711417146830,1711417142031,2021290,0
1711417146830,1711417142071,2021099,0
1711417146830,1711417142111,2021419,0
1711417146830,1711417142151,2022357,0
1711417146830,1711417142192,2023211,0
1711417146830,1711417142231,2022987,0
1711417146830,1711417142272,2022874,0
1711417146830,1711417142312,2023262,0
1711417146830,1711417142352,2024242,0
1711417146830,1711417142393,2027002,0
1711417146830,1711417142432,2030398,0
1711417146830,1711417142472,2033027,0
1711417146830,1711417142512,2032893,0
1711417146830,1711417142552,2029712,0
1711417146830,1711417142593,2027740,0
1711417146830,1711417142633,2028279,0
1711417146830,1711417142673,2029009,0
1711417146830,1711417142713,2030386,0
1711417146830,1711417142753,2031939,0
1711417146830,1711417142794,2033405,0
1711417146830,1711417142833,2035491,0
1711417146830,1711417142873,2036830,0
1711417146830,1711417142913,2036368,0
1711417146830,1711417142953,2035938,0
1711417146830,1711417142994,2038738,0
1711417146830,1711417143034,2041570,0
1711417146830,1711417143074,2043225,0
1711417146830,1711417143114,2045209,0
1711417146830,1711417143154,2048458,0
1711417146830,1711417143195,2052292,0
1711417146830,1711417143234,2056184,0
1711417146830,1711417143274,2060391,0
1711417146830,1711417143314,2061972,0
1711417146830,1711417143355,2061891,0
1711417146830,1711417143395,2063288,0
1711417146830,1711417143435,2065623,0
1711417146830,1711417143475,2067697,0
1711417146830,1711417143515,2070250,0
1711417146830,1711417143555,2073680,0
1711417146830,1711417143596,2076868,0
1711417146830,1711417143635,2080148,0
1711417146830,1711417143675,2083236,0
1711417146830,1711417143716,2086420,0
1711417146830,1711417143756,2089274,0
1711417146830,1711417143796,2091775,0
1711417146830,1711417143836,2094559,0
1711417146830,1711417143876,2098429,0
1711417146830,1711417143916,2102655,0
1711417146830,1711417143956,2107040,0
1711417146830,1711417143997,2110964,0
1711417146830,1711417144036,2113974,0
1711417146830,1711417144077,2115321,0
1711417146830,1711417144117,2115275,0
1711417146830,1711417144157,2115371,0
1711417146830,1711417144198,2116297,0
1711417146830,1711417144237,2117560,0
1711417146830,1711417144277,2118956,0
1711417146830,1711417144317,2121139,0
1711417146830,1711417144357,2123746,0
1711417146830,1711417144398,2126144,0
1711417146830,1711417144438,2128533,0
1711417146830,1711417144478,2131058,0
1711417146830,1711417144518,2133964,0
1711417146830,1711417144558,2137644,0
1711417146830,1711417144598,2140741,0
1711417146830,1711417144638,2143944,0
1711417146830,1711417144678,2147362,0
1711417146830,1711417144718,2151177,0
1711417146830,1711417144758,2154992,0
1711417146830,1711417144799,2158739,0
1711417146830,1711417144838,2162322,0
1711417146830,1711417144878,2166127,0
1711417146830,1711417144918,2169965,0
1711417146830,1711417144958,2173138,0
1711417146830,1711417144999,2175196,0
1711417146830,1711417145039,2177612,0
1711417146830,1711417145078,2180895,0
1711417146830,1711417145118,2184531,0
1711417146830,1711417145159,2188657,0
1711417146830,1711417145199,2193098,0
1711417146830,1711417145239,2196973,0
1711417146830,1711417145279,2200192,0
1711417146830,1711417145319,2202726,0
1711417146830,1711417145359,2204684,0
1711417146830,1711417145400,2205800,0
1711417146830,1711417145439,2206600,0
1711417146830,1711417145479,2207713,0
1711417146830,1711417145519,2208953,0
1711417146830,1711417145559,2210661,0
1711417146830,1711417145600,2212210,0
1711417146830,1711417145640,2214213,0
1711417146830,1711417145680,2216460,0
1711417146830,1711417145720,2218753,0
1711417146830,1711417145760,2219883,0
1711417146830,1711417145801,2220500,0
1711417146830,1711417145840,2221669,0
1711417146830,1711417145880,2224294,0
1711417146830,1711417145920,2227379,0
1711417146830,1711417145960,2230281,0
1711417146830,1711417146001,2233401,0
1711417146830,1711417146040,2236388,0
1711417146830,1711417146080,2238635,0
1711417146830,1711417146121,2240845,0
1711417146830,1711417146161,2243240,0
1711417146830,1711417146201,2244036,0
1711417146830,1711417146241,2245119,0
1711417146830,1711417146281,2245628,0
1711417146830,1711417146321,2245031,0
1711417146830,1711417146361,2245703,0
1711417146830,1711417146402,2245024,0
1711417146830,1711417146441,2243269,0
1711417146830,1711417146481,2242841,0
1711417146830,1711417146521,2243013,0
1711417146830,1711417146561,2244312,0
1711417146830,1711417146602,2246586,0
1711417146830,1711417146641,2250344,0
1711417146830,1711417146681,2254909,0
1711417146830,1711417146722,2259319,0
1711417146830,1711417146762,2261750,0
1711417158851,1711417146800,2264561,0
1711417158851,1711417146840,2267354,0
1711417158851,1711417146880,2269831,0
1711417158851,1711417146920,2271981,0
1711417158851,1711417146960,2273504,0
1711417158851,1711417147001,2274147,0
1711417158851,1711417147040,2273786,0
1711417158851,1711417147080,2271326,0
1711417158851,1711417147120,2269941,0
1711417158851,1711417147160,2268844,0
1711417158851,1711417147201,2268960,0
1711417158851,1711417147241,2271089,0
1711417158851,1711417147281,2274115,0
1711417158851,1711417147321,2278654,0
1711417158851,1711417147361,2282760,0
1711417158851,1711417147402,2286284,0
1711417158851,1711417147441,2288093,0
1711417158851,1711417147481,2290131,0
1711417158851,1711417147521,2292466,0
1711417158851,1711417147561,2295022,0
1711417158851,1711417147602,2297159,0
1711417158851,1711417147641,2299233,0
1711417158851,1711417147682,2301551,0
1711417158851,1711417147722,2303940,0
1711417158851,1711417147762,2306312,0
1711417158851,1711417147803,2308571,0
1711417158851,1711417147842,2310861,0
1711417158851,1711417147882,2312875,0
1711417158851,1711417147922,2314830,0
1711417158851,1711417147962,2316565,0
1711417158851,1711417148003,2318532,0
1711417158851,1711417148042,2319218,0
1711417158851,1711417148082,2317442,0
1711417158851,1711417148122,2315822,0
1711417158851,1711417148163,2314535,0
1711417158851,1711417148203,2313818,0
1711417158851,1711417148243,2313508,0
1711417158851,1711417148283,2313273,0
1711417158851,1711417148323,2313380,0
1711417158851,1711417148363,2313542,0
1711417158851,1711417148404,2313511,0
1711417158851,1711417148443,2313135,0
1711417158851,1711417148483,2312057,0
1711417158851,1711417148523,2311718,0
1711417158851,1711417148563,2311039,0
1711417158851,1711417148604,2310012,0
1711417158851,1711417148644,2310124,0
1711417158851,1711417148684,2311019,0
1711417158851,1711417148724,2311905,0
1711417158851,1711417148764,2312884,0
1711417158851,1711417148805,2313502,0
1711417158851,1711417148844,2313747,0
1711417158851,1711417148884,2314152,0
1711417158851,1711417148924,2314216,0
1711417158851,1711417148964,2314009,0
1711417158851,1711417149005,2313838,0
1711417158851,1711417149045,2314407,0
1711417158851,1711417149085,2315395,0
1711417158851,1711417149125,2316404,0
1711417158851,1711417149165,2317025,0
1711417158851,1711417149205,2317259,0
1711417158851,1711417149245,2316551,0
1711417158851,1711417149285,2316183,0
1711417158851,1711417149325,2316230,0
1711417158851,1711417149365,2316895,0
1711417158851,1711417149406,2317999,0
1711417158851,1711417149445,2319566,0
1711417158851,1711417149486,2322425,0
1711417158851,1711417149526,2326491,0
1711417158851,1711417149566,2331072,0
1711417158851,1711417149606,2333796,0
1711417158851,1711417149646,2335767,0
1711417158851,1711417149686,2337990,0
1711417158851,1711417149726,2339813,0
1711417158851,1711417149766,2340946,0
1711417158851,1711417149807,2341728,0
1711417158851,1711417149846,2342634,0
1711417158851,1711417149886,2343203,0
1711417158851,1711417149926,2343628,0
1711417158851,1711417149967,2343272,0
1711417158851,1711417150007,2342651,0
1711417158851,1711417150047,2341641,0
1711417158851,1711417150087,2341679,0
1711417158851,1711417150127,2341858,0
1711417158851,1711417150167,2341491,0
1711417158851,1711417150208,2341789,0
1711417158851,1711417150247,2342385,0
1711417158851,1711417150287,2343143,0
1711417158851,1711417150328,2343939,0
1711417158851,1711417150368,2344590,0
1711417158851,1711417150408,2345222,0
1711417158851,1711417150448,2346099,0
1711417158851,1711417150488,2346620,0
1711417158851,1711417150528,2347550,0
1711417158851,1711417150568,2348444,0
1711417158851,1711417150609,2349013,0
1711417158851,1711417150648,2350029,0
1711417158851,1711417150688,2349971,0
1711417158851,1711417150728,2347462,0
1711417158851,1711417150768,2344884,0
1711417158851,1711417150809,2342931,0
1711417158851,1711417150849,2341721,0
1711417158851,1711417150889,2340641,0
1711417158851,1711417150929,2340348,0
1711417158851,1711417150969,2340185,0
1711417158851,1711417151010,2340381,0
1711417158851,1711417151049,2339576,0
1711417158851,1711417151089,2339494,0
1711417158851,1711417151129,2339948,0
1711417158851,1711417151169,2340681,0
1711417158851,1711417151210,2341117,0
1711417158851,1711417151250,2341736,0
1711417158851,1711417151290,2342482,0
1711417158851,1711417151330,2341680,0
1711417158851,1711417151370,2337703,0
1711417158851,1711417151411,2333312,0
1711417158851,1711417151450,2330029,0
1711417158851,1711417151490,2327857,0
1711417158851,1711417151531,2326306,0
1711417158851,1711417151570,2325332,0
1711417158851,1711417151611,2324184,0
1711417158851,1711417151651,2322666,0
1711417158851,1711417151691,2320969,0
1711417158851,1711417151731,2320209,0
1711417158851,1711417151771,2320013,0
1711417158851,1711417151812,2320411,0
1711417158851,1711417151851,2320850,0
1711417158851,1711417151891,2321442,0
1711417158851,1711417151931,2322222,0
1711417158851,1711417151972,2323095,0
1711417158851,1711417152012,2323360,0
1711417158851,1711417152052,2320200,0
1711417158851,1711417152092,2315373,0
1711417158851,1711417152132,2311103,0
1711417158851,1711417152172,2308074,0
1711417158851,1711417152213,2306184,0
1711417158851,1711417152252,2305351,0
1711417158851,1711417152292,2304334,0
1711417158851,1711417152332,2303496,0
1711417158851,1711417152373,2303049,0
1711417158851,1711417152413,2302958,0
1711417158851,1711417152453,2302999,0
1711417158851,1711417152493,2303653,0
1711417158851,1711417152533,2304639,0
1711417158851,1711417152573,2305636,0
1711417158851,1711417152614,2306838,0
1711417158851,1711417152654,2307986,0
1711417158851,1711417152694,2309415,0
1711417158851,1711417152734,2310226,0
1711417158851,1711417152774,2307482,0
1711417158851,1711417152815,2303024,0
1711417158851,1711417152854,2299098,0
1711417158851,1711417152894,2296283,0
1711417158851,1711417152934,2294717,0
1711417158851,1711417152975,2294075,0
1711417158851,1711417153015,2293204,0
1711417158851,1711417153055,2291866,0
1711417158851,1711417153095,2291001,0
1711417158851,1711417153135,2290471,0
1711417158851,1711417153175,2290553,0
1711417158851,1711417153216,2290938,0
1711417158851,1711417153255,2291814,0
1711417158851,1711417153295,2292611,0
1711417158851,1711417153335,2293191,0
1711417158851,1711417153375,2294038,0
1711417158851,1711417153416,2295050,0
1711417158851,1711417153456,2296215,0
1711417158851,1711417153496,2294784,0
1711417158851,1711417153536,2290977,0
1711417158851,1711417153576,2287693,0
1711417158851,1711417153617,2285831,0
1711417158851,1711417153656,2284734,0
1711417158851,1711417153696,2284814,0
1711417158851,1711417153736,2284654,0
1711417158851,1711417153776,2284084,0
1711417158851,1711417153817,2283308,0
1711417158851,1711417153856,2283221,0
1711417158851,1711417153896,2284352,0
1711417158851,1711417153937,2286577,0
1711417158851,1711417153976,2288786,0
1711417158851,1711417154017,2290213,0
1711417158851,1711417154057,2291121,0
1711417158851,1711417154097,2291440,0
1711417158851,1711417154137,2291989,0
1711417158851,1711417154177,2292804,0
1711417158851,1711417154218,2291126,0
1711417158851,1711417154257,2288471,0
1711417158851,1711417154297,2286526,0
1711417158851,1711417154337,2284780,0
1711417158851,1711417154377,2283002,0
1711417158851,1711417154418,2281437,0
1711417158851,1711417154457,2280300,0
1711417158851,1711417154497,2279835,0
1711417158851,1711417154538,2280632,0
1711417158851,1711417154578,2281965,0
1711417158851,1711417154618,2283262,0
1711417158851,1711417154658,2283629,0
1711417158851,1711417154698,2283333,0
1711417158851,1711417154738,2283122,0
1711417158851,1711417154778,2283768,0
1711417158851,1711417154819,2285732,0
1711417158851,1711417154858,2288176,0
1711417158851,1711417154898,2288577,0
1711417158851,1711417154938,2285501,0
1711417158851,1711417154978,2280914,0
1711417158851,1711417155019,2276785,0
1711417158851,1711417155058,2273904,0
1711417158851,1711417155099,2272534,0
1711417158851,1711417155139,2272495,0
1711417158851,1711417155179,2272397,0
1711417158851,1711417155219,2272121,0
1711417158851,1711417155259,2271512,0
1711417158851,1711417155299,2271405,0
1711417158851,1711417155339,2271668,0
1711417158851,1711417155379,2272461,0
1711417158851,1711417155420,2273496,0
1711417158851,1711417155459,2274624,0
1711417158851,1711417155500,2275374,0
1711417158851,1711417155540,2276462,0
1711417158851,1711417155580,2277738,0
1711417158851,1711417155621,2278746,0
1711417158851,1711417155660,2276537,0
1711417158851,1711417155700,2272673,0
1711417158851,1711417155740,2269236,0
1711417158851,1711417155780,2266835,0
1711417158851,1711417155821,2264976,0
1711417158851,1711417155860,2264196,0
1711417158851,1711417155900,2263758,0
1711417158851,1711417155940,2263010,0
1711417158851,1711417155981,2262507,0
1711417158851,1711417156021,2262215,0
1711417158851,1711417156061,2262426,0
1711417158851,1711417156101,2262424,0
1711417158851,1711417156141,2262582,0
1711417158851,1711417156181,2262852,0
1711417158851,1711417156222,2262887,0
1711417158851,1711417156261,2262716,0
1711417158851,1711417156301,2262157,0
1711417158851,1711417156341,2261305,0
1711417158851,1711417156381,2260026,0
1711417158851,1711417156422,2254537,0
1711417158851,1711417156462,2245818,0
1711417158851,1711417156502,2237366,0
1711417158851,1711417156542,2231073,0
1711417158851,1711417156582,2224863,0
1711417158851,1711417156623,2219422,0
1711417158851,1711417156662,2213777,0
1711417158851,1711417156702,2206935,0
1711417158851,1711417156742,2198084,0
1711417158851,1711417156782,2190566,0
1711417158851,1711417156823,2185660,0
1711417158851,1711417156862,2182871,0
1711417158851,1711417156902,2182952,0
1711417158851,1711417156943,2184022,0
1711417158851,1711417156983,2185615,0
1711417158851,1711417157023,2187074,0
1711417158851,1711417157063,2188459,0
1711417158851,1711417157103,2189970,0
1711417158851,1711417157143,2190971,0
1711417158851,1711417157183,2191432,0
1711417158851,1711417157224,2190582,0
1711417158851,1711417157263,2189302,0
1711417158851,1711417157303,2187781,0
1711417158851,1711417157343,2186569,0
1711417158851,1711417157384,2186001,0
1711417158851,1711417157424,2185987,0
1711417158851,1711417157464,2185606,0
1711417158851,1711417157504,2184743,0
1711417158851,1711417157544,2183415,0
1711417158851,1711417157584,2181626,0
1711417158851,1711417157625,2179466,0
1711417158851,1711417157664,2177119,0
1711417158851,1711417157704,2173622,0
1711417158851,1711417157744,2168511,0
1711417158851,1711417157785,2162839,0
1711417158851,1711417157825,2157504,0
1711417158851,1711417157865,2151838,0
1711417158851,1711417157905,2145214,0
1711417158851,1711417157945,2138091,0
1711417158851,1711417157985,2132859,0
1711417158851,1711417158026,2123646,0
1711417158851,1711417158065,2117066,0
1711417158851,1711417158105,2114226,0
1711417158851,1711417158145,2114984,0
1711417158851,1711417158185,2116265,0
1711417158851,1711417158226,2114430,0
1711417158851,1711417158266,2112932,0
1711417158851,1711417158306,2111759,0
1711417158851,1711417158346,2111859,0
1711417158851,1711417158386,2120006,0
1711417158851,1711417158427,2121972,0
1711417158851,1711417158466,2120177,0
1711417158851,1711417158506,2118742,0
1711417158851,1711417158546,2117407,0
1711417158851,1711417158586,2116079,0
1711417158851,1711417158627,2114009,0
1711417158851,1711417158667,2112466,0
1711417158851,1711417158707,2111298,0
1711417158851,1711417158747,2110144,0
1711417158851,1711417158787,2104874,0
1711417170907,1711417158829,2094528,0
1711417170907,1711417158868,2083731,0
1711417170907,1711417158908,2075301,0
1711417170907,1711417158948,2068375,0
1711417170907,1711417158989,2062568,0
1711417170907,1711417159029,2057146,0
1711417170907,1711417159069,2051363,0
1711417170907,1711417159109,2045548,0
1711417170907,1711417159149,2040743,0
1711417170907,1711417159189,2036881,0
1711417170907,1711417159230,2033625,0
1711417170907,1711417159269,2030501,0
1711417170907,1711417159309,2027711,0
1711417170907,1711417159350,2025003,0
1711417170907,1711417159390,2022686,0
1711417170907,1711417159430,2020493,0
1711417170907,1711417159470,2018757,0
1711417170907,1711417159510,2017203,0
1711417170907,1711417159550,2012581,0
1711417170907,1711417159590,2002813,0
1711417170907,1711417159631,1992409,0
1711417170907,1711417159670,1981745,0
1711417170907,1711417159711,1973713,0
1711417170907,1711417159751,1967816,0
1711417170907,1711417159791,1963440,0
1711417170907,1711417159832,1960045,0
1711417170907,1711417159871,1957186,0
1711417170907,1711417159911,1956307,0
1711417170907,1711417159951,1955662,0
1711417170907,1711417159991,1954699,0
1711417170907,1711417160032,1953577,0
1711417170907,1711417160072,1952497,0
1711417170907,1711417160112,1950529,0
1711417170907,1711417160152,1949231,0
1711417170907,1711417160192,1949166,0
1711417170907,1711417160233,1950233,0
1711417170907,1711417160272,1950812,0
1711417170907,1711417160312,1946959,0
1711417170907,1711417160352,1936944,0
1711417170907,1711417160392,1926377,0
1711417170907,1711417160433,1918680,0
1711417170907,1711417160473,1913749,0
1711417170907,1711417160513,1909718,0
1711417170907,1711417160553,1906665,0
1711417170907,1711417160593,1903665,0
1711417170907,1711417160634,1901001,0
1711417170907,1711417160674,1898951,0
1711417170907,1711417160714,1898506,0
1711417170907,1711417160754,1899372,0
1711417170907,1711417160794,1901119,0
1711417170907,1711417160835,1902988,0
1711417170907,1711417160874,1904941,0
1711417170907,1711417160914,1906988,0
1711417170907,1711417160954,1909370,0
1711417170907,1711417160994,1911924,0
1711417170907,1711417161035,1913457,0
1711417170907,1711417161075,1909922,0
1711417170907,1711417161115,1904857,0
1711417170907,1711417161155,1901086,0
1711417170907,1711417161195,1898795,0
1711417170907,1711417161236,1897441,0
1711417170907,1711417161276,1896802,0
1711417170907,1711417161316,1895949,0
1711417170907,1711417161356,1895295,0
1711417170907,1711417161396,1894761,0
1711417170907,1711417161437,1893967,0
1711417170907,1711417161476,1893787,0
1711417170907,1711417161516,1894453,0
1711417170907,1711417161556,1895914,0
1711417170907,1711417161596,1896935,0
1711417170907,1711417161637,1897202,0
1711417170907,1711417161676,1897563,0
1711417170907,1711417161716,1894376,0
1711417170907,1711417161757,1886067,0
1711417170907,1711417161797,1877924,0
1711417170907,1711417161837,1872739,0
1711417170907,1711417161877,1867816,0
1711417170907,1711417161917,1863518,0
1711417170907,1711417161957,1861997,0
1711417170907,1711417161997,1860496,0
1711417170907,1711417162038,1861433,0
1711417170907,1711417162077,1866860,0
1711417170907,1711417162117,1873237,0
1711417170907,1711417162157,1877179,0
1711417170907,1711417162197,1878416,0
1711417170907,1711417162238,1876466,0
1711417170907,1711417162277,1871095,0
1711417170907,1711417162318,1864565,0
1711417170907,1711417162358,1858738,0
1711417170907,1711417162398,1853329,0
1711417170907,1711417162439,1851215,0
1711417170907,1711417162478,1851206,0
1711417170907,1711417162518,1851200,0
1711417170907,1711417162558,1851656,0
1711417170907,1711417162598,1853484,0
1711417170907,1711417162639,1855773,0
1711417170907,1711417162678,1857699,0
1711417170907,1711417162718,1859393,0
1711417170907,1711417162758,1861584,0
1711417170907,1711417162798,1864220,0
1711417170907,1711417162839,1867029,0
1711417170907,1711417162879,1869342,0
1711417170907,1711417162919,1871584,0
1711417170907,1711417162959,1874821,0
1711417170907,1711417162999,1879074,0
1711417170907,1711417163040,1880645,0
1711417170907,1711417163079,1878132,0
1711417170907,1711417163119,1875290,0
1711417170907,1711417163159,1873628,0
1711417170907,1711417163199,1872659,0
1711417170907,1711417163240,1872841,0
1711417170907,1711417163280,1873841,0
1711417170907,1711417163320,1874536,0
1711417170907,1711417163360,1875162,0
1711417170907,1711417163400,1875842,0
1711417170907,1711417163441,1877477,0
1711417170907,1711417163480,1879405,0
1711417170907,1711417163520,1881834,0
1711417170907,1711417163560,1884205,0
1711417170907,1711417163600,1886770,0
1711417170907,1711417163641,1889577,0
1711417170907,1711417163681,1891077,0
1711417170907,1711417163720,1888718,0
1711417170907,1711417163761,1885614,0
1711417170907,1711417163801,1883967,0
1711417170907,1711417163841,1883242,0
1711417170907,1711417163881,1882942,0
1711417170907,1711417163921,1883390,0
1711417170907,1711417163961,1883842,0
1711417170907,1711417164001,1884164,0
1711417170907,1711417164042,1884932,0
1711417170907,1711417164081,1886315,0
1711417170907,1711417164121,1888114,0
1711417170907,1711417164162,1890321,0
1711417170907,1711417164202,1892877,0
1711417170907,1711417164242,1895572,0
1711417170907,1711417164282,1898182,0
1711417170907,1711417164322,1900338,0
1711417170907,1711417164362,1898805,0
1711417170907,1711417164402,1896059,0
1711417170907,1711417164443,1894336,0
1711417170907,1711417164482,1893649,0
1711417170907,1711417164523,1893622,0
1711417170907,1711417164562,1894247,0
1711417170907,1711417164603,1895255,0
1711417170907,1711417164644,1896238,0
1711417170907,1711417164683,1897177,0
1711417170907,1711417164723,1898597,0
1711417170907,1711417164763,1900385,0
1711417170907,1711417164803,1902618,0
1711417170907,1711417164844,1905115,0
1711417170907,1711417164883,1907655,0
1711417170907,1711417164923,1910359,0
1711417170907,1711417164963,1913077,0
1711417170907,1711417165004,1914335,0
1711417170907,1711417165044,1912085,0
1711417170907,1711417165084,1909692,0
1711417170907,1711417165124,1908413,0
1711417170907,1711417165164,1907915,0
1711417170907,1711417165204,1908191,0
1711417170907,1711417165245,1909121,0
1711417170907,1711417165284,1910309,0
1711417170907,1711417165324,1911412,0
1711417170907,1711417165365,1912975,0
1711417170907,1711417165405,1914961,0
1711417170907,1711417165445,1917621,0
1711417170907,1711417165485,1920478,0
1711417170907,1711417165525,1923511,0
1711417170907,1711417165565,1926654,0
1711417170907,1711417165605,1929922,0
1711417170907,1711417165646,1933319,0
1711417170907,1711417165685,1936473,0
1711417170907,1711417165726,1936394,0
1711417170907,1711417165765,1934336,0
1711417170907,1711417165806,1932912,0
1711417170907,1711417165847,1932396,0
1711417170907,1711417165886,1932210,0
1711417170907,1711417165926,1932611,0
1711417170907,1711417165966,1933412,0
1711417170907,1711417166006,1934228,0
1711417170907,1711417166047,1935683,0
1711417170907,1711417166086,1937901,0
1711417170907,1711417166126,1940445,0
1711417170907,1711417166166,1942592,0
1711417170907,1711417166207,1944512,0
1711417170907,1711417166247,1946419,0
1711417170907,1711417166287,1948859,0
1711417170907,1711417166327,1951466,0
1711417170907,1711417166367,1954748,0
1711417170907,1711417166407,1958344,0
1711417170907,1711417166448,1960095,0
1711417170907,1711417166487,1958133,0
1711417170907,1711417166527,1955701,0
1711417170907,1711417166568,1954403,0
1711417170907,1711417166608,1953845,0
1711417170907,1711417166648,1953694,0
1711417170907,1711417166688,1954452,0
1711417170907,1711417166728,1955291,0
1711417170907,1711417166768,1956291,0
1711417170907,1711417166808,1956836,0
1711417170907,1711417166849,1957646,0
1711417170907,1711417166889,1958394,0
1711417170907,1711417166929,1959874,0
1711417170907,1711417166969,1961728,0
1711417170907,1711417167009,1964108,0
1711417170907,1711417167050,1966701,0
1711417170907,1711417167089,1969303,0
1711417170907,1711417167129,1970604,0
1711417170907,1711417167169,1970804,0
1711417170907,1711417167209,1969044,0
1711417170907,1711417167250,1964429,0
1711417170907,1711417167290,1959951,0
1711417170907,1711417167330,1958126,0
1711417170907,1711417167370,1959298,0
1711417170907,1711417167410,1962194,0
1711417170907,1711417167451,1964462,0
1711417170907,1711417167490,1966683,0
1711417170907,1711417167530,1968491,0
1711417170907,1711417167570,1970441,0
1711417170907,1711417167610,1972218,0
1711417170907,1711417167651,1974065,0
1711417170907,1711417167691,1975861,0
1711417170907,1711417167731,1977748,0
1711417170907,1711417167771,1979872,0
1711417170907,1711417167811,1982093,0
1711417170907,1711417167852,1984526,0
1711417170907,1711417167891,1987089,0
1711417170907,1711417167931,1989845,0
1711417170907,1711417167971,1992324,0
1711417170907,1711417168012,1992209,0
1711417170907,1711417168052,1990433,0
1711417170907,1711417168092,1989345,0
1711417170907,1711417168132,1989324,0
1711417170907,1711417168172,1990218,0
1711417170907,1711417168212,1991738,0
1711417170907,1711417168253,1992512,0
1711417170907,1711417168292,1992467,0
1711417170907,1711417168332,1992309,0
1711417170907,1711417168373,1993110,0
1711417170907,1711417168413,1995119,0
1711417170907,1711417168453,1997697,0
1711417170907,1711417168493,2000544,0
1711417170907,1711417168533,2002939,0
1711417170907,1711417168573,2004770,0
1711417170907,1711417168613,2006653,0
1711417170907,1711417168654,2009328,0
1711417170907,1711417168693,2012726,0
1711417170907,1711417168734,2015885,0
1711417170907,1711417168774,2016997,0
1711417170907,1711417168814,2017040,0
1711417170907,1711417168855,2017519,0
1711417170907,1711417168894,2018998,0
1711417170907,1711417168934,2020718,0
1711417170907,1711417168974,2022767,0
1711417170907,1711417169014,2024314,0
1711417170907,1711417169055,2025296,0
1711417170907,1711417169095,2025941,0
1711417170907,1711417169135,2026653,0
1711417170907,1711417169175,2027561,0
1711417170907,1711417169215,2028712,0
1711417170907,1711417169256,2030235,0
1711417170907,1711417169295,2031712,0
1711417170907,1711417169335,2033045,0
1711417170907,1711417169375,2034504,0
1711417170907,1711417169415,2036150,0
1711417170907,1711417169456,2037632,0
1711417170907,1711417169496,2036863,0
1711417170907,1711417169536,2034750,0
1711417170907,1711417169576,2033302,0
1711417170907,1711417169616,2032993,0
1711417170907,1711417169657,2033584,0
1711417170907,1711417169696,2033852,0
1711417170907,1711417169736,2034017,0
1711417170907,1711417169776,2034261,0
1711417170907,1711417169816,2034913,0
1711417170907,1711417169857,2035902,0
1711417170907,1711417169896,2037018,0
1711417170907,1711417169937,2038351,0
1711417170907,1711417169977,2039835,0
1711417170907,1711417170017,2041268,0
1711417170907,1711417170057,2042920,0
1711417170907,1711417170097,2044500,0
1711417170907,1711417170137,2045916,0
1711417170907,1711417170177,2045114,0
1711417170907,1711417170217,2043007,0
1711417170907,1711417170258,2041327,0
1711417170907,1711417170297,2040717,0
1711417170907,1711417170337,2040681,0
1711417170907,1711417170377,2041024,0
1711417170907,1711417170417,2041207,0
1711417170907,1711417170458,2041065,0
1711417170907,1711417170498,2040965,0
1711417170907,1711417170538,2041186,0
1711417170907,1711417170578,2041538,0
1711417170907,1711417170618,2042179,0
1711417170907,1711417170659,2042923,0
1711417170907,1711417170698,2044061,0
1711417170907,1711417170738,2045781,0
1711417170907,1711417170778,2047668,0
1711417170907,1711417170818,2049098,0
1711417182938,1711417170859,2048325,0
1711417182938,1711417170899,2045093,0
1711417182938,1711417170938,2042320,0
1711417182938,1711417170979,2041291,0
1711417182938,1711417171019,2041121,0
1711417182938,1711417171060,2041475,0
1711417182938,1711417171099,2041932,0
1711417182938,1711417171139,2041282,0
1711417182938,1711417171179,2040164,0
1711417182938,1711417171219,2039740,0
1711417182938,1711417171260,2040058,0
1711417182938,1711417171299,2041182,0
1711417182938,1711417171340,2042859,0
1711417182938,1711417171380,2044629,0
1711417182938,1711417171420,2045843,0
1711417182938,1711417171460,2046649,0
1711417182938,1711417171500,2047737,0
1711417182938,1711417171540,2048828,0
1711417182938,1711417171580,2047560,0
1711417182938,1711417171620,2045386,0
1711417182938,1711417171661,2044051,0
1711417182938,1711417171700,2043611,0
1711417182938,1711417171741,2043460,0
1711417182938,1711417171780,2043471,0
1711417182938,1711417171821,2043239,0
1711417182938,1711417171862,2042622,0
1711417182938,1711417171901,2041773,0
1711417182938,1711417171941,2041085,0
1711417182938,1711417171981,2042584,0
1711417182938,1711417172021,2044348,0
1711417182938,1711417172062,2046263,0
1711417182938,1711417172101,2048527,0
1711417182938,1711417172141,2051643,0
1711417182938,1711417172181,2054449,0
1711417182938,1711417172222,2055143,0
1711417182938,1711417172262,2053306,0
1711417182938,1711417172302,2044620,0
1711417182938,1711417172342,2036704,0
1711417182938,1711417172382,2032973,0
1711417182938,1711417172422,2031742,0
1711417182938,1711417172463,2033690,0
1711417182938,1711417172502,2037718,0
1711417182938,1711417172542,2040926,0
1711417182938,1711417172583,2043271,0
1711417182938,1711417172623,2045982,0
1711417182938,1711417172663,2049683,0
1711417182938,1711417172703,2053535,0
1711417182938,1711417172743,2057335,0
1711417182938,1711417172783,2060805,0
1711417182938,1711417172823,2064297,0
1711417182938,1711417172864,2067183,0
1711417182938,1711417172903,2069713,0
1711417182938,1711417172943,2072320,0
1711417182938,1711417172983,2074305,0
1711417182938,1711417173023,2073467,0
1711417182938,1711417173064,2072031,0
1711417182938,1711417173104,2070880,0
1711417182938,1711417173144,2069934,0
1711417182938,1711417173184,2069359,0
1711417182938,1711417173224,2069065,0
1711417182938,1711417173265,2068405,0
1711417182938,1711417173304,2067505,0
1711417182938,1711417173344,2066919,0
1711417182938,1711417173384,2066625,0
1711417182938,1711417173425,2066639,0
1711417182938,1711417173465,2066672,0
1711417182938,1711417173505,2066801,0
1711417182938,1711417173545,2067207,0
1711417182938,1711417173585,2067630,0
1711417182938,1711417173625,2068311,0
1711417182938,1711417173666,2069267,0
1711417182938,1711417173705,2069974,0
1711417182938,1711417173745,2068602,0
1711417182938,1711417173785,2065704,0
1711417182938,1711417173825,2063413,0
1711417182938,1711417173866,2061979,0
1711417182938,1711417173906,2060793,0
1711417182938,1711417173946,2060081,0
1711417182938,1711417173986,2059633,0
1711417182938,1711417174026,2059095,0
1711417182938,1711417174067,2058663,0
1711417182938,1711417174106,2058554,0
1711417182938,1711417174146,2058684,0
1711417182938,1711417174186,2059104,0
1711417182938,1711417174226,2059627,0
1711417182938,1711417174267,2060088,0
1711417182938,1711417174307,2060810,0
1711417182938,1711417174347,2061687,0
1711417182938,1711417174387,2062614,0
1711417182938,1711417174427,2063713,0
1711417182938,1711417174468,2064834,0
1711417182938,1711417174507,2064526,0
1711417182938,1711417174547,2062492,0
1711417182938,1711417174587,2060929,0
1711417182938,1711417174628,2059904,0
1711417182938,1711417174668,2059351,0
1711417182938,1711417174708,2059359,0
1711417182938,1711417174748,2059432,0
1711417182938,1711417174788,2059425,0
1711417182938,1711417174828,2059391,0
1711417182938,1711417174869,2059555,0
1711417182938,1711417174908,2060330,0
1711417182938,1711417174948,2061262,0
1711417182938,1711417174989,2062439,0
1711417182938,1711417175029,2063694,0
1711417182938,1711417175070,2065154,0
1711417182938,1711417175109,2066579,0
1711417182938,1711417175149,2067971,0
1711417182938,1711417175189,2069634,0
1711417182938,1711417175230,2071323,0
1711417182938,1711417175270,2072001,0
1711417182938,1711417175310,2070960,0
1711417182938,1711417175350,2069447,0
1711417182938,1711417175390,2069238,0
1711417182938,1711417175430,2069230,0
1711417182938,1711417175471,2069588,0
1711417182938,1711417175510,2070131,0
1711417182938,1711417175550,2070483,0
1711417182938,1711417175591,2070826,0
1711417182938,1711417175631,2071440,0
1711417182938,1711417175672,2072214,0
1711417182938,1711417175711,2073453,0
1711417182938,1711417175751,2074790,0
1711417182938,1711417175791,2076106,0
1711417182938,1711417175831,2077473,0
1711417182938,1711417175872,2078944,0
1711417182938,1711417175912,2080310,0
1711417182938,1711417175952,2081940,0
1711417182938,1711417175992,2082558,0
1711417182938,1711417176032,2081398,0
1711417182938,1711417176073,2080431,0
1711417182938,1711417176112,2079961,0
1711417182938,1711417176152,2080089,0
1711417182938,1711417176193,2080444,0
1711417182938,1711417176233,2081088,0
1711417182938,1711417176274,2081535,0
1711417182938,1711417176313,2081990,0
1711417182938,1711417176353,2082560,0
1711417182938,1711417176393,2083512,0
1711417182938,1711417176433,2084640,0
1711417182938,1711417176474,2085838,0
1711417182938,1711417176514,2087214,0
1711417182938,1711417176554,2088652,0
1711417182938,1711417176594,2089997,0
1711417182938,1711417176634,2091495,0
1711417182938,1711417176675,2093029,0
1711417182938,1711417176714,2093702,0
1711417182938,1711417176754,2092581,0
1711417182938,1711417176795,2091548,0
1711417182938,1711417176835,2090953,0
1711417182938,1711417176875,2090930,0
1711417182938,1711417176915,2090787,0
1711417182938,1711417176955,2091202,0
1711417182938,1711417176995,2091526,0
1711417182938,1711417177035,2091805,0
1711417182938,1711417177076,2092147,0
1711417182938,1711417177115,2092841,0
1711417182938,1711417177155,2093876,0
1711417182938,1711417177196,2095038,0
1711417182938,1711417177236,2096221,0
1711417182938,1711417177276,2097534,0
1711417182938,1711417177316,2098919,0
1711417182938,1711417177356,2100364,0
1711417182938,1711417177396,2101770,0
1711417182938,1711417177436,2103225,0
1711417182938,1711417177477,2103068,0
1711417182938,1711417177516,2101474,0
1711417182938,1711417177556,2100273,0
1711417182938,1711417177596,2099750,0
1711417182938,1711417177636,2099313,0
1711417182938,1711417177677,2099507,0
1711417182938,1711417177717,2099581,0
1711417182938,1711417177757,2099927,0
1711417182938,1711417177797,2100121,0
1711417182938,1711417177837,2100590,0
1711417182938,1711417177878,2101351,0
1711417182938,1711417177917,2102393,0
1711417182938,1711417177957,2103425,0
1711417182938,1711417177997,2104521,0
1711417182938,1711417178037,2105974,0
1711417182938,1711417178078,2107187,0
1711417182938,1711417178118,2108612,0
1711417182938,1711417178158,2110055,0
1711417182938,1711417178198,2111663,0
1711417182938,1711417178238,2112721,0
1711417182938,1711417178279,2111722,0
1711417182938,1711417178318,2110400,0
1711417182938,1711417178358,2109371,0
1711417182938,1711417178398,2108974,0
1711417182938,1711417178438,2108915,0
1711417182938,1711417178479,2109122,0
1711417182938,1711417178518,2109355,0
1711417182938,1711417178558,2109681,0
1711417182938,1711417178599,2109235,0
1711417182938,1711417178639,2103353,0
1711417182938,1711417178679,2093871,0
1711417182938,1711417178719,2084676,0
1711417182938,1711417178759,2078532,0
1711417182938,1711417178799,2073952,0
1711417182938,1711417178839,2072409,0
1711417182938,1711417178880,2074022,0
1711417182938,1711417178919,2079126,0
1711417182938,1711417178959,2086299,0
1711417182938,1711417178999,2093841,0
1711417182938,1711417179039,2101405,0
1711417182938,1711417179083,2107349,0
1711417182938,1711417179120,2111231,0
1711417182938,1711417179160,2114347,0
1711417182938,1711417179200,2117448,0
1711417182938,1711417179240,2120178,0
1711417182938,1711417179281,2122972,0
1711417182938,1711417179320,2125848,0
1711417182938,1711417179360,2128553,0
1711417182938,1711417179400,2131194,0
1711417182938,1711417179440,2133758,0
1711417182938,1711417179481,2136255,0
1711417182938,1711417179521,2139253,0
1711417182938,1711417179561,2142281,0
1711417182938,1711417179601,2144909,0
1711417182938,1711417179641,2147411,0
1711417182938,1711417179682,2149808,0
1711417182938,1711417179721,2152468,0
1711417182938,1711417179761,2154928,0
1711417182938,1711417179801,2157410,0
1711417182938,1711417179841,2159582,0
1711417182938,1711417179882,2160013,0
1711417182938,1711417179922,2159749,0
1711417182938,1711417179962,2159848,0
1711417182938,1711417180002,2160671,0
1711417182938,1711417180042,2161577,0
1711417182938,1711417180082,2162726,0
1711417182938,1711417180122,2163605,0
1711417182938,1711417180162,2164399,0
1711417182938,1711417180202,2165138,0
1711417182938,1711417180242,2166341,0
1711417182938,1711417180283,2167625,0
1711417182938,1711417180323,2169076,0
1711417182938,1711417180363,2170566,0
1711417182938,1711417180403,2171827,0
1711417182938,1711417180443,2173318,0
1711417182938,1711417180484,2174886,0
1711417182938,1711417180523,2176528,0
1711417182938,1711417180563,2177945,0
1711417182938,1711417180603,2178515,0
1711417182938,1711417180643,2177559,0
1711417182938,1711417180684,2176535,0
1711417182938,1711417180724,2176005,0
1711417182938,1711417180764,2175966,0
1711417182938,1711417180804,2176175,0
1711417182938,1711417180844,2176624,0
1711417182938,1711417180885,2176976,0
1711417182938,1711417180924,2176941,0
1711417182938,1711417180964,2177350,0
1711417182938,1711417181004,2177902,0
1711417182938,1711417181044,2178728,0
1711417182938,1711417181085,2179551,0
1711417182938,1711417181125,2180423,0
1711417182938,1711417181165,2181518,0
1711417182938,1711417181205,2182308,0
1711417182938,1711417181245,2183497,0
1711417182938,1711417181288,2184492,0
1711417182938,1711417181325,2185473,0
1711417182938,1711417181365,2184771,0
1711417182938,1711417181405,2182781,0
1711417182938,1711417181446,2181107,0
1711417182938,1711417181486,2180220,0
1711417182938,1711417181526,2179502,0
1711417182938,1711417181566,2179364,0
1711417182938,1711417181606,2179095,0
1711417182938,1711417181646,2178696,0
1711417182938,1711417181687,2178185,0
1711417182938,1711417181726,2178218,0
1711417182938,1711417181766,2178549,0
1711417182938,1711417181806,2178991,0
1711417182938,1711417181847,2179492,0
1711417182938,1711417181887,2180248,0
1711417182938,1711417181927,2180958,0
1711417182938,1711417181967,2181838,0
1711417182938,1711417182007,2182641,0
1711417182938,1711417182047,2183625,0
1711417182938,1711417182088,2184244,0
1711417182938,1711417182127,2182708,0
1711417182938,1711417182167,2180613,0
1711417182938,1711417182208,2179178,0
1711417182938,1711417182248,2178387,0
1711417182938,1711417182288,2177846,0
1711417182938,1711417182328,2177736,0
1711417182938,1711417182368,2177227,0
1711417182938,1711417182408,2176736,0
1711417182938,1711417182448,2176269,0
1711417182938,1711417182489,2176302,0
1711417182938,1711417182528,2176667,0
1711417182938,1711417182569,2176997,0
1711417182938,1711417182608,2177510,0
1711417182938,1711417182649,2178077,0
1711417182938,1711417182689,2178662,0
1711417182938,1711417182729,2179404,0
1711417182938,1711417182769,2180130,0
1711417182938,1711417182809,2180659,0
1711417182938,1711417182849,2178944,0
1711417194943,1711417182889,2176407,0
1711417194943,1711417182928,2174514,0
1711417194943,1711417182968,2173393,0
1711417194943,1711417183008,2172674,0
1711417194943,1711417183049,2172373,0
1711417194943,1711417183089,2171768,0
1711417194943,1711417183129,2170881,0
1711417194943,1711417183169,2170146,0
1711417194943,1711417183209,2169935,0
1711417194943,1711417183249,2169991,0
1711417194943,1711417183290,2170194,0
1711417194943,1711417183329,2170359,0
1711417194943,1711417183369,2170781,0
1711417194943,1711417183410,2171282,0
1711417194943,1711417183450,2171817,0
1711417194943,1711417183490,2172106,0
1711417194943,1711417183530,2170334,0
1711417194943,1711417183570,2167242,0
1711417194943,1711417183610,2164911,0
1711417194943,1711417183650,2163354,0
1711417194943,1711417183691,2162164,0
1711417194943,1711417183730,2161437,0
1711417194943,1711417183771,2160686,0
1711417194943,1711417183811,2159352,0
1711417194943,1711417183851,2158362,0
1711417194943,1711417183892,2157651,0
1711417194943,1711417183931,2157374,0
1711417194943,1711417183971,2157338,0
1711417194943,1711417184011,2157145,0
1711417194943,1711417184051,2157191,0
1711417194943,1711417184092,2157188,0
1711417194943,1711417184132,2157483,0
1711417194943,1711417184172,2157055,0
1711417194943,1711417184212,2153969,0
1711417194943,1711417184252,2150112,0
1711417194943,1711417184293,2147130,0
1711417194943,1711417184332,2144894,0
1711417194943,1711417184372,2142937,0
1711417194943,1711417184412,2141545,0
1711417194943,1711417184452,2140254,0
1711417194943,1711417184493,2138798,0
1711417194943,1711417184533,2137395,0
1711417194943,1711417184573,2136463,0
1711417194943,1711417184613,2135912,0
1711417194943,1711417184653,2135598,0
1711417194943,1711417184694,2135399,0
1711417194943,1711417184733,2135227,0
1711417194943,1711417184773,2135330,0
1711417194943,1711417184813,2135561,0
1711417194943,1711417184854,2135557,0
1711417194943,1711417184894,2133041,0
1711417194943,1711417184934,2128810,0
1711417194943,1711417184974,2125082,0
1711417194943,1711417185014,2122175,0
1711417194943,1711417185054,2119419,0
1711417194943,1711417185095,2115723,0
1711417194943,1711417185134,2114105,0
1711417194943,1711417185174,2112438,0
1711417194943,1711417185214,2111299,0
1711417194943,1711417185254,2110575,0
1711417194943,1711417185295,2110286,0
1711417194943,1711417185335,2109861,0
1711417194943,1711417185375,2109829,0
1711417194943,1711417185415,2109931,0
1711417194943,1711417185455,2110114,0
1711417194943,1711417185496,2110207,0
1711417194943,1711417185535,2110660,0
1711417194943,1711417185575,2109293,0
1711417194943,1711417185615,2105561,0
1711417194943,1711417185655,2102000,0
1711417194943,1711417185696,2099281,0
1711417194943,1711417185735,2096837,0
1711417194943,1711417185775,2095090,0
1711417194943,1711417185816,2093760,0
1711417194943,1711417185856,2092368,0
1711417194943,1711417185896,2091028,0
1711417194943,1711417185936,2089988,0
1711417194943,1711417185976,2089310,0
1711417194943,1711417186016,2089007,0
1711417194943,1711417186056,2088911,0
1711417194943,1711417186097,2089011,0
1711417194943,1711417186136,2089318,0
1711417194943,1711417186176,2089704,0
1711417194943,1711417186216,2090323,0
1711417194943,1711417186256,2091013,0
1711417194943,1711417186297,2091963,0
1711417194943,1711417186337,2092752,0
1711417194943,1711417186377,2091033,0
1711417194943,1711417186417,2087711,0
1711417194943,1711417186457,2084905,0
1711417194943,1711417186498,2082987,0
1711417194943,1711417186537,2081542,0
1711417194943,1711417186577,2080524,0
1711417194943,1711417186617,2079927,0
1711417194943,1711417186657,2079137,0
1711417194943,1711417186698,2078376,0
1711417194943,1711417186737,2078214,0
1711417194943,1711417186778,2078457,0
1711417194943,1711417186818,2078841,0
1711417194943,1711417186858,2079559,0
1711417194943,1711417186899,2080338,0
1711417194943,1711417186938,2081281,0
1711417194943,1711417186978,2082147,0
1711417194943,1711417187018,2083282,0
1711417194943,1711417187058,2084730,0
1711417194943,1711417187099,2086303,0
1711417194943,1711417187138,2087880,0
1711417194943,1711417187178,2089324,0
1711417194943,1711417187218,2088081,0
1711417194943,1711417187259,2085572,0
1711417194943,1711417187299,2083993,0
1711417194943,1711417187339,2083209,0
1711417194943,1711417187379,2082726,0
1711417194943,1711417187419,2082895,0
1711417194943,1711417187459,2082860,0
1711417194943,1711417187500,2082679,0
1711417194943,1711417187539,2082553,0
1711417194943,1711417187579,2082913,0
1711417194943,1711417187620,2083800,0
1711417194943,1711417187659,2084782,0
1711417194943,1711417187700,2085890,0
1711417194943,1711417187740,2087055,0
1711417194943,1711417187780,2088285,0
1711417194943,1711417187820,2089500,0
1711417194943,1711417187860,2091048,0
1711417194943,1711417187901,2092557,0
1711417194943,1711417187940,2094367,0
1711417194943,1711417187980,2095567,0
1711417194943,1711417188020,2094262,0
1711417194943,1711417188061,2092201,0
1711417194943,1711417188102,2091328,0
1711417194943,1711417188141,2091019,0
1711417194943,1711417188181,2091204,0
1711417194943,1711417188221,2091525,0
1711417194943,1711417188261,2091655,0
1711417194943,1711417188302,2091774,0
1711417194943,1711417188341,2091906,0
1711417194943,1711417188381,2092488,0
1711417194943,1711417188421,2093547,0
1711417194943,1711417188462,2094582,0
1711417194943,1711417188502,2095718,0
1711417194943,1711417188542,2096969,0
1711417194943,1711417188582,2098262,0
1711417194943,1711417188622,2099534,0
1711417194943,1711417188662,2101124,0
1711417194943,1711417188703,2102436,0
1711417194943,1711417188742,2101581,0
1711417194943,1711417188782,2099479,0
1711417194943,1711417188822,2097910,0
1711417194943,1711417188862,2097125,0
1711417194943,1711417188903,2096765,0
1711417194943,1711417188943,2096973,0
1711417194943,1711417188983,2096921,0
1711417194943,1711417189023,2096802,0
1711417194943,1711417189063,2096514,0
1711417194943,1711417189104,2096835,0
1711417194943,1711417189143,2097437,0
1711417194943,1711417189183,2098162,0
1711417194943,1711417189223,2099055,0
1711417194943,1711417189263,2100050,0
1711417194943,1711417189304,2101274,0
1711417194943,1711417189344,2102271,0
1711417194943,1711417189384,2103518,0
1711417194943,1711417189424,2104869,0
1711417194943,1711417189464,2104220,0
1711417194943,1711417189505,2101567,0
1711417194943,1711417189544,2099243,0
1711417194943,1711417189584,2097486,0
1711417194943,1711417189624,2096384,0
1711417194943,1711417189665,2095442,0
1711417194943,1711417189705,2095121,0
1711417194943,1711417189745,2094601,0
1711417194943,1711417189785,2093860,0
1711417194943,1711417189825,2093661,0
1711417194943,1711417189865,2093712,0
1711417194943,1711417189906,2094411,0
1711417194943,1711417189945,2094891,0
1711417194943,1711417189985,2095557,0
1711417194943,1711417190025,2096469,0
1711417194943,1711417190065,2097401,0
1711417194943,1711417190106,2098411,0
1711417194943,1711417190146,2099672,0
1711417194943,1711417190186,2100892,0
1711417194943,1711417190226,2100661,0
1711417194943,1711417190266,2097824,0
1711417194943,1711417190307,2095070,0
1711417194943,1711417190346,2093103,0
1711417194943,1711417190386,2091446,0
1711417194943,1711417190426,2090275,0
1711417194943,1711417190466,2089518,0
1711417194943,1711417190507,2088958,0
1711417194943,1711417190547,2088175,0
1711417194943,1711417190587,2087866,0
1711417194943,1711417190627,2087830,0
1711417194943,1711417190667,2088163,0
1711417194943,1711417190708,2088645,0
1711417194943,1711417190747,2089380,0
1711417194943,1711417190787,2090191,0
1711417194943,1711417190828,2091096,0
1711417194943,1711417190868,2092040,0
1711417194943,1711417190908,2093253,0
1711417194943,1711417190948,2094534,0
1711417194943,1711417190988,2095920,0
1711417194943,1711417191028,2096129,0
1711417194943,1711417191068,2093522,0
1711417194943,1711417191109,2090758,0
1711417194943,1711417191148,2089020,0
1711417194943,1711417191188,2087941,0
1711417194943,1711417191229,2087039,0
1711417194943,1711417191269,2086698,0
1711417194943,1711417191309,2086342,0
1711417194943,1711417191349,2085737,0
1711417194943,1711417191389,2085510,0
1711417194943,1711417191429,2085833,0
1711417194943,1711417191469,2086397,0
1711417194943,1711417191510,2087220,0
1711417194943,1711417191549,2088155,0
1711417194943,1711417191590,2089040,0
1711417194943,1711417191630,2090049,0
1711417194943,1711417191670,2091267,0
1711417194943,1711417191711,2092528,0
1711417194943,1711417191750,2093943,0
1711417194943,1711417191790,2095414,0
1711417194943,1711417191830,2096511,0
1711417194943,1711417191870,2094910,0
1711417194943,1711417191911,2092347,0
1711417194943,1711417191951,2090646,0
1711417194943,1711417191991,2089854,0
1711417194943,1711417192031,2089489,0
1711417194943,1711417192071,2089458,0
1711417194943,1711417192112,2089291,0
1711417194943,1711417192151,2088687,0
1711417194943,1711417192191,2088412,0
1711417194943,1711417192231,2088688,0
1711417194943,1711417192272,2089299,0
1711417194943,1711417192312,2089998,0
1711417194943,1711417192352,2090909,0
1711417194943,1711417192392,2091779,0
1711417194943,1711417192432,2092716,0
1711417194943,1711417192472,2093696,0
1711417194943,1711417192513,2094950,0
1711417194943,1711417192553,2096157,0
1711417194943,1711417192593,2097691,0
1711417194943,1711417192633,2098214,0
1711417194943,1711417192673,2096135,0
1711417194943,1711417192714,2093690,0
1711417194943,1711417192753,2092074,0
1711417194943,1711417192793,2091228,0
1711417194943,1711417192833,2090971,0
1711417194943,1711417192874,2090858,0
1711417194943,1711417192915,2090592,0
1711417194943,1711417192954,2090191,0
1711417194943,1711417192994,2090148,0
1711417194943,1711417193034,2090274,0
1711417194943,1711417193074,2090976,0
1711417194943,1711417193115,2091906,0
1711417194943,1711417193154,2092912,0
1711417194943,1711417193194,2093799,0
1711417194943,1711417193234,2094946,0
1711417194943,1711417193274,2096190,0
1711417194943,1711417193315,2097469,0
1711417194943,1711417193355,2098937,0
1711417194943,1711417193395,2100367,0
1711417194943,1711417193435,2101224,0
1711417194943,1711417193475,2099474,0
1711417194943,1711417193516,2097244,0
1711417194943,1711417193555,2096118,0
1711417194943,1711417193595,2095499,0
1711417194943,1711417193635,2095305,0
1711417194943,1711417193675,2095571,0
1711417194943,1711417193716,2095730,0
1711417194943,1711417193756,2095602,0
1711417194943,1711417193795,2095828,0
1711417194943,1711417193836,2096343,0
1711417194943,1711417193876,2097321,0
1711417194943,1711417193916,2098417,0
1711417194943,1711417193956,2099581,0
1711417194943,1711417193996,2100996,0
1711417194943,1711417194036,2102232,0
1711417194943,1711417194076,2103676,0
1711417194943,1711417194117,2105325,0
1711417194943,1711417194156,2107015,0
1711417194943,1711417194196,2108725,0
1711417194943,1711417194237,2107977,0
1711417194943,1711417194276,2106080,0
1711417194943,1711417194317,2104946,0
1711417194943,1711417194357,2104788,0
1711417194943,1711417194397,2104793,0
1711417194943,1711417194437,2105189,0
1711417194943,1711417194477,2105212,0
1711417194943,1711417194518,2105233,0
1711417194943,1711417194557,2105053,0
1711417194943,1711417194597,2105504,0
1711417194943,1711417194637,2106136,0
1711417194943,1711417194677,2106993,0
1711417194943,1711417194718,2107925,0
1711417194943,1711417194758,2108595,0
1711417194943,1711417194798,2109148,0
1711417194943,1711417194838,2109975,0
1711417194943,1711417194878,2110866,0
1711417206988,1711417194920,2110864,0
1711417206988,1711417194959,2108626,0
1711417206988,1711417194999,2106240,0
1711417206988,1711417195039,2104805,0
1711417206988,1711417195079,2104100,0
1711417206988,1711417195120,2103806,0
1711417206988,1711417195160,2103723,0
1711417206988,1711417195200,2103552,0
1711417206988,1711417195240,2103119,0
1711417206988,1711417195280,2102957,0
1711417206988,1711417195321,2103461,0
1711417206988,1711417195360,2104106,0
1711417206988,1711417195400,2104649,0
1711417206988,1711417195440,2105317,0
1711417206988,1711417195480,2106240,0
1711417206988,1711417195521,2107308,0
1711417206988,1711417195560,2108497,0
1711417206988,1711417195600,2110148,0
1711417206988,1711417195641,2110483,0
1711417206988,1711417195681,2108637,0
1711417206988,1711417195721,2107302,0
1711417206988,1711417195761,2106774,0
1711417206988,1711417195801,2106302,0
1711417206988,1711417195841,2106137,0
1711417206988,1711417195881,2105977,0
1711417206988,1711417195922,2105384,0
1711417206988,1711417195961,2104131,0
1711417206988,1711417196001,2102227,0
1711417206988,1711417196042,2099662,0
1711417206988,1711417196082,2097111,0
1711417206988,1711417196122,2094908,0
1711417206988,1711417196162,2093105,0
1711417206988,1711417196202,2091833,0
1711417206988,1711417196242,2091382,0
1711417206988,1711417196282,2091445,0
1711417206988,1711417196323,2090333,0
1711417206988,1711417196362,2087581,0
1711417206988,1711417196403,2085135,0
1711417206988,1711417196443,2083314,0
1711417206988,1711417196483,2081877,0
1711417206988,1711417196524,2080379,0
1711417206988,1711417196563,2077407,0
1711417206988,1711417196603,2073095,0
1711417206988,1711417196643,2070061,0
1711417206988,1711417196683,2068902,0
1711417206988,1711417196724,2069307,0
1711417206988,1711417196764,2069945,0
1711417206988,1711417196804,2071673,0
1711417206988,1711417196844,2073996,0
1711417206988,1711417196884,2076760,0
1711417206988,1711417196924,2079864,0
1711417206988,1711417196964,2080763,0
1711417206988,1711417197004,2080460,0
1711417206988,1711417197044,2081123,0
1711417206988,1711417197084,2082102,0
1711417206988,1711417197125,2083241,0
1711417206988,1711417197164,2084478,0
1711417206988,1711417197204,2085659,0
1711417206988,1711417197245,2086602,0
1711417206988,1711417197285,2087795,0
1711417206988,1711417197325,2088542,0
1711417206988,1711417197365,2089286,0
1711417206988,1711417197405,2090282,0
1711417206988,1711417197445,2091730,0
1711417206988,1711417197485,2093472,0
1711417206988,1711417197526,2094890,0
1711417206988,1711417197565,2095642,0
1711417206988,1711417197605,2093638,0
1711417206988,1711417197645,2091442,0
1711417206988,1711417197686,2089951,0
1711417206988,1711417197727,2088867,0
1711417206988,1711417197766,2088120,0
1711417206988,1711417197806,2088087,0
1711417206988,1711417197846,2087964,0
1711417206988,1711417197886,2087860,0
1711417206988,1711417197927,2087847,0
1711417206988,1711417197966,2088083,0
1711417206988,1711417198006,2088532,0
1711417206988,1711417198046,2089278,0
1711417206988,1711417198087,2090214,0
1711417206988,1711417198127,2091221,0
1711417206988,1711417198167,2092338,0
1711417206988,1711417198207,2093005,0
1711417206988,1711417198247,2090475,0
1711417206988,1711417198287,2088159,0
1711417206988,1711417198328,2086681,0
1711417206988,1711417198367,2085330,0
1711417206988,1711417198408,2084022,0
1711417206988,1711417198448,2083484,0
1711417206988,1711417198488,2083141,0
1711417206988,1711417198528,2082691,0
1711417206988,1711417198568,2082835,0
1711417206988,1711417198608,2082997,0
1711417206988,1711417198648,2083594,0
1711417206988,1711417198688,2084471,0
1711417206988,1711417198729,2085393,0
1711417206988,1711417198768,2086369,0
1711417206988,1711417198809,2087645,0
1711417206988,1711417198849,2088820,0
1711417206988,1711417198889,2090204,0
1711417206988,1711417198930,2089082,0
1711417206988,1711417198969,2086954,0
1711417206988,1711417199009,2085543,0
1711417206988,1711417199050,2084860,0
1711417206988,1711417199090,2084153,0
1711417206988,1711417199130,2084267,0
1711417206988,1711417199170,2084361,0
1711417206988,1711417199210,2084090,0
1711417206988,1711417199250,2084153,0
1711417206988,1711417199290,2084604,0
1711417206988,1711417199331,2085230,0
1711417206988,1711417199370,2086111,0
1711417206988,1711417199411,2087100,0
1711417206988,1711417199451,2088066,0
1711417206988,1711417199491,2089328,0
1711417206988,1711417199532,2090495,0
1711417206988,1711417199571,2091753,0
1711417206988,1711417199611,2091481,0
1711417206988,1711417199651,2089409,0
1711417206988,1711417199691,2087812,0
1711417206988,1711417199732,2086940,0
1711417206988,1711417199772,2086328,0
1711417206988,1711417199812,2086190,0
1711417206988,1711417199852,2086441,0
1711417206988,1711417199892,2086415,0
1711417206988,1711417199933,2086356,0
1711417206988,1711417199972,2086726,0
1711417206988,1711417200013,2087282,0
1711417206988,1711417200053,2088242,0
1711417206988,1711417200093,2089367,0
1711417206988,1711417200134,2090388,0
1711417206988,1711417200173,2091624,0
1711417206988,1711417200213,2092851,0
1711417206988,1711417200253,2094216,0
1711417206988,1711417200293,2095525,0
1711417206988,1711417200334,2094419,0
1711417206988,1711417200374,2092288,0
1711417206988,1711417200414,2090780,0
1711417206988,1711417200454,2089997,0
1711417206988,1711417200494,2089181,0
1711417206988,1711417200535,2088939,0
1711417206988,1711417200574,2088833,0
1711417206988,1711417200614,2088624,0
1711417206988,1711417200654,2088846,0
1711417206988,1711417200694,2089485,0
1711417206988,1711417200735,2090460,0
1711417206988,1711417200775,2091164,0
1711417206988,1711417200815,2092387,0
1711417206988,1711417200855,2093385,0
1711417206988,1711417200895,2094677,0
1711417206988,1711417200936,2096082,0
1711417206988,1711417200975,2097482,0
1711417206988,1711417201015,2098025,0
1711417206988,1711417201055,2096073,0
1711417206988,1711417201095,2094151,0
1711417206988,1711417201136,2092899,0
1711417206988,1711417201176,2092119,0
1711417206988,1711417201216,2091551,0
1711417206988,1711417201256,2091472,0
1711417206988,1711417201296,2091313,0
1711417206988,1711417201337,2091124,0
1711417206988,1711417201376,2090980,0
1711417206988,1711417201416,2091509,0
1711417206988,1711417201456,2092237,0
1711417206988,1711417201496,2093173,0
1711417206988,1711417201537,2094122,0
1711417206988,1711417201576,2095194,0
1711417206988,1711417201616,2096354,0
1711417206988,1711417201657,2097602,0
1711417206988,1711417201697,2099103,0
1711417206988,1711417201737,2100409,0
1711417206988,1711417201777,2101750,0
1711417206988,1711417201817,2100716,0
1711417206988,1711417201857,2098395,0
1711417206988,1711417201897,2096993,0
1711417206988,1711417201938,2096192,0
1711417206988,1711417201977,2095683,0
1711417206988,1711417202017,2095759,0
1711417206988,1711417202058,2095747,0
1711417206988,1711417202098,2095504,0
1711417206988,1711417202138,2095294,0
1711417206988,1711417202178,2095425,0
1711417206988,1711417202218,2096105,0
1711417206988,1711417202258,2096923,0
1711417206988,1711417202298,2097722,0
1711417206988,1711417202339,2098557,0
1711417206988,1711417202378,2099546,0
1711417206988,1711417202418,2100533,0
1711417206988,1711417202458,2101595,0
1711417206988,1711417202499,2102779,0
1711417206988,1711417202539,2104117,0
1711417206988,1711417202579,2103550,0
1711417206988,1711417202619,2101433,0
1711417206988,1711417202659,2099468,0
1711417206988,1711417202699,2098352,0
1711417206988,1711417202740,2097825,0
1711417206988,1711417202779,2097913,0
1711417206988,1711417202819,2097727,0
1711417206988,1711417202859,2097511,0
1711417206988,1711417202900,2097228,0
1711417206988,1711417202940,2097207,0
1711417206988,1711417202980,2097754,0
1711417206988,1711417203020,2098467,0
1711417206988,1711417203060,2099285,0
1711417206988,1711417203100,2100121,0
1711417206988,1711417203141,2101191,0
1711417206988,1711417203180,2102220,0
1711417206988,1711417203220,2103352,0
1711417206988,1711417203261,2104515,0
1711417206988,1711417203300,2105853,0
1711417206988,1711417203341,2105798,0
1711417206988,1711417203381,2103372,0
1711417206988,1711417203421,2100654,0
1711417206988,1711417203461,2098906,0
1711417206988,1711417203501,2097766,0
1711417206988,1711417203542,2097016,0
1711417206988,1711417203581,2096417,0
1711417206988,1711417203621,2095779,0
1711417206988,1711417203661,2094984,0
1711417206988,1711417203701,2094421,0
1711417206988,1711417203742,2094351,0
1711417206988,1711417203782,2094567,0
1711417206988,1711417203822,2095128,0
1711417206988,1711417203862,2095657,0
1711417206988,1711417203902,2096252,0
1711417206988,1711417203943,2096986,0
1711417206988,1711417203982,2097778,0
1711417206988,1711417204022,2098707,0
1711417206988,1711417204062,2099700,0
1711417206988,1711417204103,2100062,0
1711417206988,1711417204143,2097286,0
1711417206988,1711417204183,2093663,0
1711417206988,1711417204223,2091163,0
1711417206988,1711417204263,2089150,0
1711417206988,1711417204303,2087712,0
1711417206988,1711417204344,2086678,0
1711417206988,1711417204383,2085656,0
1711417206988,1711417204423,2084343,0
1711417206988,1711417204464,2083247,0
1711417206988,1711417204504,2082651,0
1711417206988,1711417204544,2082732,0
1711417206988,1711417204584,2082813,0
1711417206988,1711417204624,2083102,0
1711417206988,1711417204664,2083398,0
1711417206988,1711417204704,2083788,0
1711417206988,1711417204745,2084411,0
1711417206988,1711417204784,2085130,0
1711417206988,1711417204825,2086017,0
1711417206988,1711417204865,2086616,0
1711417206988,1711417204905,2083931,0
1711417206988,1711417204946,2080133,0
1711417206988,1711417204985,2077108,0
1711417206988,1711417205025,2075025,0
1711417206988,1711417205065,2073388,0
1711417206988,1711417205105,2072349,0
1711417206988,1711417205146,2071197,0
1711417206988,1711417205186,2069862,0
1711417206988,1711417205226,2068651,0
1711417206988,1711417205266,2068126,0
1711417206988,1711417205306,2068041,0
1711417206988,1711417205347,2068151,0
1711417206988,1711417205386,2068573,0
1711417206988,1711417205426,2068933,0
1711417206988,1711417205466,2069482,0
1711417206988,1711417205506,2070195,0
1711417206988,1711417205547,2070980,0
1711417206988,1711417205587,2070907,0
1711417206988,1711417205627,2067640,0
1711417206988,1711417205667,2064055,0
1711417206988,1711417205707,2061420,0
1711417206988,1711417205748,2059725,0
1711417206988,1711417205787,2058745,0
1711417206988,1711417205827,2058031,0
1711417206988,1711417205868,2057047,0
1711417206988,1711417205908,2055939,0
1711417206988,1711417205948,2055128,0
1711417206988,1711417205988,2054967,0
1711417206988,1711417206028,2055244,0
1711417206988,1711417206068,2055749,0
1711417206988,1711417206108,2056478,0
1711417206988,1711417206149,2057289,0
1711417206988,1711417206189,2058102,0
1711417206988,1711417206229,2059069,0
1711417206988,1711417206269,2058953,0
1711417206988,1711417206309,2055694,0
1711417206988,1711417206350,2052263,0
1711417206988,1711417206389,2050209,0
1711417206988,1711417206429,2048910,0
1711417206988,1711417206469,2048342,0
1711417206988,1711417206510,2047933,0
1711417206988,1711417206550,2047055,0
1711417206988,1711417206590,2046253,0
1711417206988,1711417206630,2045957,0
1711417206988,1711417206670,2046172,0
1711417206988,1711417206710,2046917,0
1711417206988,1711417206751,2047710,0
1711417206988,1711417206790,2048810,0
1711417206988,1711417206831,2049730,0
1711417206988,1711417206871,2050982,0
1711417206988,1711417206911,2052328,0
1711417218985,1711417206951,2052730,0
1711417218985,1711417206990,2050070,0
1711417218985,1711417207030,2047184,0
1711417218985,1711417207070,2045725,0
1711417218985,1711417207111,2045156,0
1711417218985,1711417207151,2045380,0
1711417218985,1711417207191,2045532,0
1711417218985,1711417207231,2045283,0
1711417218985,1711417207271,2044839,0
1711417218985,1711417207311,2044873,0
1711417218985,1711417207352,2045474,0
1711417218985,1711417207391,2046497,0
1711417218985,1711417207431,2047455,0
1711417218985,1711417207472,2048708,0
1711417218985,1711417207512,2049862,0
1711417218985,1711417207552,2051285,0
1711417218985,1711417207592,2052882,0
1711417218985,1711417207632,2052937,0
1711417218985,1711417207672,2050335,0
1711417218985,1711417207712,2047961,0
1711417218985,1711417207753,2046846,0
1711417218985,1711417207792,2046464,0
1711417218985,1711417207833,2046827,0
1711417218985,1711417207873,2047078,0
1711417218985,1711417207913,2046831,0
1711417218985,1711417207954,2046573,0
1711417218985,1711417207993,2046837,0
1711417218985,1711417208033,2047545,0
1711417218985,1711417208073,2048737,0
1711417218985,1711417208113,2049836,0
1711417218985,1711417208154,2051139,0
1711417218985,1711417208193,2052565,0
1711417218985,1711417208233,2053950,0
1711417218985,1711417208273,2055266,0
1711417218985,1711417208314,2054345,0
1711417218985,1711417208354,2051333,0
1711417218985,1711417208394,2049132,0
1711417218985,1711417208434,2048153,0
1711417218985,1711417208474,2047522,0
1711417218985,1711417208514,2047519,0
1711417218985,1711417208555,2047370,0
1711417218985,1711417208594,2046900,0
1711417218985,1711417208634,2046598,0
1711417218985,1711417208674,2046970,0
1711417218985,1711417208714,2047623,0
1711417218985,1711417208755,2048512,0
1711417218985,1711417208795,2049615,0
1711417218985,1711417208835,2050720,0
1711417218985,1711417208875,2051903,0
1711417218985,1711417208915,2053343,0
1711417218985,1711417208956,2054726,0
1711417218985,1711417208995,2054268,0
1711417218985,1711417209035,2051299,0
1711417218985,1711417209075,2048868,0
1711417218985,1711417209115,2047425,0
1711417218985,1711417209156,2046566,0
1711417218985,1711417209195,2046207,0
1711417218985,1711417209236,2046001,0
1711417218985,1711417209276,2045568,0
1711417218985,1711417209316,2045069,0
1711417218985,1711417209356,2045223,0
1711417218985,1711417209396,2045765,0
1711417218985,1711417209436,2046650,0
1711417218985,1711417209476,2047912,0
1711417218985,1711417209516,2049394,0
1711417218985,1711417209557,2050966,0
1711417218985,1711417209596,2052767,0
1711417218985,1711417209637,2054688,0
1711417218985,1711417209677,2056713,0
1711417218985,1711417209717,2056921,0
1711417218985,1711417209758,2054715,0
1711417218985,1711417209797,2052965,0
1711417218985,1711417209837,2052117,0
1711417218985,1711417209877,2051581,0
1711417218985,1711417209917,2051507,0
1711417218985,1711417209958,2051785,0
1711417218985,1711417209997,2051761,0
1711417218985,1711417210037,2051963,0
1711417218985,1711417210078,2052149,0
1711417218985,1711417210118,2052831,0
1711417218985,1711417210158,2054024,0
1711417218985,1711417210198,2055384,0
1711417218985,1711417210238,2056739,0
1711417218985,1711417210278,2058323,0
1711417218985,1711417210318,2060086,0
1711417218985,1711417210359,2061635,0
1711417218985,1711417210398,2063473,0
1711417218985,1711417210438,2065365,0
1711417218985,1711417210479,2065668,0
1711417218985,1711417210518,2063575,0
1711417218985,1711417210559,2061706,0
1711417218985,1711417210599,2060707,0
1711417218985,1711417210639,2060070,0
1711417218985,1711417210679,2059844,0
1711417218985,1711417210719,2059857,0
1711417218985,1711417210760,2059801,0
1711417218985,1711417210799,2059655,0
1711417218985,1711417210839,2059822,0
1711417218985,1711417210879,2060486,0
1711417218985,1711417210919,2061313,0
1711417218985,1711417210960,2062432,0
1711417218985,1711417211000,2063686,0
1711417218985,1711417211040,2064924,0
1711417218985,1711417211080,2066291,0
1711417218985,1711417211120,2067804,0
1711417218985,1711417211161,2069428,0
1711417218985,1711417211200,2071201,0
1711417218985,1711417211240,2072848,0
1711417218985,1711417211280,2071852,0
1711417218985,1711417211320,2069632,0
1711417218985,1711417211361,2068241,0
1711417218985,1711417211400,2067654,0
1711417218985,1711417211441,2067174,0
1711417218985,1711417211481,2067382,0
1711417218985,1711417211521,2067406,0
1711417218985,1711417211562,2067479,0
1711417218985,1711417211601,2067611,0
1711417218985,1711417211641,2068248,0
1711417218985,1711417211681,2069092,0
1711417218985,1711417211721,2070259,0
1711417218985,1711417211762,2071586,0
1711417218985,1711417211802,2072741,0
1711417218985,1711417211842,2074167,0
1711417218985,1711417211882,2075446,0
1711417218985,1711417211922,2076929,0
1711417218985,1711417211963,2078609,0
1711417218985,1711417212002,2080468,0
1711417218985,1711417212042,2082068,0
1711417218985,1711417212082,2081289,0
1711417218985,1711417212122,2079656,0
1711417218985,1711417212163,2078859,0
1711417218985,1711417212203,2078519,0
1711417218985,1711417212243,2078573,0
1711417218985,1711417212283,2079293,0
1711417218985,1711417212323,2079699,0
1711417218985,1711417212364,2079814,0
1711417218985,1711417212403,2080127,0
1711417218985,1711417212443,2080984,0
1711417218985,1711417212483,2082032,0
1711417218985,1711417212524,2083292,0
1711417218985,1711417212564,2084644,0
1711417218985,1711417212604,2085970,0
1711417218985,1711417212644,2087374,0
1711417218985,1711417212684,2088961,0
1711417218985,1711417212724,2090447,0
1711417218985,1711417212765,2092170,0
1711417218985,1711417212804,2093997,0
1711417218985,1711417212844,2095815,0
1711417218985,1711417212885,2095097,0
1711417218985,1711417212925,2093421,0
1711417218985,1711417212966,2092363,0
1711417218985,1711417213005,2091945,0
1711417218985,1711417213045,2091715,0
1711417218985,1711417213085,2092047,0
1711417218985,1711417213125,2092366,0
1711417218985,1711417213166,2092428,0
1711417218985,1711417213205,2092679,0
1711417218985,1711417213246,2093395,0
1711417218985,1711417213286,2094330,0
1711417218985,1711417213326,2095459,0
1711417218985,1711417213367,2096556,0
1711417218985,1711417213406,2097949,0
1711417218985,1711417213446,2099250,0
1711417218985,1711417213486,2100635,0
1711417218985,1711417213526,2102077,0
1711417218985,1711417213567,2103694,0
1711417218985,1711417213607,2105336,0
1711417218985,1711417213647,2107047,0
1711417218985,1711417213687,2107261,0
1711417218985,1711417213727,2105742,0
1711417218985,1711417213768,2104387,0
1711417218985,1711417213807,2103868,0
1711417218985,1711417213847,2103651,0
1711417218985,1711417213887,2103738,0
1711417218985,1711417213927,2104154,0
1711417218985,1711417213968,2104483,0
1711417218985,1711417214007,2104701,0
1711417218985,1711417214048,2104965,0
1711417218985,1711417214088,2105854,0
1711417218985,1711417214128,2106937,0
1711417218985,1711417214169,2107974,0
1711417218985,1711417214208,2109140,0
1711417218985,1711417214248,2110405,0
1711417218985,1711417214288,2111576,0
1711417218985,1711417214329,2112973,0
1711417218985,1711417214369,2114296,0
1711417218985,1711417214409,2116034,0
1711417218985,1711417214449,2117604,0
1711417218985,1711417214489,2118317,0
1711417218985,1711417214529,2116736,0
1711417218985,1711417214570,2115137,0
1711417218985,1711417214609,2114403,0
1711417218985,1711417214649,2114159,0
1711417218985,1711417214690,2114282,0
1711417218985,1711417214730,2114429,0
1711417218985,1711417214771,2114419,0
1711417218985,1711417214810,2114287,0
1711417218985,1711417214850,2114268,0
1711417218985,1711417214890,2114761,0
1711417218985,1711417214930,2115507,0
1711417218985,1711417214971,2116350,0
1711417218985,1711417215010,2117287,0
1711417218985,1711417215051,2118173,0
1711417218985,1711417215091,2119133,0
1711417218985,1711417215131,2120230,0
1711417218985,1711417215172,2121312,0
1711417218985,1711417215211,2122666,0
1711417218985,1711417215251,2123610,0
1711417218985,1711417215291,2122123,0
1711417218985,1711417215331,2119719,0
1711417218985,1711417215372,2118337,0
1711417218985,1711417215412,2117419,0
1711417218985,1711417215451,2116600,0
1711417218985,1711417215492,2116511,0
1711417218985,1711417215532,2115934,0
1711417218985,1711417215573,2115378,0
1711417218985,1711417215612,2114972,0
1711417218985,1711417215652,2115256,0
1711417218985,1711417215692,2115615,0
1711417218985,1711417215732,2116254,0
1711417218985,1711417215773,2116752,0
1711417218985,1711417215812,2117430,0
1711417218985,1711417215852,2118158,0
1711417218985,1711417215893,2118933,0
1711417218985,1711417215932,2119820,0
1711417218985,1711417215973,2120750,0
1711417218985,1711417216013,2119322,0
1711417218985,1711417216053,2116331,0
1711417218985,1711417216093,2113826,0
1711417218985,1711417216133,2112096,0
1711417218985,1711417216174,2110504,0
1711417218985,1711417216213,2109513,0
1711417218985,1711417216253,2108793,0
1711417218985,1711417216293,2107743,0
1711417218985,1711417216333,2106757,0
1711417218985,1711417216374,2106093,0
1711417218985,1711417216413,2105879,0
1711417218985,1711417216454,2105989,0
1711417218985,1711417216494,2106214,0
1711417218985,1711417216534,2106652,0
1711417218985,1711417216575,2107051,0
1711417218985,1711417216614,2107673,0
1711417218985,1711417216654,2108313,0
1711417218985,1711417216694,2109172,0
1711417218985,1711417216734,2110086,0
1711417218985,1711417216775,2110003,0
1711417218985,1711417216814,2107165,0
1711417218985,1711417216855,2104254,0
1711417218985,1711417216894,2102182,0
1711417218985,1711417216935,2100615,0
1711417218985,1711417216975,2099408,0
1711417218985,1711417217015,2098592,0
1711417218985,1711417217055,2097626,0
1711417218985,1711417217095,2096286,0
1711417218985,1711417217135,2095281,0
1711417218985,1711417217176,2094854,0
1711417218985,1711417217215,2094760,0
1711417218985,1711417217255,2094887,0
1711417218985,1711417217295,2094909,0
1711417218985,1711417217336,2095235,0
1711417218985,1711417217376,2095592,0
1711417218985,1711417217416,2096276,0
1711417218985,1711417217456,2097065,0
1711417218985,1711417217496,2098107,0
1711417218985,1711417217536,2096930,0
1711417218985,1711417217577,2093847,0
1711417218985,1711417217616,2091184,0
1711417218985,1711417217656,2089351,0
1711417218985,1711417217696,2087938,0
1711417218985,1711417217736,2087112,0
1711417218985,1711417217777,2086127,0
1711417218985,1711417217817,2085096,0
1711417218985,1711417217857,2084195,0
1711417218985,1711417217897,2083696,0
1711417218985,1711417217937,2083700,0
1711417218985,1711417217978,2083823,0
1711417218985,1711417218017,2084145,0
1711417218985,1711417218057,2084300,0
1711417218985,1711417218097,2084758,0
1711417218985,1711417218137,2085260,0
1711417218985,1711417218178,2085960,0
1711417218985,1711417218217,2086977,0
1711417218985,1711417218258,2087308,0
1711417218985,1711417218298,2084700,0
1711417218985,1711417218338,2081161,0
1711417218985,1711417218379,2078261,0
1711417218985,1711417218418,2076216,0
1711417218985,1711417218458,2074230,0
1711417218985,1711417218498,2072810,0
1711417218985,1711417218538,2071577,0
1711417218985,1711417218579,2070110,0
1711417218985,1711417218619,2068670,0
1711417218985,1711417218659,2067760,0
1711417218985,1711417218699,2067278,0
1711417218985,1711417218739,2067065,0
1711417218985,1711417218780,2067163,0
1711417218985,1711417218819,2067250,0
1711417218985,1711417218859,2067479,0
1711417218985,1711417218899,2067744,0
1711417218985,1711417218939,2068129,0
1711417231048,1711417218983,2068456,0
1711417231048,1711417219023,2067680,0
1711417231048,1711417219063,2063879,0
1711417231048,1711417219103,2059656,0
1711417231048,1711417219143,2056403,0
1711417231048,1711417219184,2053673,0
1711417231048,1711417219223,2051500,0
1711417231048,1711417219263,2049815,0
1711417231048,1711417219303,2048542,0
1711417231048,1711417219343,2047323,0
1711417231048,1711417219384,2046441,0
1711417231048,1711417219424,2045925,0
1711417231048,1711417219464,2046103,0
1711417231048,1711417219504,2046280,0
1711417231048,1711417219544,2046855,0
1711417231048,1711417219585,2047531,0
1711417231048,1711417219624,2048421,0
1711417231048,1711417219664,2049514,0
1711417231048,1711417219704,2050678,0
1711417231048,1711417219745,2051885,0
1711417231048,1711417219785,2051275,0
1711417231048,1711417219825,2048575,0
1711417231048,1711417219865,2046154,0
1711417231048,1711417219905,2044679,0
1711417231048,1711417219945,2043565,0
1711417231048,1711417219986,2042952,0
1711417231048,1711417220025,2042700,0
1711417231048,1711417220065,2042383,0
1711417231048,1711417220106,2041882,0
1711417231048,1711417220146,2042018,0
1711417231048,1711417220186,2042503,0
1711417231048,1711417220226,2043234,0
1711417231048,1711417220266,2044215,0
1711417231048,1711417220306,2045039,0
1711417231048,1711417220346,2046153,0
1711417231048,1711417220387,2047298,0
1711417231048,1711417220426,2048613,0
1711417231048,1711417220467,2050106,0
1711417231048,1711417220507,2051565,0
1711417231048,1711417220547,2050578,0
1711417231048,1711417220588,2048024,0
1711417231048,1711417220627,2046508,0
1711417231048,1711417220667,2045614,0
1711417231048,1711417220707,2044982,0
1711417231048,1711417220747,2045000,0
1711417231048,1711417220788,2044925,0
1711417231048,1711417220828,2044725,0
1711417231048,1711417220867,2044425,0
1711417231048,1711417220908,2044662,0
1711417231048,1711417220948,2045441,0
1711417231048,1711417220989,2046618,0
1711417231048,1711417221028,2047695,0
1711417231048,1711417221068,2049078,0
1711417231048,1711417221108,2050466,0
1711417231048,1711417221148,2051945,0
1711417231048,1711417221189,2053511,0
1711417231048,1711417221229,2054375,0
1711417231048,1711417221269,2053049,0
1711417231048,1711417221309,2051128,0
1711417231048,1711417221349,2049779,0
1711417231048,1711417221390,2049292,0
1711417231048,1711417221429,2048767,0
1711417231048,1711417221469,2048720,0
1711417231048,1711417221509,2048653,0
1711417231048,1711417221550,2048564,0
1711417231048,1711417221590,2048643,0
1711417231048,1711417221630,2049177,0
1711417231048,1711417221670,2050159,0
1711417231048,1711417221710,2051072,0
1711417231048,1711417221750,2052133,0
1711417231048,1711417221791,2053481,0
1711417231048,1711417221830,2055019,0
1711417231048,1711417221871,2056716,0
1711417231048,1711417221911,2058714,0
1711417231048,1711417221951,2060377,0
1711417231048,1711417221992,2059835,0
1711417231048,1711417222031,2057684,0
1711417231048,1711417222071,2055974,0
1711417231048,1711417222111,2054997,0
1711417231048,1711417222152,2054462,0
1711417231048,1711417222192,2054483,0
1711417231048,1711417222232,2054450,0
1711417231048,1711417222272,2053678,0
1711417231048,1711417222312,2052634,0
1711417231048,1711417222352,2051517,0
1711417231048,1711417222393,2049870,0
1711417231048,1711417222432,2048494,0
1711417231048,1711417222473,2047443,0
1711417231048,1711417222513,2046555,0
1711417231048,1711417222553,2045759,0
1711417231048,1711417222594,2045424,0
1711417231048,1711417222633,2045341,0
1711417231048,1711417222673,2046197,0
1711417231048,1711417222713,2046750,0
1711417231048,1711417222754,2044499,0
1711417231048,1711417222794,2040989,0
1711417231048,1711417222834,2037575,0
1711417231048,1711417222874,2034715,0
1711417231048,1711417222914,2032067,0
1711417231048,1711417222954,2030040,0
1711417231048,1711417222995,2028088,0
1711417231048,1711417223034,2026349,0
1711417231048,1711417223075,2025052,0
1711417231048,1711417223115,2024193,0
1711417231048,1711417223155,2023953,0
1711417231048,1711417223195,2024021,0
1711417231048,1711417223235,2022661,0
1711417231048,1711417223275,2019925,0
1711417231048,1711417223315,2015758,0
1711417231048,1711417223355,2011154,0
1711417231048,1711417223396,2007601,0
1711417231048,1711417223435,2004661,0
1711417231048,1711417223475,2001450,0
1711417231048,1711417223515,1996726,0
1711417231048,1711417223555,1992206,0
1711417231048,1711417223596,1989302,0
1711417231048,1711417223636,1987468,0
1711417231048,1711417223676,1985870,0
1711417231048,1711417223716,1984541,0
1711417231048,1711417223756,1983713,0
1711417231048,1711417223797,1983268,0
1711417231048,1711417223836,1983427,0
1711417231048,1711417223876,1984072,0
1711417231048,1711417223916,1984706,0
1711417231048,1711417223956,1986557,0
1711417231048,1711417223997,1988573,0
1711417231048,1711417224036,1989940,0
1711417231048,1711417224077,1992364,0
1711417231048,1711417224117,1997082,0
1711417231048,1711417224157,2002931,0
1711417231048,1711417224198,2006135,0
1711417231048,1711417224237,2007376,0
1711417231048,1711417224277,2009832,0
1711417231048,1711417224317,2013884,0
1711417231048,1711417224357,2018123,0
1711417231048,1711417224398,2022947,0
1711417231048,1711417224438,2028502,0
1711417231048,1711417224477,2033396,0
1711417231048,1711417224518,2037481,0
1711417231048,1711417224558,2041586,0
1711417231048,1711417224598,2046200,0
1711417231048,1711417224638,2051015,0
1711417231048,1711417224678,2055376,0
1711417231048,1711417224718,2059381,0
1711417231048,1711417224758,2063332,0
1711417231048,1711417224799,2067260,0
1711417231048,1711417224838,2071311,0
1711417231048,1711417224878,2074908,0
1711417231048,1711417224919,2076015,0
1711417231048,1711417224959,2076732,0
1711417231048,1711417225000,2078034,0
1711417231048,1711417225039,2079458,0
1711417231048,1711417225079,2081159,0
1711417231048,1711417225119,2083119,0
1711417231048,1711417225159,2084905,0
1711417231048,1711417225200,2086502,0
1711417231048,1711417225239,2088212,0
1711417231048,1711417225280,2090059,0
1711417231048,1711417225320,2092205,0
1711417231048,1711417225360,2094434,0
1711417231048,1711417225401,2096838,0
1711417231048,1711417225440,2099098,0
1711417231048,1711417225480,2101126,0
1711417231048,1711417225520,2103511,0
1711417231048,1711417225560,2105701,0
1711417231048,1711417225601,2107311,0
1711417231048,1711417225641,2106468,0
1711417231048,1711417225680,2105527,0
1711417231048,1711417225721,2105290,0
1711417231048,1711417225761,2105697,0
1711417231048,1711417225801,2106309,0
1711417231048,1711417225841,2107253,0
1711417231048,1711417225881,2108310,0
1711417231048,1711417225921,2109014,0
1711417231048,1711417225961,2110239,0
1711417231048,1711417226002,2111535,0
1711417231048,1711417226041,2113028,0
1711417231048,1711417226081,2114778,0
1711417231048,1711417226122,2116493,0
1711417231048,1711417226162,2118596,0
1711417231048,1711417226202,2120521,0
1711417231048,1711417226242,2122509,0
1711417231048,1711417226282,2124614,0
1711417231048,1711417226322,2126166,0
1711417231048,1711417226362,2125534,0
1711417231048,1711417226403,2124458,0
1711417231048,1711417226442,2123948,0
1711417231048,1711417226483,2124338,0
1711417231048,1711417226523,2124898,0
1711417231048,1711417226563,2125789,0
1711417231048,1711417226604,2126774,0
1711417231048,1711417226643,2127478,0
1711417231048,1711417226683,2128216,0
1711417231048,1711417226723,2129305,0
1711417231048,1711417226763,2130707,0
1711417231048,1711417226804,2132232,0
1711417231048,1711417226844,2133872,0
1711417231048,1711417226883,2135585,0
1711417231048,1711417226924,2137297,0
1711417231048,1711417226964,2139243,0
1711417231048,1711417227005,2141131,0
1711417231048,1711417227044,2142975,0
1711417231048,1711417227084,2143350,0
1711417231048,1711417227124,2142005,0
1711417231048,1711417227164,2140857,0
1711417231048,1711417227205,2140748,0
1711417231048,1711417227244,2140907,0
1711417231048,1711417227284,2141421,0
1711417231048,1711417227325,2142002,0
1711417231048,1711417227365,2142299,0
1711417231048,1711417227405,2142450,0
1711417231048,1711417227445,2142893,0
1711417231048,1711417227485,2143648,0
1711417231048,1711417227525,2144526,0
1711417231048,1711417227565,2145556,0
1711417231048,1711417227606,2146525,0
1711417231048,1711417227645,2147744,0
1711417231048,1711417227686,2149025,0
1711417231048,1711417227726,2150242,0
1711417231048,1711417227766,2151144,0
1711417231048,1711417227807,2149565,0
1711417231048,1711417227846,2147501,0
1711417231048,1711417227886,2146244,0
1711417231048,1711417227926,2145722,0
1711417231048,1711417227966,2145688,0
1711417231048,1711417228007,2146026,0
1711417231048,1711417228047,2146160,0
1711417231048,1711417228087,2146214,0
1711417231048,1711417228127,2146297,0
1711417231048,1711417228167,2146796,0
1711417231048,1711417228208,2147418,0
1711417231048,1711417228247,2148346,0
1711417231048,1711417228287,2149350,0
1711417231048,1711417228327,2150493,0
1711417231048,1711417228367,2151633,0
1711417231048,1711417228408,2152540,0
1711417231048,1711417228448,2153457,0
1711417231048,1711417228488,2152244,0
1711417231048,1711417228528,2149106,0
1711417231048,1711417228568,2145921,0
1711417231048,1711417228609,2143810,0
1711417231048,1711417228648,2141964,0
1711417231048,1711417228688,2140662,0
1711417231048,1711417228728,2139574,0
1711417231048,1711417228768,2138329,0
1711417231048,1711417228809,2137018,0
1711417231048,1711417228849,2136074,0
1711417231048,1711417228889,2135784,0
1711417231048,1711417228929,2135622,0
1711417231048,1711417228969,2135670,0
1711417231048,1711417229010,2135991,0
1711417231048,1711417229049,2136384,0
1711417231048,1711417229089,2136857,0
1711417231048,1711417229130,2137421,0
1711417231048,1711417229169,2138123,0
1711417231048,1711417229210,2136255,0
1711417231048,1711417229250,2132319,0
1711417231048,1711417229290,2128850,0
1711417231048,1711417229330,2126496,0
1711417231048,1711417229370,2124873,0
1711417231048,1711417229411,2123849,0
1711417231048,1711417229450,2122859,0
1711417231048,1711417229491,2121450,0
1711417231048,1711417229531,2120087,0
1711417231048,1711417229571,2119189,0
1711417231048,1711417229612,2118727,0
1711417231048,1711417229651,2118574,0
1711417231048,1711417229691,2118525,0
1711417231048,1711417229731,2118615,0
1711417231048,1711417229771,2119077,0
1711417231048,1711417229812,2119508,0
1711417231048,1711417229852,2120038,0
1711417231048,1711417229892,2120021,0
1711417231048,1711417229932,2116774,0
1711417231048,1711417229972,2112526,0
1711417231048,1711417230013,2109327,0
1711417231048,1711417230052,2107531,0
1711417231048,1711417230092,2106475,0
1711417231048,1711417230132,2105984,0
1711417231048,1711417230172,2104755,0
1711417231048,1711417230213,2103449,0
1711417231048,1711417230252,2102327,0
1711417231048,1711417230293,2101711,0
1711417231048,1711417230333,2101813,0
1711417231048,1711417230373,2102045,0
1711417231048,1711417230414,2102499,0
1711417231048,1711417230453,2103029,0
1711417231048,1711417230493,2103545,0
1711417231048,1711417230533,2104290,0
1711417231048,1711417230574,2102818,0
1711417231048,1711417230614,2098715,0
1711417231048,1711417230654,2094719,0
1711417231048,1711417230694,2090284,0
1711417231048,1711417230734,2089548,0
1711417231048,1711417230774,2088991,0
1711417231048,1711417230815,2087788,0
1711417231048,1711417230854,2086315,0
1711417231048,1711417230894,2085646,0
1711417231048,1711417230934,2085322,0
1711417231048,1711417230974,2085234,0
1711417243088,1711417231013,2085497,0
1711417243088,1711417231052,2085898,0
1711417243088,1711417231092,2086403,0
1711417243088,1711417231132,2087147,0
1711417243088,1711417231173,2086930,0
1711417243088,1711417231213,2082860,0
1711417243088,1711417231253,2077951,0
1711417243088,1711417231293,2074451,0
1711417243088,1711417231333,2072052,0
1711417243088,1711417231373,2070337,0
1711417243088,1711417231414,2069422,0
1711417243088,1711417231453,2068229,0
1711417243088,1711417231493,2066788,0
1711417243088,1711417231533,2065734,0
1711417243088,1711417231573,2065254,0
1711417243088,1711417231614,2065090,0
1711417243088,1711417231654,2065389,0
1711417243088,1711417231693,2065818,0
1711417243088,1711417231734,2066372,0
1711417243088,1711417231774,2067233,0
1711417243088,1711417231814,2068209,0
1711417243088,1711417231854,2067435,0
1711417243088,1711417231894,2063258,0
1711417243088,1711417231934,2058674,0
1711417243088,1711417231974,2055692,0
1711417243088,1711417232015,2053541,0
1711417243088,1711417232054,2052157,0
1711417243088,1711417232094,2051358,0
1711417243088,1711417232134,2050537,0
1711417243088,1711417232174,2049441,0
1711417243088,1711417232215,2048870,0
1711417243088,1711417232255,2048848,0
1711417243088,1711417232295,2049453,0
1711417243088,1711417232335,2050202,0
1711417243088,1711417232375,2051140,0
1711417243088,1711417232416,2052276,0
1711417243088,1711417232455,2053529,0
1711417243088,1711417232495,2054921,0
1711417243088,1711417232535,2056138,0
1711417243088,1711417232575,2053802,0
1711417243088,1711417232616,2050078,0
1711417243088,1711417232655,2047535,0
1711417243088,1711417232696,2046219,0
1711417243088,1711417232736,2045485,0
1711417243088,1711417232776,2045396,0
1711417243088,1711417232816,2045309,0
1711417243088,1711417232856,2044670,0
1711417243088,1711417232896,2044379,0
1711417243088,1711417232936,2044663,0
1711417243088,1711417232976,2045516,0
1711417243088,1711417233017,2046667,0
1711417243088,1711417233056,2047971,0
1711417243088,1711417233097,2049205,0
1711417243088,1711417233136,2050721,0
1711417243088,1711417233177,2052405,0
1711417243088,1711417233218,2054108,0
1711417243088,1711417233257,2053777,0
1711417243088,1711417233297,2050956,0
1711417243088,1711417233337,2048528,0
1711417243088,1711417233377,2047495,0
1711417243088,1711417233418,2047216,0
1711417243088,1711417233457,2047676,0
1711417243088,1711417233497,2048069,0
1711417243088,1711417233537,2047933,0
1711417243088,1711417233578,2047807,0
1711417243088,1711417233618,2048428,0
1711417243088,1711417233658,2049408,0
1711417243088,1711417233698,2050790,0
1711417243088,1711417233738,2052174,0
1711417243088,1711417233778,2053607,0
1711417243088,1711417233819,2055181,0
1711417243088,1711417233858,2056879,0
1711417243088,1711417233898,2058728,0
1711417243088,1711417233938,2060216,0
1711417243088,1711417233978,2058806,0
1711417243088,1711417234019,2055980,0
1711417243088,1711417234059,2054147,0
1711417243088,1711417234099,2053588,0
1711417243088,1711417234139,2053428,0
1711417243088,1711417234179,2053890,0
1711417243088,1711417234220,2054159,0
1711417243088,1711417234259,2054262,0
1711417243088,1711417234299,2054449,0
1711417243088,1711417234339,2055016,0
1711417243088,1711417234379,2056259,0
1711417243088,1711417234420,2057620,0
1711417243088,1711417234459,2059184,0
1711417243088,1711417234499,2060826,0
1711417243088,1711417234540,2062563,0
1711417243088,1711417234580,2064236,0
1711417243088,1711417234621,2066068,0
1711417243088,1711417234660,2067822,0
1711417243088,1711417234700,2067071,0
1711417243088,1711417234740,2064857,0
1711417243088,1711417234780,2063367,0
1711417243088,1711417234821,2062931,0
1711417243088,1711417234860,2062697,0
1711417243088,1711417234901,2063235,0
1711417243088,1711417234941,2063749,0
1711417243088,1711417234981,2063978,0
1711417243088,1711417235022,2064497,0
1711417243088,1711417235061,2065378,0
1711417243088,1711417235101,2066736,0
1711417243088,1711417235141,2068295,0
1711417243088,1711417235181,2069830,0
1711417243088,1711417235222,2071769,0
1711417243088,1711417235262,2073552,0
1711417243088,1711417235301,2075383,0
1711417243088,1711417235342,2077558,0
1711417243088,1711417235382,2079599,0
1711417243088,1711417235422,2080756,0
1711417243088,1711417235462,2079551,0
1711417243088,1711417235502,2078195,0
1711417243088,1711417235542,2077914,0
1711417243088,1711417235582,2078280,0
1711417243088,1711417235623,2079116,0
1711417243088,1711417235662,2080085,0
1711417243088,1711417235702,2080806,0
1711417243088,1711417235743,2081428,0
1711417243088,1711417235783,2082215,0
1711417243088,1711417235823,2083454,0
1711417243088,1711417235863,2085063,0
1711417243088,1711417235903,2086721,0
1711417243088,1711417235943,2088422,0
1711417243088,1711417235983,2090127,0
1711417243088,1711417236024,2091827,0
1711417243088,1711417236063,2093687,0
1711417243088,1711417236103,2095729,0
1711417243088,1711417236144,2097506,0
1711417243088,1711417236184,2097139,0
1711417243088,1711417236225,2095788,0
1711417243088,1711417236264,2095217,0
1711417243088,1711417236304,2095555,0
1711417243088,1711417236344,2096195,0
1711417243088,1711417236384,2097148,0
1711417243088,1711417236425,2097932,0
1711417243088,1711417236465,2098421,0
1711417243088,1711417236504,2099055,0
1711417243088,1711417236545,2100106,0
1711417243088,1711417236585,2101576,0
1711417243088,1711417236625,2102995,0
1711417243088,1711417236665,2104547,0
1711417243088,1711417236705,2106179,0
1711417243088,1711417236745,2107670,0
1711417243088,1711417236785,2109215,0
1711417243088,1711417236826,2110997,0
1711417243088,1711417236865,2112778,0
1711417243088,1711417236906,2113480,0
1711417243088,1711417236946,2112188,0
1711417243088,1711417236986,2110765,0
1711417243088,1711417237027,2110506,0
1711417243088,1711417237066,2110582,0
1711417243088,1711417237106,2111120,0
1711417243088,1711417237146,2111654,0
1711417243088,1711417237186,2112251,0
1711417243088,1711417237227,2112496,0
1711417243088,1711417237266,2112972,0
1711417243088,1711417237307,2114059,0
1711417243088,1711417237347,2115162,0
1711417243088,1711417237387,2116418,0
1711417243088,1711417237428,2117625,0
1711417243088,1711417237467,2118938,0
1711417243088,1711417237507,2120384,0
1711417243088,1711417237547,2121823,0
1711417243088,1711417237587,2123398,0
1711417243088,1711417237628,2125034,0
1711417243088,1711417237668,2125396,0
1711417243088,1711417237708,2123605,0
1711417243088,1711417237748,2121869,0
1711417243088,1711417237788,2121133,0
1711417243088,1711417237829,2120845,0
1711417243088,1711417237868,2120759,0
1711417243088,1711417237909,2121011,0
1711417243088,1711417237949,2120825,0
1711417243088,1711417237989,2120810,0
1711417243088,1711417238030,2120970,0
1711417243088,1711417238069,2121557,0
1711417243088,1711417238109,2122318,0
1711417243088,1711417238149,2123309,0
1711417243088,1711417238189,2124418,0
1711417243088,1711417238230,2125383,0
1711417243088,1711417238270,2126473,0
1711417243088,1711417238310,2127424,0
1711417243088,1711417238350,2128707,0
1711417243088,1711417238390,2129912,0
1711417243088,1711417238431,2131017,0
1711417243088,1711417238470,2129833,0
1711417243088,1711417238510,2127424,0
1711417243088,1711417238550,2125738,0
1711417243088,1711417238591,2124528,0
1711417243088,1711417238631,2123672,0
1711417243088,1711417238671,2123254,0
1711417243088,1711417238711,2122961,0
1711417243088,1711417238751,2122519,0
1711417243088,1711417238791,2122084,0
1711417243088,1711417238832,2121959,0
1711417243088,1711417238871,2122143,0
1711417243088,1711417238911,2122722,0
1711417243088,1711417238951,2123163,0
1711417243088,1711417238991,2123863,0
1711417243088,1711417239032,2124448,0
1711417243088,1711417239071,2125400,0
1711417243088,1711417239111,2126163,0
1711417243088,1711417239151,2127097,0
1711417243088,1711417239192,2128372,0
1711417243088,1711417239235,2129133,0
1711417243088,1711417239272,2127300,0
1711417243088,1711417239312,2124726,0
1711417243088,1711417239352,2123003,0
1711417243088,1711417239392,2121775,0
1711417243088,1711417239433,2121012,0
1711417243088,1711417239472,2120660,0
1711417243088,1711417239512,2120204,0
1711417243088,1711417239552,2119350,0
1711417243088,1711417239593,2118921,0
1711417243088,1711417239633,2118916,0
1711417243088,1711417239673,2119074,0
1711417243088,1711417239713,2119450,0
1711417243088,1711417239753,2120034,0
1711417243088,1711417239793,2120759,0
1711417243088,1711417239834,2121271,0
1711417243088,1711417239873,2121955,0
1711417243088,1711417239913,2122734,0
1711417243088,1711417239953,2123702,0
1711417243088,1711417239993,2124226,0
1711417243088,1711417240034,2122266,0
1711417243088,1711417240073,2119778,0
1711417243088,1711417240113,2117973,0
1711417243088,1711417240153,2116831,0
1711417243088,1711417240194,2116297,0
1711417243088,1711417240234,2116010,0
1711417243088,1711417240274,2115571,0
1711417243088,1711417240314,2114852,0
1711417243088,1711417240354,2114243,0
1711417243088,1711417240394,2114212,0
1711417243088,1711417240435,2114425,0
1711417243088,1711417240474,2114835,0
1711417243088,1711417240514,2115319,0
1711417243088,1711417240554,2115875,0
1711417243088,1711417240594,2116545,0
1711417243088,1711417240635,2117078,0
1711417243088,1711417240675,2117621,0
1711417243088,1711417240715,2116037,0
1711417243088,1711417240755,2113195,0
1711417243088,1711417240795,2110934,0
1711417243088,1711417240836,2109497,0
1711417243088,1711417240875,2108768,0
1711417243088,1711417240915,2108259,0
1711417243088,1711417240955,2107340,0
1711417243088,1711417240995,2106290,0
1711417243088,1711417241036,2105372,0
1711417243088,1711417241075,2104960,0
1711417243088,1711417241115,2105033,0
1711417243088,1711417241156,2105119,0
1711417243088,1711417241196,2105292,0
1711417243088,1711417241236,2105595,0
1711417243088,1711417241276,2105991,0
1711417243088,1711417241316,2106340,0
1711417243088,1711417241356,2104122,0
1711417243088,1711417241396,2100551,0
1711417243088,1711417241440,2097419,0
1711417243088,1711417241476,2095190,0
1711417243088,1711417241516,2093279,0
1711417243088,1711417241556,2092085,0
1711417243088,1711417241596,2090947,0
1711417243088,1711417241637,2089629,0
1711417243088,1711417241677,2088345,0
1711417243088,1711417241717,2087636,0
1711417243088,1711417241757,2087415,0
1711417243088,1711417241797,2087288,0
1711417243088,1711417241838,2087358,0
1711417243088,1711417241877,2087513,0
1711417243088,1711417241917,2087815,0
1711417243088,1711417241957,2088054,0
1711417243088,1711417241998,2087011,0
1711417243088,1711417242038,2083047,0
1711417243088,1711417242078,2079241,0
1711417243088,1711417242118,2076237,0
1711417243088,1711417242158,2073431,0
1711417243088,1711417242198,2071233,0
1711417243088,1711417242239,2069801,0
1711417243088,1711417242278,2068542,0
1711417243088,1711417242318,2067033,0
1711417243088,1711417242358,2066032,0
1711417243088,1711417242398,2065409,0
1711417243088,1711417242439,2065260,0
1711417243088,1711417242479,2065410,0
1711417243088,1711417242519,2065604,0
1711417243088,1711417242559,2066197,0
1711417243088,1711417242599,2066636,0
1711417243088,1711417242640,2067451,0
1711417243088,1711417242679,2068227,0
1711417243088,1711417242719,2066796,0
1711417243088,1711417242759,2062986,0
1711417243088,1711417242799,2059771,0
1711417243088,1711417242840,2057118,0
1711417243088,1711417242880,2054795,0
1711417243088,1711417242920,2053271,0
1711417243088,1711417242960,2052250,0
1711417243088,1711417243000,2051338,0
1711417255091,1711417243041,2050441,0
1711417255091,1711417243080,2049982,0
1711417255091,1711417243120,2049993,0
1711417255091,1711417243160,2050420,0
1711417255091,1711417243201,2051103,0
1711417255091,1711417243241,2051924,0
1711417255091,1711417243281,2052907,0
1711417255091,1711417243321,2053953,0
1711417255091,1711417243361,2055198,0
1711417255091,1711417243401,2056636,0
1711417255091,1711417243442,2058271,0
1711417255091,1711417243481,2059893,0
1711417255091,1711417243521,2059226,0
1711417255091,1711417243562,2056318,0
1711417255091,1711417243602,2053821,0
1711417255091,1711417243642,2052172,0
1711417255091,1711417243682,2050709,0
1711417255091,1711417243722,2049976,0
1711417255091,1711417243762,2049745,0
1711417255091,1711417243802,2049403,0
1711417255091,1711417243843,2049095,0
1711417255091,1711417243882,2049275,0
1711417255091,1711417243923,2049706,0
1711417255091,1711417243963,2050744,0
1711417255091,1711417244003,2051965,0
1711417255091,1711417244044,2053167,0
1711417255091,1711417244083,2054531,0
1711417255091,1711417244123,2056036,0
1711417255091,1711417244163,2057595,0
1711417255091,1711417244203,2059319,0
1711417255091,1711417244244,2061278,0
1711417255091,1711417244284,2063485,0
1711417255091,1711417244324,2065561,0
1711417255091,1711417244364,2066699,0
1711417255091,1711417244404,2065068,0
1711417255091,1711417244445,2063407,0
1711417255091,1711417244484,2062552,0
1711417255091,1711417244524,2062355,0
1711417255091,1711417244564,2062595,0
1711417255091,1711417244604,2063107,0
1711417255091,1711417244645,2063636,0
1711417255091,1711417244685,2063935,0
1711417255091,1711417244725,2064668,0
1711417255091,1711417244765,2065754,0
1711417255091,1711417244805,2067280,0
1711417255091,1711417244846,2068921,0
1711417255091,1711417244885,2070528,0
1711417255091,1711417244925,2072342,0
1711417255091,1711417244965,2074066,0
1711417255091,1711417245006,2076091,0
1711417255091,1711417245046,2078110,0
1711417255091,1711417245086,2080200,0
1711417255091,1711417245126,2082541,0
1711417255091,1711417245166,2084733,0
1711417255091,1711417245206,2086917,0
1711417255091,1711417245247,2086706,0
1711417255091,1711417245286,2085581,0
1711417255091,1711417245326,2085179,0
1711417255091,1711417245367,2085413,0
1711417255091,1711417245407,2086000,0
1711417255091,1711417245448,2087142,0
1711417255091,1711417245487,2087858,0
1711417255091,1711417245527,2088536,0
1711417255091,1711417245567,2089265,0
1711417255091,1711417245607,2090408,0
1711417255091,1711417245648,2091881,0
1711417255091,1711417245687,2093366,0
1711417255091,1711417245728,2095096,0
1711417255091,1711417245768,2096584,0
1711417255091,1711417245808,2098378,0
1711417255091,1711417245849,2100198,0
1711417255091,1711417245888,2102130,0
1711417255091,1711417245928,2103997,0
1711417255091,1711417245968,2106057,0
1711417255091,1711417246008,2108108,0
1711417255091,1711417246049,2108430,0
1711417255091,1711417246089,2107260,0
1711417255091,1711417246129,2106552,0
1711417255091,1711417246169,2106639,0
1711417255091,1711417246209,2107096,0
1711417255091,1711417246250,2107946,0
1711417255091,1711417246289,2108862,0
1711417255091,1711417246329,2109326,0
1711417255091,1711417246369,2109972,0
1711417255091,1711417246409,2110953,0
1711417255091,1711417246450,2112182,0
1711417255091,1711417246490,2113506,0
1711417255091,1711417246530,2115013,0
1711417255091,1711417246570,2116541,0
1711417255091,1711417246610,2118011,0
1711417255091,1711417246651,2121253,0
1711417255091,1711417246690,2123050,0
1711417255091,1711417246730,2124812,0
1711417255091,1711417246770,2126632,0
1711417255091,1711417246810,2127148,0
1711417255091,1711417246851,2125940,0
1711417255091,1711417246890,2124681,0
1711417255091,1711417246931,2124421,0
1711417255091,1711417246971,2124532,0
1711417255091,1711417247011,2124865,0
1711417255091,1711417247051,2125330,0
1711417255091,1711417247091,2125737,0
1711417255091,1711417247131,2125991,0
1711417255091,1711417247171,2126377,0
1711417255091,1711417247211,2127228,0
1711417255091,1711417247252,2128319,0
1711417255091,1711417247291,2129474,0
1711417255091,1711417247331,2130763,0
1711417255091,1711417247371,2131832,0
1711417255091,1711417247411,2133233,0
1711417255091,1711417247452,2134517,0
1711417255091,1711417247491,2136055,0
1711417255091,1711417247532,2137505,0
1711417255091,1711417247572,2139007,0
1711417255091,1711417247612,2140428,0
1711417255091,1711417247653,2139567,0
1711417255091,1711417247692,2137859,0
1711417255091,1711417247732,2136551,0
1711417255091,1711417247772,2136178,0
1711417255091,1711417247812,2135902,0
1711417255091,1711417247853,2136021,0
1711417255091,1711417247892,2136167,0
1711417255091,1711417247932,2136201,0
1711417255091,1711417247972,2136214,0
1711417255091,1711417248013,2136463,0
1711417255091,1711417248053,2137134,0
1711417255091,1711417248093,2137916,0
1711417255091,1711417248133,2138905,0
1711417255091,1711417248173,2139858,0
1711417255091,1711417248213,2140799,0
1711417255091,1711417248254,2141906,0
1711417255091,1711417248293,2142950,0
1711417255091,1711417248333,2144089,0
1711417255091,1711417248373,2145370,0
1711417255091,1711417248413,2146745,0
1711417255091,1711417248454,2147947,0
1711417255091,1711417248494,2146796,0
1711417255091,1711417248533,2144501,0
1711417255091,1711417248574,2142898,0
1711417255091,1711417248614,2142136,0
1711417255091,1711417248654,2141601,0
1711417255091,1711417248694,2141433,0
1711417255091,1711417248734,2141315,0
1711417255091,1711417248774,2140923,0
1711417255091,1711417248814,2140684,0
1711417255091,1711417248855,2140598,0
1711417255091,1711417248894,2140986,0
1711417255091,1711417248934,2141438,0
1711417255091,1711417248974,2142053,0
1711417255091,1711417249014,2142896,0
1711417255091,1711417249055,2143608,0
1711417255091,1711417249095,2144428,0
1711417255091,1711417249135,2145378,0
1711417255091,1711417249175,2146388,0
1711417255091,1711417249215,2147366,0
1711417255091,1711417249255,2148624,0
1711417255091,1711417249295,2149242,0
