Timestamp,Cleaned_PPG
1711685648550,0.0
1711685648590,0.0
1711685648630,0.0
1711685648670,0.0
1711685648711,0.0
1711685648751,0.0
1711685648791,0.0
1711685648831,0.0
1711685648871,0.0
1711685648912,0.0
1711685648951,0.0
1711685648991,0.0
1711685649031,0.0
1711685649071,0.0
1711685649113,0.0
1711685649152,0.0
1711685649192,0.0
1711685649232,0.0
1711685649272,0.0
1711685649313,0.0
1711685649352,0.0
1711685649392,0.0
1711685649433,0.0
1711685649473,0.0
1711685649514,0.0
1711685649553,0.0
1711685649593,0.0
1711685649633,0.0
1711685649673,0.0
1711685649717,0.0
1711685649753,0.0
1711685649794,0.0
1711685649834,2087679.0
1711685649874,1957060.6536857088
1711685649915,1835460.4830881217
1711685649954,1721529.4416756497
1711685649994,1613707.1290883152
1711685650034,1512010.8336702161
1711685650074,1416959.1769354306
1711685650115,1328379.6963947676
1711685650154,1245988.331048232
1711685650194,1169199.1761496344
1711685650234,1097388.875006427
1711685650275,1030441.3493190536
1711685650316,967240.3298913487
1711685650355,908302.4650552259
1711685650395,852107.3286529845
1711685650435,793614.9853434111
1711685650475,737303.372377157
1711685650516,686215.2592537529
1711685650555,640192.7616043133
1711685650595,600024.311297554
1711685650635,560704.7718191782
1711685650676,530576.937747505
1711685650717,496728.704677165
1711685650756,464325.7172455541
1711685650796,437117.790808714
1711685650836,409000.38077686355
1711685650876,387703.7896683845
1711685650917,363376.822324106
1711685650956,340082.1104223069
1711685650996,319528.66019774904
1711685651036,302394.82263802784
1711685651076,285755.70089159394
1711685651117,269398.5728690522
1711685651157,249727.98515775544
1711685651197,226320.57491141
1711685651237,210025.29273679154
1711685651277,195054.60345916054
1711685651318,183613.09329145798
1711685651357,174770.87851950945
1711685651397,166539.9517773192
1711685651437,163040.51630500052
1711685651477,156698.74139141547
1711685651518,150405.85389792826
1711685651557,145981.7797996574
1711685651598,140178.27832704317
1711685651638,135138.23288235045
1711685651678,133899.5049984539
1711685651719,128738.58792033186
1711685651758,121238.28510795883
1711685651798,116217.47855959367
1711685651838,109893.25895481394
1711685651878,106480.62101175054
1711685651922,95004.81716106692
1711685651958,79141.4225784801
1711685651999,68246.00240055821
1711685652039,58557.94015007489
1711685652079,53352.28891252121
1711685652120,47290.277985445224
1711685652159,43583.18552225572
1711685652199,38731.41030302108
1711685652239,35956.80078924168
1711685652279,29085.848799312487
1711685652320,27420.535048234742
1711685652359,23701.806995510357
1711685652399,22519.469934908906
1711685652440,20642.745541041717
1711685652480,21112.005450751632
1711685652521,17980.198877796764
1711685652560,16682.135039817076
1711685652600,17802.509627375286
1711685652640,11530.253871880472
1711685652680,6081.524955178611
1711685652721,-680.6601780066267
1711685652760,-4415.032093627844
1711685652800,-5972.239122812636
1711685652841,-8877.133999209153
1711685652881,-8011.682964111911
1711685652922,-8587.389746129746
1711685652961,-11904.719149906654
1711685653001,-13789.12151066144
1711685653041,-12555.030739658512
1711685653081,-11877.554213639116
1711685653122,-10721.25150691322
1711685653161,-10398.16628910834
1711685653202,-9408.289688050281
1711685653242,-5681.325528424233
1711685653282,-3949.7687486009672
1711685653323,-3134.648652783595
1711685653362,-11006.842216015328
1711685653402,-13786.551778121153
1711685653442,-18924.77873584791
1711685653482,-18911.434691949515
1711685653523,-19495.51187890768
1711685653563,-17555.37721499987
1711685653603,-18083.25004902901
1711685653643,-18047.78232841543
1711685653683,-17669.316138739232
1711685653724,-17738.17928209738
1711685653763,-17083.41723758634
1711685653803,-15927.108415405266
1711685653843,-13727.245287429076
1711685653883,-13605.056508098729
1711685653924,-11496.611961064627
1711685653964,-10045.109270238783
1711685654004,-11758.291762413923
1711685654044,-17366.92849560012
1711685654084,-23721.078311898513
1711685654125,-23713.1291722029
1711685654164,-28002.30064019095
1711685654204,-19910.17131932499
1711685654244,-18151.003453778336
1711685654285,-16289.44713927363
1711685654326,-13071.35455363337
1711685654365,-11335.852113147266
1711685654405,-8798.906581422547
1711685654445,-5603.829141522292
1711685654485,-2384.9192233029753
1711685654526,-1592.9327081653755
1711685654565,4055.971246522153
1711685654605,9472.211776348064
1711685654646,11494.347955593374
1711685654686,12407.165484536905
1711685654727,8374.768468442373
1711685654766,3649.9764447216876
1711685654806,1953.6446189379785
1711685654846,1571.6655693929642
1711685654886,1584.9113559741527
1711685654927,-1883.5753723429516
1711685654966,-4629.266503721941
1711685655006,-2421.293950316729
1711685655046,-7402.49440961564
1711685655087,-3761.757482895162
1711685655128,-3902.606649936177
1711685655167,-5900.850989266997
1711685655207,-5829.266944496427
1711685655247,-7093.044143231818
1711685655287,-4178.10636672657
1711685655328,-3728.7531368662603
1711685655368,-784.0314168240875
1711685655408,-2244.8099168799818
1711685655448,-3144.5677613774315
1711685655488,-12303.113808191381
1711685655529,-13375.40047760075
1711685655568,-13065.38357975171
1711685655608,-15127.701452552341
1711685655648,-12805.532396008726
1711685655688,-14209.254908193368
1711685655730,-13697.019887873437
1711685655769,-11859.353572737426
1711685655809,-9471.669979500584
1711685655849,-11626.443579069804
1711685655889,-8148.112963736057
1711685655930,-7192.77921467647
1711685655970,-5870.547254588222
1711685656010,2282.386204597773
1711685656050,-14.740265643689781
1711685656090,666.2859927318059
1711685656131,4022.1624228332657
1711685656170,-2248.0456314703915
1711685656210,-1291.158779892372
1711685656250,-1046.632558491081
1711685656291,-2846.765529997181
1711685656332,1625.747951402096
1711685656371,-688.8947645402513
1711685656411,-1701.0305091226473
1711685656451,-1531.2717143709306
1711685656491,-2541.717211257899
1711685656532,-1007.6642256227788
1711685656572,-2367.918604222825
1711685656612,-1322.7811837741174
1711685656652,405.38679230143316
1711685656692,497.7774355453439
1711685656733,2200.1983993698377
1711685656772,3552.0005447478034
1711685656812,3919.9366520270705
1711685656852,1836.550612426363
1711685656893,-340.59284886647947
1711685656934,-2826.3996867875103
1711685656973,-2276.215043239761
1711685657013,-1066.5512396979611
1711685657053,-1837.4945608251728
1711685657093,-692.4428840370383
1711685657134,1860.224608522607
1711685657173,-1024.4570957617834
1711685657213,2638.576563954586
1711685657254,3841.9880102796014
1711685657294,2358.409801952308
1711685657335,9201.551794636063
1711685657374,10370.681887528859
1711685657414,8228.740256109275
1711685657454,10471.28840925591
1711685657494,11694.673049802426
1711685657535,10348.37831054721
1711685657574,6645.200615373906
1711685657614,3077.4180059183855
1711685657655,2359.8473659907468
1711685657695,1458.3933998816647
1711685657736,1211.1324912724085
1711685657775,2297.7961865596008
1711685657815,2027.2460869359784
1711685657855,3370.464507750701
1711685657895,4005.611308854539
1711685657936,2768.7474397295155
1711685657975,4373.242071506567
1711685658015,5034.2844505370595
1711685658055,5781.007766184863
1711685658096,7241.499143122695
1711685658137,7922.554238490295
1711685658176,8691.749643744202
1711685658216,8425.56418902846
1711685658256,9497.231941384729
1711685658296,4666.961239665281
1711685658337,1295.297721395269
1711685658376,1165.0277949739248
1711685658416,17.861683214548975
1711685658456,569.988534967415
1711685658497,560.6234906294849
1711685658537,2395.167512797052
1711685658577,1480.2618688638322
1711685658617,1173.096903046593
1711685658657,1941.612946670968
1711685658697,2367.156532085268
1711685658738,3516.516174425604
1711685658777,4418.731318512466
1711685658817,5227.414407767355
1711685658857,6316.999512483366
1711685658897,6495.466872957302
1711685658938,7004.261582444888
1711685658978,8957.493348127231
1711685659018,7824.420278256293
1711685659058,3979.916881888639
1711685659098,1271.3707548878156
1711685659139,-506.78535608993843
1711685659178,-995.5549422951881
1711685659218,415.51193672721274
1711685659258,1164.7261900987942
1711685659298,2047.152224922087
1711685659339,2124.502102638129
1711685659378,2144.8693045589607
1711685659419,1657.6585263009183
1711685659459,2151.787690207828
1711685659499,3845.482531655347
1711685659540,3618.302095757099
1711685659579,6202.378069229424
1711685659619,7140.268414349295
1711685659659,6814.225495953811
1711685659699,8536.047892188653
1711685659740,8394.499172100332
1711685659779,4341.589841441251
1711685659820,1406.2172623216175
1711685659860,9.47068093298003
1711685659900,-477.3658927460201
1711685659941,-945.2634657600429
1711685659980,709.7994210124016
1711685660020,1620.7744824676774
1711685660060,1475.2278431900777
1711685660100,1622.2933263659943
1711685660141,336.6831539077684
1711685660181,2160.173101176042
1711685660221,1887.8572858830448
1711685660261,2185.6289625668433
1711685660301,3542.738373927772
1711685660342,4351.652748782886
1711685660381,5147.303680407582
1711685660421,5769.102245135466
1711685660461,5133.789547461318
1711685660501,482.36315358499996
1711685660543,-3230.969791023992
1711685660581,-5262.934452737216
1711685660621,-5434.306520804297
1711685660661,-6230.399798614439
1711685660701,-5377.921499718446
1711685660742,-4785.923273040913
1711685660781,-4544.07059317315
1711685660821,-3867.7429127336945
1711685660862,-4382.114103657659
1711685660902,-3421.8910282510333
1711685660943,-2470.8896423093975
1711685660982,-1088.085066032596
1711685661022,500.4428834193386
1711685661062,1722.4870932810009
1711685661102,2119.4284719834104
1711685661143,3485.1693722431082
1711685661182,2393.5467679947615
1711685661222,-1200.2953462945297
1711685661263,-5502.829204500653
1711685661303,-8724.434181720018
1711685661344,-9729.237208063481
1711685661383,-10420.276577005628
1711685661423,-9411.90453953459
1711685661463,-9189.347105574096
1711685661504,-8981.87518121628
1711685661544,-9499.152516769245
1711685661584,-9243.986727422336
1711685661624,-8358.603939779103
1711685661664,-8046.852150819963
1711685661704,-6456.827459540218
1711685661745,-5180.1834338919725
1711685661784,-3949.8405343377963
1711685661824,-3446.661546480842
1711685661865,-2593.569842311321
1711685661905,-1545.1811725974549
1711685661946,-4261.918435648084
1711685661985,-8430.731919566635
1711685662025,-11256.636681426316
1711685662065,-12171.729385931045
1711685662105,-12439.09858180699
1711685662146,-11794.312679410446
1711685662185,-10124.108462079428
1711685662226,-10344.42049373174
1711685662266,-11025.11523277848
1711685662306,-11439.16024776455
1711685662347,-9038.852197547443
1711685662386,-6090.796519384719
1711685662426,-1131.132733025821
1711685662466,3510.82705207821
1711685662506,7104.960361591075
1711685662547,12640.406370130368
1711685662587,14901.003647428006
1711685662627,18589.890486693243
1711685662667,20371.474250799278
1711685662707,13209.861109787133
1711685662748,11885.647516322788
1711685662787,14401.01617925195
1711685662827,16305.891339540482
1711685662867,17183.120833606226
1711685662907,18708.906517076306
1711685662949,19759.755599898985
1711685662988,21266.19175955467
1711685663028,20901.418269898277
1711685663068,19721.657834429294
1711685663108,20514.474366643466
1711685663149,19386.441750847967
1711685663189,20714.780137707712
1711685663229,16629.954104030738
1711685663269,18682.611788354116
1711685663309,20209.57737891469
1711685663350,18358.89021727559
1711685663389,12171.615971995983
1711685663429,10404.611366387457
1711685663469,2627.3831228227355
1711685663510,1796.7733356149402
1711685663551,-206.8674608618021
1711685663590,962.9918918039184
1711685663630,-252.29645759123378
1711685663670,1154.9943849407136
1711685663710,-712.3888686446007
1711685663751,-2203.6345037422143
1711685663791,-1125.95319195115
1711685663831,-2252.8194455881603
1711685663871,2021.1554720494896
1711685663911,1138.2992997448891
1711685663952,3631.336536103394
1711685663991,4291.795898632845
1711685664032,4836.046588307712
1711685664072,265.19565527839586
1711685664112,-6025.841056043282
1711685664153,-11946.945647219662
1711685664192,-16516.201937353704
1711685664232,-18199.706473599188
1711685664272,-21181.420516721904
1711685664312,-21135.305347805377
1711685664353,-19977.945067090448
1711685664393,-19433.49492213549
1711685664433,-18219.840825900435
1711685664473,-18402.357533356408
1711685664513,-13540.665053495672
1711685664554,-14332.101562972879
1711685664593,-13107.116676215548
1711685664633,-10241.637744111009
1711685664673,-5120.746148669161
1711685664713,-6536.873379587196
1711685664755,-2352.2587463650852
1711685664794,-2689.8749148813076
1711685664834,-8488.135116527788
1711685664874,-15703.192469899543
1711685664914,-17908.890790050384
1711685664955,-19761.84363156045
1711685664994,-21380.096845901106
1711685665034,-21899.27585707931
1711685665074,-22310.06910381606
1711685665114,-22465.872142399196
1711685665155,-22261.682687663706
1711685665195,-21378.729269277304
1711685665235,-22310.153493877035
1711685665275,-22640.045294314856
1711685665315,-19384.8384075535
1711685665356,-15753.810198252555
1711685665395,-12708.175658378517
1711685665435,-10332.00566409016
1711685665475,-7518.9104502634145
1711685665515,-5581.168932975503
1711685665556,-7085.2060175810475
1711685665596,-12888.941072128713
1711685665636,-18056.908804053674
1711685665676,-19748.683523507323
1711685665716,-22365.745372772682
1711685665757,-22969.04942132067
1711685665796,-23079.123688586522
1711685665836,-24088.892592602642
1711685665876,-25472.615899371915
1711685665916,-26534.866513947723
1711685665957,-29111.42249451927
1711685665997,-27374.969308762113
1711685666037,-27804.237816344248
1711685666077,-27812.51711388561
1711685666117,-26029.633208863437
1711685666158,-24331.44804704166
1711685666197,-23233.793135944987
1711685666237,-22897.07646693918
1711685666277,-21483.84157014941
1711685666317,-27241.765812488273
1711685666358,-32324.53294766601
1711685666398,-35023.66551588103
1711685666438,-37471.12503347127
1711685666478,-39004.069152446464
1711685666518,-36623.051798182074
1711685666559,-33391.82840722427
1711685666598,-35630.89587460598
1711685666638,-35809.44564461708
1711685666678,-36119.043659145245
1711685666718,-35033.24753282126
1711685666759,-33018.81600259803
1711685666799,-31941.46967531275
1711685666839,-29669.784800108057
1711685666879,-28232.413510127226
1711685666919,-25913.549332316266
1711685666960,-24942.583272528835
1711685666999,-25550.150779520627
1711685667039,-31039.813165734988
1711685667079,-34065.277413795004
1711685667119,-35166.499621601775
1711685667160,-35054.75587336486
1711685667200,-33852.56128682103
1711685667240,-31506.882399004884
1711685667280,-30779.440929583507
1711685667320,-29651.054923233576
1711685667361,-29296.715919115115
1711685667400,-28295.06326743029
1711685667440,-26535.646149217384
1711685667480,-24645.380800543353
1711685667521,-22681.97897930001
1711685667561,-20805.079164056573
1711685667601,-17217.87925678701
1711685667641,-14736.523747805506
1711685667681,-13642.044607723132
1711685667721,-16235.427034787834
1711685667762,-19978.109291072935
1711685667801,-22434.17226347886
1711685667841,-22726.66778003564
1711685667882,-22542.972502971068
1711685667922,-20700.82073226059
1711685667962,-18809.636264717206
1711685668002,-17122.717380598653
1711685668042,-16188.720069071744
1711685668082,-15222.62437961204
1711685668122,-13865.972750400193
1711685668163,-12162.704010810703
1711685668203,-10111.77995950426
1711685668243,-7995.14077234501
1711685668283,-5586.630726534408
1711685668323,-2912.698441326618
1711685668364,-315.6470445985906
1711685668403,842.4268865995109
1711685668443,-1720.2497197645716
1711685668483,-4669.075764764799
1711685668523,-6519.52284321608
1711685668564,-6561.124535459559
1711685668604,-6361.687276650919
1711685668644,-5108.856476026354
1711685668684,-2965.066128118895
1711685668724,-1987.6578375559766
1711685668765,-720.2361505464651
1711685668804,290.3026061137207
1711685668844,895.417256466113
1711685668884,2087.695912232157
1711685668925,3569.717609112384
1711685668965,4802.648453711532
1711685669005,7017.836099588545
1711685669045,8084.751965519274
1711685669085,10090.384587985463
1711685669125,11605.306321057025
1711685669166,11222.62296241289
1711685669205,8128.3968448983505
1711685669245,6033.718664210523
1711685669286,6011.3121327084955
1711685669326,6568.047025032807
1711685669366,8050.488404204138
1711685669406,9097.195556628052
1711685669446,10220.610110370908
1711685669486,11295.60377578577
1711685669526,11619.026520271786
1711685669567,12303.922503099777
1711685669606,13282.103542551864
1711685669647,14495.924062879058
1711685669687,15864.070213297615
1711685669727,17019.55305568897
1711685669768,18242.234194512013
1711685669807,19337.693452359177
1711685669847,19731.14650572324
1711685669887,18740.53106359509
1711685669928,16714.05914352089
1711685669968,15406.900487212697
1711685670008,15578.869819257408
1711685670048,16255.561899316497
1711685670088,17947.15801518224
1711685670128,19073.95068639936
1711685670169,19106.702909895685
1711685670208,19433.073116427287
1711685670248,19730.604973202804
1711685670289,20157.3353810641
1711685670329,21401.88451133319
1711685670370,21955.644970949506
1711685670409,22990.493509224616
1711685670449,23476.161193595035
1711685670489,24339.38258439186
1711685670529,24713.80926309689
1711685670570,23411.904648941476
1711685670610,21030.03813889716
1711685670650,19004.357500758022
1711685670690,18936.764823914273
1711685670730,19379.23476872081
1711685670771,19532.893545080442
1711685670810,20696.72035322711
1711685670850,20827.95225622272
1711685670891,20830.614104710985
1711685670931,21048.315243793186
1711685670971,21103.260446562897
1711685671011,21339.705108737573
1711685671051,22768.859730138443
1711685671091,23638.453294791747
1711685671132,24691.94018421322
1711685671172,25199.792978678364
1711685671211,25564.171335977968
1711685671252,25197.74670244567
1711685671292,22077.79255248909
1711685671332,20582.144420291763
1711685671373,19458.73051640112
1711685671412,20165.075218860526
1711685671452,20712.652976942714
1711685671492,21726.556502736174
1711685671532,22237.128633634653
1711685671573,22134.25433319225
1711685671612,21051.783005075064
1711685671652,21446.399213030003
1711685671692,21305.448995761806
1711685671733,22347.683494672645
1711685671773,23121.451219091192
1711685671813,24148.509948127205
1711685671853,23576.698286591796
1711685671893,23584.41231912095
1711685671933,24052.701660615858
1711685671974,22636.20377624035
1711685672013,19955.40980392974
1711685672053,18119.42764678225
1711685672094,17716.00747262803
1711685672134,18244.976602615323
1711685672174,19265.577292741276
1711685672214,19449.16276212316
1711685672254,20148.012510023545
1711685672294,20212.838318855967
1711685672334,19586.480833327165
1711685672375,19104.308557212353
1711685672414,19064.941798496293
1711685672454,19901.285040254705
1711685672494,20168.971028370317
1711685672535,21092.476858341135
1711685672575,21689.988944614073
1711685672617,21992.526213622885
1711685672657,21250.655908899847
1711685672697,18754.581474634353
1711685672737,16550.23336342722
1711685672778,15051.080814339919
1711685672817,15615.926091187634
1711685672857,15866.381779493764
1711685672898,17023.21129168803
1711685672938,16914.254097157158
1711685672978,17547.143312402768
1711685673018,16882.600564940833
1711685673058,16538.922037680633
1711685673098,16691.41469856631
1711685673138,17613.57298419997
1711685673179,18244.21942973556
1711685673218,18568.28301587794
1711685673258,18730.24914946733
1711685673299,19653.774936977075
1711685673339,19156.483756363625
1711685673379,16965.900857152883
1711685673419,14465.058794658165
1711685673459,13041.469116864726
1711685673499,13688.129231924424
1711685673539,13769.487481804565
1711685673580,14115.567349385703
1711685673619,13952.682383131003
1711685673659,13868.315441118088
1711685673699,13497.529599026544
1711685673739,12617.371442456264
1711685673780,12745.531419802923
1711685673820,12513.51928616874
1711685673860,12733.798309363192
1711685673900,12691.094474262092
1711685673940,13074.155198701192
1711685673981,13859.261869621929
1711685674020,11294.619835769292
1711685674060,8203.789532916388
1711685674100,6214.669147353852
1711685674141,5511.447523637908
1711685674181,5366.685789929703
1711685674221,5657.199760603486
1711685674261,5127.606525863521
1711685674301,4478.22473243298
1711685674341,4028.3413276313804
1711685674382,3227.5204829501454
1711685674421,3001.0999768413603
1711685674461,3045.8324213959277
1711685674501,3812.2404514465015
1711685674541,4673.716250851052
1711685674582,5254.724579129368
1711685674622,5922.83603173052
1711685674662,5486.6436173142865
1711685674702,2343.657370635541
1711685674742,-937.8429220113903
1711685674783,-3381.3643640563823
1711685674822,-3527.6431957301684
1711685674862,-3992.4468017749023
1711685674902,-3687.5285132227
1711685674942,-3703.240905285813
1711685674983,-3623.319933442166
1711685675023,-4105.011421062518
1711685675063,-4683.8028827616945
1711685675103,-4956.357823867351
1711685675143,-4418.318936462514
1711685675184,-3630.2813381089363
1711685675223,-2777.1515341424383
1711685675263,-2775.5485903108492
1711685675303,-2323.1257501076907
1711685675344,-4266.136063927319
1711685675384,-8551.043182514142
1711685675424,-12368.548809395172
1711685675464,-14164.451529195998
1711685675504,-14526.450687190983
1711685675544,-14422.120583954733
1711685675585,-13463.561021910515
1711685675624,-13164.793591425521
1711685675665,-13558.919693003874
1711685675705,-13919.217645101948
1711685675745,-13949.549869451905
1711685675786,-13725.963812784757
1711685675825,-13172.321890219813
1711685675865,-12761.54971733829
1711685675905,-11602.541029141285
1711685675945,-10906.394901050255
1711685675986,-11421.3222324308
1711685676025,-14525.384759512264
1711685676066,-17586.458481800742
1711685676106,-19904.743874569656
1711685676146,-19857.299895872362
1711685676187,-19272.219182037283
1711685676226,-17849.468958705198
1711685676266,-17527.52681878861
1711685676306,-18030.17642992735
1711685676346,-17812.945749126375
1711685676387,-17308.879628482275
1711685676427,-16269.514224482933
1711685676467,-14957.573811934795
1711685676507,-13765.999791687587
1711685676547,-11914.490672784625
1711685676588,-10121.932854956482
1711685676627,-9804.122715231963
1711685676667,-12474.176806043368
1711685676707,-15362.75906047062
1711685676748,-16782.5531099434
1711685676789,-16782.402956666425
1711685676828,-16246.682670382317
1711685676868,-14682.851266487967
1711685676908,-13894.266119370237
1711685676948,-13270.300369133474
1711685676989,-13217.589066238608
1711685677029,-12676.732374183834
1711685677069,-12071.138325020438
1711685677109,-10720.404032676946
1711685677149,-9006.895118887536
1711685677190,-6787.1672761896625
1711685677229,-4795.822531515732
1711685677270,-3659.1025124168955
1711685677309,-4287.909232723061
1711685677350,-6902.593266170705
1711685677391,-7726.748551866505
1711685677430,-7761.379576623207
1711685677470,-6346.866728646681
1711685677510,-5187.105082222726
1711685677550,-3830.564425988123
1711685677591,-2274.2920008313376
1711685677631,-2172.530941668898
1711685677671,-1136.7768872955348
1711685677711,-973.5697671119124
1711685677751,4.969525542808697
1711685677792,1561.1816156478599
1711685677831,2268.6807874660008
1711685677872,3873.382680754643
1711685677912,4765.033322376665
1711685677952,3515.2509072872344
1711685677993,867.7857564412989
1711685678032,-1173.8101018622983
1711685678072,-1688.3018817594275
1711685678113,-1261.577596832998
1711685678153,110.42767268582247
1711685678193,1158.3292337660678
1711685678233,1965.608833828941
1711685678273,2040.5308459200896
1711685678313,2252.6444902541116
1711685678353,3183.4728117319755
1711685678394,3546.742398702074
1711685678433,3825.3552923328243
1711685678474,3722.0849760496058
1711685678514,3394.5588338370435
1711685678554,2220.176398583455
1711685678594,-2259.3087463863194
1711685678634,-5130.71157389693
1711685678674,-6655.2610841346905
1711685678714,-6502.64840722736
1711685678754,-6092.157426855294
1711685678795,-5346.2279104124755
1711685678834,-4157.881254513748
1711685678874,-4226.531998830149
1711685678914,-3481.810855628224
1711685678955,-2948.8716564564966
1711685678995,-1287.1397066484205
1711685679035,-155.49393070978113
1711685679075,1087.8607145971619
1711685679115,1949.866229744861
1711685679155,3558.6581356585957
1711685679196,4470.68597381725
1711685679235,2317.963063461706
1711685679275,375.6575446459465
1711685679315,-277.41428386676125
1711685679355,-38.467769119888544
1711685679396,853.9269974287599
1711685679436,1812.1453097448684
1711685679476,3653.852852754295
1711685679516,3781.8373766865116
1711685679556,4285.5986034350935
1711685679597,4904.006057638675
1711685679636,5454.776179964654
1711685679676,6074.974347355077
1711685679716,7114.1649152571335
1711685679756,8272.48230187688
1711685679797,9463.818212594837
1711685679836,10412.396135784686
1711685679877,11160.76535368897
1711685679917,9592.704783095978
1711685679957,7539.483630497707
1711685679998,6431.249831057154
1711685680037,6434.828388720285
1711685680077,7082.369174694642
1711685680117,7976.577074173605
1711685680157,8577.364758984884
1711685680198,8874.147701361217
1711685680237,8935.755493207835
1711685680278,9360.045714301988
1711685680318,9777.78322880622
1711685680358,10228.77954951115
1711685680399,10856.412083282601
1711685680438,11092.027613141108
1711685680478,11628.638399376534
1711685680518,12552.374903764576
1711685680558,13107.023600431625
1711685680599,12919.562669290695
1711685680639,11129.921309095807
1711685680679,9478.839826819487
1711685680719,9031.369070433546
1711685680759,8678.747047476936
1711685680799,10557.097000372596
1711685680839,12027.583389585372
1711685680879,11754.458302146988
1711685680919,12689.06905619055
1711685680959,13977.942743324442
1711685681000,14193.298774021678
1711685681039,14635.182436777279
1711685681079,15711.012283147546
1711685681120,15822.819534632843
1711685681160,16358.014304973185
1711685681200,17048.340886462945
1711685681240,17307.826922733802
1711685681280,17492.60177192581
1711685681320,15672.123543631285
1711685681360,14331.051008341601
1711685681401,12975.376041129231
1711685681440,13528.744202404749
1711685681480,14063.769648273243
1711685681520,14499.666892020497
1711685681561,15095.32529460569
1711685681601,15167.82340890402
1711685681641,14374.424592795316
1711685681681,14366.12399016926
1711685681721,14230.326800139155
1711685681761,14460.646656307392
1711685681802,15084.454521303764
1711685681841,15619.223764811642
1711685681881,15378.813926993404
1711685681921,16088.723477673717
1711685681962,16659.69101405004
1711685682002,16155.487048259005
1711685682042,14760.686467823805
1711685682082,11873.419328536838
1711685682122,10547.037823433056
1711685682162,11722.56308255787
1711685682203,11655.762173824012
1711685682242,11925.651320446981
1711685682282,12483.760897014756
1711685682322,12365.939572714036
1711685682362,12384.339676839765
1711685682403,12546.642589920666
1711685682443,12685.608208192047
1711685682483,12742.793511931784
1711685682523,13575.68737091124
1711685682563,13658.146218058653
1711685682604,13714.173127152957
1711685682643,14121.104622183368
1711685682683,14006.667267145356
1711685682723,13511.07858215645
1711685682763,11365.754909405485
1711685682804,10449.48317260947
1711685682844,10053.967733182944
1711685682884,10758.785464097746
1711685682924,11517.766461993568
1711685682964,12293.25774351391
1711685683005,12276.963301871903
1711685683044,12657.474309798097
1711685683084,12794.85402162699
1711685683124,12799.995037993183
1711685683165,12861.474317573011
1711685683205,13184.839967252454
1711685683245,13706.092566309497
1711685683285,14457.917669382412
1711685683325,14276.220758658368
1711685683365,14823.869950874243
1711685683406,13543.476580102695
1711685683445,11564.611183843343
1711685683486,9949.339088664856
1711685683526,9491.413036340382
1711685683566,9331.05936444318
1711685683607,10135.386683683842
1711685683646,10501.076307422016
1711685683686,11023.432313492056
1711685683726,10896.984585708007
1711685683766,11202.517735146917
1711685683807,10916.010153901065
1711685683847,11140.865279202582
1711685683887,11663.170444089454
1711685683927,12185.957354962127
1711685683967,12716.04621634027
1711685684008,12783.548795403913
1711685684047,12887.23690549517
1711685684087,12353.377125712344
1711685684128,9866.934091169853
1711685684168,6939.699583823327
1711685684208,5446.101687172893
1711685684248,5268.441198524786
1711685684288,5652.645470498363
1711685684328,6182.494166328106
1711685684368,6120.80114213936
1711685684409,6050.67586938059
1711685684448,5651.703103667591
1711685684489,5365.226675400976
1711685684529,5466.457493830705
1711685684569,5594.120655670296
1711685684610,6102.802454132121
1711685684649,6752.590409669559
1711685684689,7301.295141290873
1711685684729,7067.158051072154
1711685684769,7387.605209514033
1711685684810,5542.879527818644
1711685684849,2602.7991115099285
1711685684889,-565.3789471173659
1711685684930,-1163.2771343705244
1711685684970,-1574.054626391502
1711685685011,-1297.176448408747
1711685685050,-1380.5212482735515
1711685685090,-1093.9370581051335
1711685685130,-1006.1199884589296
1711685685170,-1408.6810579961166
1711685685211,-1916.2845273900311
1711685685250,-1697.6673699070234
1711685685291,-1132.473426971119
1711685685331,-535.166437507607
1711685685371,-181.50881453277543
1711685685412,497.2163938176818
1711685685451,1126.3252291679382
1711685685491,725.2025238012429
1711685685531,-2096.881633734796
1711685685571,-5381.283333600266
1711685685612,-7158.797043024097
1711685685652,-7600.891559655778
1711685685692,-8750.965271724854
1711685685732,-7873.188535274239
1711685685772,-7854.932776043424
1711685685813,-7955.780939520337
1711685685852,-8294.467393716797
1711685685892,-8853.936984258704
1711685685933,-8774.653071147623
1711685685973,-7763.26598914084
1711685686013,-6986.9296378663275
1711685686053,-6223.024283530191
1711685686093,-6036.06269182195
1711685686133,-5917.872666825773
1711685686173,-5445.433520139661
1711685686214,-7807.531588864978
1711685686253,-11213.006065163296
1711685686293,-12899.499608240789
1711685686333,-13326.020240047947
1711685686373,-13159.45454529021
1711685686414,-12827.058358179173
1711685686453,-12197.965285459999
1711685686493,-12564.66772885248
1711685686534,-12670.164944787975
1711685686574,-13120.808397099841
1711685686614,-13096.823564620456
1711685686654,-12577.047091293614
1711685686694,-12158.922732960433
1711685686734,-11632.757042951649
1711685686774,-11400.413987948094
1711685686815,-14495.225060313009
1711685686854,-16108.155910880305
1711685686894,-28161.75151918386
1711685686934,-53326.404360979795
1711685686975,-54162.739064010326
1711685687015,-55723.66405997146
1711685687055,-57926.769273363054
1711685687095,-49333.88822805043
1711685687135,-38416.30836759112
1711685687175,-24355.39934127871
1711685687216,-8679.03488165699
1711685687255,9528.887239727192
1711685687295,13463.31731289532
1711685687335,11937.416251804214
1711685687376,9278.333831142634
1711685687416,-11252.04840247496
1711685687456,-9505.954659109935
1711685687496,-42189.23141897749
1711685687536,-40623.240989347454
1711685687576,-52396.51736349589
1711685687617,-62214.686690341216
1711685687656,-57763.10925364774
1711685687696,-52393.08961230586
1711685687736,-56320.40256501734
1711685687776,-55958.642558173975
1711685687817,-50971.61843181308
1711685687857,-49393.33581611165
1711685687897,-43807.6486288188
1711685687937,-47701.574453763664
1711685687977,-38191.52561742673
1711685688018,-27786.933453814592
1711685688057,-35541.81761381985
1711685688097,-38755.67187681422
1711685688137,-30742.036956148455
1711685688177,-31884.678511268692
1711685688218,-22957.899819457904
1711685688257,-37045.855010093655
1711685688298,-53894.43473429652
1711685688338,-53851.070546498755
1711685688378,-57362.2126561678
1711685688419,-57472.50936367735
1711685688458,-52204.355008205865
1711685688498,-56908.83249937254
1711685688538,-68802.52095383964
1711685688578,-75026.49469980109
1711685688619,-82702.9183653316
1711685688658,-89858.09993954538
1711685688699,-87083.32262385823
1711685688739,-89182.91312769707
1711685688779,-74658.65989471413
1711685688820,-80323.82430673297
1711685688859,-68066.55867522722
1711685688899,-60406.05038994807
1711685688939,-73508.61508495454
1711685688979,-65291.66428979207
1711685689020,-47246.250293124
1711685689059,-34088.75278148893
1711685689099,-24794.002417826792
1711685689139,-8761.720027839765
1711685689180,-8672.806499256752
1711685689220,8244.87465663976
1711685689260,6266.228564836318
1711685689300,2227.872335824184
1711685689340,15834.094349530526
1711685689380,20113.751262599137
1711685689421,15079.4497645339
1711685689460,24800.330908305477
1711685689500,32571.116653255653
1711685689541,24406.32049762504
1711685689580,24932.131506417412
1711685689621,25587.266624130774
1711685689661,31282.65184250544
1711685689701,13748.230643302202
1711685689741,14048.112948178547
1711685689781,10807.990150214173
1711685689822,8118.633799094707
1711685689861,7461.267704708967
1711685689901,12161.948941385373
1711685689941,16570.992767768912
1711685689982,33058.717211446725
1711685690023,33239.574205394136
1711685690062,51078.70512609603
1711685690102,60157.408888941165
1711685690142,60677.87050183397
1711685690182,58710.75504752481
1711685690223,64519.886155684246
1711685690263,50812.33687770646
1711685690303,37817.7743507158
1711685690343,34522.81068890635
1711685690383,28451.892406276893
1711685690424,19506.89301772602
1711685690463,19663.534283048008
1711685690503,11279.008698976133
1711685690543,7481.889256375609
1711685690583,7520.293036219198
1711685690624,7424.409475207329
1711685690664,12316.357913970714
1711685690704,9854.6440553586
1711685690744,7897.467567938147
1711685690784,3423.2327188570052
1711685690825,6407.640385004692
1711685690864,7085.266407626681
1711685690904,947.6564465633128
1711685690944,-348.9205164196901
1711685690985,21156.725953219924
1711685691025,16048.717175136786
1711685691065,18616.613025749335
1711685691105,18318.615903437603
1711685691145,18846.385739895515
1711685691185,16882.017968138214
1711685691226,17014.942509002518
1711685691265,16580.68614916224
1711685691305,16827.072671132162
1711685691346,17559.894669844536
1711685691386,17348.837358040037
1711685691426,18885.228538691998
1711685691466,19258.70774173364
1711685691506,17603.266674437094
1711685691546,14721.574740636628
1711685691586,13848.210000443272
1711685691627,13528.634288341738
1711685691666,14088.275900064968
1711685691707,14673.826293307822
1711685691747,15540.722639549058
1711685691787,14948.845530306455
1711685691828,14657.92089117691
1711685691867,15023.845528522972
1711685691907,14889.02047490282
1711685691947,14858.635598084657
1711685691987,16032.569549492095
1711685692028,17066.169573506573
1711685692068,18639.95266018738
1711685692108,19511.901601084974
1711685692148,19532.188101456966
1711685692188,18113.332403211854
1711685692228,16798.061498680618
1711685692268,16555.94509967789
1711685692308,16379.853957862826
1711685692348,17011.081237347564
1711685692388,18471.312019885052
1711685692429,19317.146372476127
1711685692469,20056.870917905122
1711685692509,19513.16621726565
1711685692549,19570.465321279364
1711685692589,20367.98521074513
1711685692630,20479.55524377548
1711685692669,21147.112752505578
1711685692709,21186.007769413525
1711685692749,21938.43552560592
1711685692790,21430.716750930995
1711685692830,19835.641471215524
1711685692870,18280.857924480224
1711685692910,17428.841841735877
1711685692950,17206.387678505387
1711685692990,17893.167862438597
1711685693031,18506.79654688458
1711685693070,19411.21063629724
1711685693111,19827.29019825696
1711685693151,19530.826891096774
1711685693191,19689.83824620582
1711685693231,20102.372415911872
1711685693271,20323.72612060653
1711685693311,20240.110498863738
1711685693351,21135.546309187543
1711685693391,21561.87452860037
1711685693432,20691.984147497453
1711685693471,18080.73122196016
1711685693512,16637.66489551426
1711685693552,15502.864381267224
1711685693592,16000.041642975993
1711685693633,16583.930867783725
1711685693672,17947.662928594276
1711685693712,16989.521823168965
1711685693753,16615.815207682084
1711685693793,17274.766025930177
1711685693833,16929.887618565466
1711685693873,16687.158896239474
1711685693913,16864.650006912183
1711685693953,17431.66577506205
1711685693993,17981.25531584001
1711685694034,16983.060057221446
1711685694073,14791.241754057119
1711685694113,12979.724538297392
1711685694153,12593.627090938622
1711685694193,12819.434017121559
1711685694234,13879.00845022127
1711685694274,14600.100622588303
1711685694314,15003.033533146605
1711685694354,15173.529037460918
1711685694394,14873.825455503538
1711685694435,14529.133287083125
1711685694474,14602.891449138056
1711685694514,14843.714308709837
1711685694554,15177.905070832
1711685694594,15978.054887438891
1711685694635,15692.059632157441
1711685694675,14512.632969942875
1711685694715,12006.056080122013
1711685694755,10828.888679007534
1711685694795,10100.442039483925
1711685694836,9835.148586528376
1711685694875,10323.84254124295
1711685694915,10766.86146237445
1711685694955,11061.817303366028
1711685694995,11318.389773889678
1711685695036,11017.462888183538
1711685695076,10527.70450062817
1711685695116,10592.403794526355
1711685695156,11175.079805705464
1711685695196,11860.769563924056
1711685695237,12637.453204434365
1711685695276,12654.728847317165
1711685695316,10496.38614870049
1711685695356,7995.316439786693
1711685695396,6960.056458519306
1711685695437,4876.644286367344
1711685695476,5947.7638130728155
1711685695516,3963.9316463121213
1711685695557,2616.9391543453094
1711685695597,731.0624672095291
1711685695637,4589.47312893183
1711685695677,8012.705352427671
1711685695717,11222.666724330746
1711685695757,20459.847017127555
1711685695797,28137.051670545945
1711685695838,40183.29210134875
1711685695877,45910.066387705505
1711685695918,37877.06004886655
1711685695958,22132.910327541642
1711685695998,16206.360485053156
1711685696039,10086.279275796143
1711685696078,5911.538534224732
1711685696118,3470.8893337592017
1711685696158,1783.9085341051687
1711685696198,874.6677721526939
1711685696239,-181.16283961106092
1711685696279,-514.262938672211
1711685696319,-1936.1795128392987
1711685696359,-1479.9443533695303
1711685696399,-1984.4160927578341
1711685696439,-1479.3216098076664
1711685696479,-1697.3049189615995
1711685696519,-1453.4123076656833
1711685696559,-3844.5279448446818
1711685696599,-8412.600519221509
1711685696640,-13186.720958822872
1711685696679,-16315.394239340909
1711685696720,-16912.590627225116
1711685696760,-16907.5309029785
1711685696800,-14471.934189282358
1711685696841,-12966.343208125327
1711685696880,-10969.306820372585
1711685696920,-13379.5704186121
1711685696960,-14954.90768301324
1711685697001,-15791.798790154979
1711685697041,-22323.89674732834
1711685697081,-27750.57217621198
1711685697121,-37503.51098980522
1711685697161,-42492.03826953005
1711685697201,-38592.5484048333
1711685697242,-30936.465472366894
1711685697281,-35862.939766481984
1711685697321,-33214.314706321806
1711685697362,-34330.953420889564
1711685697402,-32867.58439302957
1711685697442,-32107.956859832164
1711685697482,-32689.7605837211
1711685697522,-33024.394589148695
1711685697562,-35272.02026281203
1711685697603,-35017.40363793308
1711685697643,-35839.62007636228
1711685697683,-34725.87836799724
1711685697723,-33257.953144543106
1711685697763,-31965.452326919418
1711685697803,-30889.360541634727
1711685697844,-34407.19644118985
1711685697883,-40578.88820588612
1711685697923,-43651.92005322268
1711685697964,-45013.419609158766
1711685698004,-44409.753940264694
1711685698045,-43655.938741635764
1711685698084,-42481.543306002626
1711685698124,-42239.37593633123
1711685698164,-42084.46518303454
1711685698205,-42781.42106571887
1711685698245,-42317.9741003681
1711685698285,-40834.0038919833
1711685698325,-38607.459619863424
1711685698365,-36919.607542316895
1711685698405,-35044.32460838696
1711685698446,-33897.97029503714
1711685698486,-36506.95293493895
1711685698526,-43207.317811600864
1711685698566,-45124.988383141346
1711685698606,-48436.88323269738
1711685698647,-47861.50548083894
1711685698686,-46513.58734032861
1711685698726,-44524.44576244522
1711685698767,-43246.859037668444
1711685698807,-42553.0238664255
1711685698848,-41517.58125526481
1711685698887,-39648.17138472316
1711685698927,-36965.13161227573
1711685698967,-34053.11501822481
1711685699007,-31589.455278192414
1711685699048,-29437.873696665512
1711685699088,-28555.725752529688
1711685699128,-31933.788467301987
1711685699168,-35258.556852077134
1711685699208,-36735.71090426622
1711685699249,-36321.49895654083
1711685699288,-34727.53938571154
1711685699328,-32705.450333180605
1711685699369,-31278.383655020036
1711685699409,-29895.64013018785
1711685699449,-29197.719199750572
1711685699489,-27563.018430040684
1711685699529,-25218.767392247682
1711685699569,-23114.021610828582
1711685699609,-20727.654026404023
1711685699650,-17670.695614613593
1711685699690,-14987.597469688859
1711685699730,-13708.276426461525
1711685699770,-16900.769716116367
1711685699810,-19941.654154621065
1711685699851,-21353.60930820275
1711685699890,-21168.80241593183
1711685699930,-19721.09059698088
1711685699971,-17837.42539358884
1711685700011,-16560.389281314332
1711685700052,-15345.098880678881
1711685700091,-14591.85997439595
1711685700131,-12889.737204262754
1711685700171,-10786.752611706499
1711685700212,-8297.643301685574
1711685700252,-6004.857098973822
1711685700292,-3468.5404913206585
1711685700332,-236.93649526545778
1711685700372,1739.2992076263763
1711685700412,898.8544799580704
1711685700453,-3008.9679925600067
1711685700492,-4685.224008936435
1711685700532,-4982.118069421966
1711685700572,-4150.749980978202
1711685700613,-3387.4344095839188
1711685700653,-2086.4716186402366
1711685700693,-1064.9895236077718
1711685700733,-609.0134170651436
1711685700773,-61.604180314112455
1711685700813,781.9366720262915
1711685700854,2282.2215541307814
1711685700893,4498.428101581987
1711685700933,5715.78348075971
1711685700974,7361.100623753853
1711685701014,8939.21080710832
1711685701054,11039.125247523654
1711685701094,11304.551192497369
1711685701134,9308.59913334297
1711685701174,7066.602325248998
1711685701214,5829.693138584495
1711685701255,6057.319838261697
1711685701294,6711.9597659108695
1711685701334,7459.762697925558
1711685701374,8765.611149438191
1711685701415,9067.015626225388
1711685701456,9556.080322273541
1711685701495,9858.299938418437
1711685701535,10721.804268904496
1711685701575,12003.87879030942
1711685701615,12715.396788758691
1711685701656,14262.415849159472
1711685701695,15645.620153422933
1711685701735,17069.33119416819
1711685701775,18261.737114561256
1711685701816,18385.441115206107
1711685701856,16843.657265800284
1711685701896,14701.204616178293
1711685701936,13741.643183275592
1711685701976,13595.514909713995
1711685702016,14038.641675981693
1711685702057,14880.537340800744
1711685702096,15485.190335383173
1711685702136,15527.62960020639
1711685702176,15191.285886090714
1711685702217,15606.819064905401
1711685702257,15964.114561734954
1711685702297,16818.696787879337
1711685702337,17260.89629620174
1711685702377,18193.684399141697
1711685702417,19340.894820074784
1711685702458,20090.16626322735
1711685702497,20598.084089834476
1711685702537,20757.042525479803
1711685702577,18960.142529113684
1711685702617,17636.587502634153
1711685702658,16729.61446118867
1711685702698,17272.425728466827
1711685702738,17630.894629963208
1711685702778,17992.799577269703
1711685702818,18822.96464216383
1711685702859,18793.01625689119
1711685702898,18423.420603680424
1711685702938,18452.778919663513
1711685702979,18923.989414905198
1711685703019,19449.82639937941
1711685703059,19931.90408268175
1711685703099,20616.53496530489
1711685703139,20850.741606387543
1711685703179,21274.420090482337
1711685703219,21473.564626487205
1711685703260,19463.177924093092
1711685703300,17185.682570995763
1711685703340,16677.839724666905
1711685703380,16424.01704340102
1711685703420,16913.73769253958
1711685703461,17328.69223418832
1711685703500,18184.762772254413
1711685703540,17837.010676394217
1711685703580,17614.92978899018
1711685703621,17719.520325911464
1711685703661,18084.12166913878
1711685703701,18310.421561262803
1711685703741,18307.1559957047
1711685703781,18890.549924814608
1711685703821,18807.831865882967
1711685703862,19408.109876106028
1711685703901,18528.708642431535
1711685703941,16128.618748076493
1711685703982,13940.500568727963
1711685704021,12712.575855229981
1711685704062,12678.011483294424
1711685704102,12294.60066395346
1711685704142,13148.511143771466
1711685704182,12862.955426868517
1711685704222,12440.110475942027
1711685704263,12424.630125177093
1711685704302,12052.617017495912
1711685704343,12671.349308098434
1711685704383,13559.15884606447
1711685704423,14203.292017809115
1711685704464,14527.8943009465
1711685704503,14844.82730452763
1711685704543,14838.491114151198
1711685704583,15110.855602841591
1711685704623,13195.038244004129
1711685704664,11316.252991300542
1711685704704,8366.644201535964
1711685704744,6894.51741162315
1711685704784,5911.641946564894
1711685704824,6388.1193101492245
1711685704867,7599.203713960014
1711685704904,7983.898717427161
1711685704944,7654.934332079254
1711685704984,7658.381524203345
1711685705024,8359.365855993237
1711685705065,9782.607696138788
1711685705105,10890.15267539001
1711685705145,11777.725830940064
1711685705185,12901.307557728142
1711685705225,12844.282411511522
1711685705266,13867.213965405012
1711685705305,12228.264333373867
1711685705345,9550.330809563398
1711685705385,7754.992107603233
1711685705426,6502.143519949401
1711685705466,6709.23413476022
1711685705506,7543.273215184454
1711685705546,7663.894707119092
1711685705586,7707.409960859688
1711685705626,7068.997025602497
1711685705667,6721.614296071697
1711685705706,6483.483367311768
1711685705746,7082.409674074734
1711685705787,7625.508086376358
1711685705827,8661.125645866152
1711685705868,9551.041871455032
1711685705907,10046.972489936743
1711685705947,9457.735573155805
1711685705987,7918.867563202046
1711685706028,6375.527239386225
1711685706068,4333.9558116612025
1711685706108,3758.0096888463013
1711685706148,3875.43577518221
1711685706188,4888.408140074927
1711685706228,5581.877592775738
1711685706269,5228.165601127315
1711685706308,5049.62267590221
1711685706349,4357.979420649586
1711685706389,4437.236687039491
1711685706429,5007.087292336393
1711685706470,5271.887805116363
1711685706509,6466.985429386608
1711685706549,6459.512727847323
1711685706589,7389.759014870506
1711685706630,5830.012126555201
1711685706670,3183.483445570804
1711685706710,1469.622983307112
1711685706750,442.55329703493044
1711685706790,1102.501044789562
1711685706830,1978.7570321653038
1711685706871,2919.7734717596322
1711685706910,3058.847387940157
1711685706950,2615.099298377754
1711685706991,2875.33483017236
1711685707031,3110.035935493652
1711685707074,3712.0253986706957
1711685707111,4254.607692450751
1711685707151,5055.101467432221
1711685707191,7044.597359475447
1711685707231,5612.032227843534
1711685707272,2813.049083566293
1711685707311,697.6359239486046
1711685707352,630.6467093429528
1711685707392,892.1192409477662
1711685707432,1863.3895690343343
1711685707473,2649.443041293882
1711685707512,3162.2229212757666
1711685707552,3225.0560590988025
1711685707592,3249.568718362134
1711685707632,3407.265864509158
1711685707673,3658.4378371369094
1711685707712,4354.685791284312
1711685707752,5028.373236817308
1711685707792,5627.507509697927
1711685707833,6481.7970664897
1711685707873,4986.82790029305
1711685707913,2800.2191554419696
1711685707953,1090.9999365992844
1711685707993,1317.4732573877554
1711685708033,2493.050801756326
1711685708074,3519.7598733394407
1711685708113,4656.295703392476
1711685708153,4640.77180146426
1711685708193,4370.323227184126
1711685708233,4693.81157653057
1711685708274,4815.612388121197
1711685708314,5669.496946548112
1711685708354,7217.411500636488
1711685708394,8207.96317289467
1711685708434,8609.656952659134
1711685708475,8874.776524695568
1711685708514,6501.45010678703
1711685708554,4607.33729341696
1711685708594,3849.548884059768
1711685708634,3776.1436879346147
1711685708675,4548.910956680076
1711685708712,5636.549583016429
1711685708753,5993.648284750292
1711685708793,5803.644154313486
1711685708833,5912.916205151007
1711685708874,6066.895138370339
1711685708913,6496.636759054381
1711685708953,7565.840530348942
1711685708993,8219.493988673668
1711685709033,9152.30372349848
1711685709074,9557.345530303195
1711685709113,7708.764769149013
1711685709154,5913.355911211809
1711685709194,4896.668969893828
1711685709234,4980.56502255029
1711685709275,4819.646382904844
1711685709314,5759.712362069171
1711685709354,6238.292608045507
1711685709394,6048.67597859446
1711685709434,6030.137046816293
1711685709475,6008.123286886141
1711685709515,6731.141321180388
1711685709555,6983.5160097968765
1711685709595,7402.016761455452
1711685709635,7627.430010940414
1711685709676,7924.527950706193
1711685709715,7611.359677828848
1711685709755,5341.125400054501
1711685709795,4548.245370297693
1711685709835,4014.9357955837622
1711685709876,4215.257908159867
1711685709915,5005.728951798752
1711685709956,5473.8092130501755
1711685709996,5100.385065623792
1711685710036,4752.472927710973
1711685710076,4730.818657097174
1711685710116,4322.607247983571
1711685710156,4468.3932814870495
1711685710196,4785.046138378093
1711685710236,5112.230615834938
1711685710277,6017.783665691502
1711685710316,6957.031249894528
1711685710357,6017.773002178408
1711685710397,3870.384745180141
1711685710437,2564.5213646786287
1711685710478,2442.139627404278
1711685710517,2231.8638090617023
1711685710557,2814.570826818235
1711685710597,2764.301086448133
1711685710637,2274.1514404569753
1711685710678,1994.3875224678777
1711685710717,2264.634457027074
1711685710757,2703.354814263992
1711685710798,3063.25880809268
1711685710838,3601.855575192021
1711685710878,4450.7046660357155
1711685710918,4924.082817099057
1711685710958,5920.801150013227
1711685710998,5822.858821805101
1711685711038,3517.5334460018203
1711685711079,1653.521907106042
1711685711118,1156.7520948771853
1711685711159,1500.230722647626
1711685711199,1748.875560207991
1711685711239,2349.8253004592843
1711685711280,2910.2118000045884
1711685711319,2379.939088013023
1711685711359,2470.054868445499
1711685711399,2984.6910405105446
1711685711439,3212.6276306437794
1711685711480,4094.2672403424513
1711685711519,5026.414558781311
1711685711560,4956.655754601583
1711685711600,5573.409328395501
1711685711640,5728.300625592936
1711685711681,4959.084879564121
1711685711720,2717.437635346316
1711685711760,778.8855245695449
1711685711801,690.979159402661
1711685711840,412.5181140387431
1711685711881,784.220091516152
1711685711921,1541.0062916232273
1711685711961,1847.6196070546284
1711685712001,1297.3089924170636
1711685712041,1066.9666060404852
1711685712082,1450.7807619215455
1711685712121,2044.9885461463127
1711685712161,2594.0056557776406
1711685712202,3833.2104247093666
1711685712242,4563.811528054532
1711685712283,5235.971995824482
1711685712322,6031.542065238347
1711685712362,5173.513872206677
1711685712402,2798.5320474104956
1711685712442,1616.7469769276213
1711685712483,1118.3918047002517
1711685712523,1173.486258205492
1711685712563,1628.5466933455318
1711685712603,2357.737945381319
1711685712643,2113.960222994443
1711685712684,1745.1604139949195
1711685712723,1758.2775607043877
1711685712763,2105.5550808934495
1711685712803,2479.338007122744
1711685712844,3381.6101629710756
1711685712884,3182.5745024993084
1711685712924,4159.2300406622235
1711685712964,4659.342489661649
1711685713004,5193.679274905473
1711685713044,4694.075933023589
1711685713085,2243.0937712190207
1711685713125,1245.5818233522587
1711685713165,389.67366201314144
1711685713205,660.8546927585267
1711685713245,958.8169913780876
1711685713286,1879.1835320838727
1711685713325,1900.1048971097916
1711685713366,1646.879991355585
1711685713406,1890.6371333606075
1711685713446,2168.3383971848525
1711685713487,2323.0465377201326
1711685713526,2449.970535742119
1711685713566,2466.6724707086105
1711685713606,3072.818639940815
1711685713646,3101.4207120225765
1711685713687,3795.7465569225606
1711685713727,3693.746578664519
1711685713767,2856.9916471568868
1711685713807,559.8311981002335
1711685713847,-1544.3153347200714
1711685713888,-2537.8408536564093
1711685713927,-2817.883023996372
1711685713967,-2294.2395980271976
1711685714007,-1670.4912625632714
1711685714048,-1069.7800697868224
1711685714089,-871.6606786625925
1711685714128,-537.0315888433252
1711685714168,874.248680843506
1711685714208,1522.0474726832472
1711685714248,2247.978470490314
1711685714289,3059.971387380734
1711685714329,3948.4701602472924
1711685714369,4577.2931668122765
1711685714409,5020.777663870249
1711685714449,5507.7463147745
1711685714490,5624.1589499774855
1711685714529,4909.859078351874
1711685714569,2926.1732363495976
1711685714609,1497.817428352777
1711685714649,1795.5399768273346
1711685714690,1619.7526349662803
1711685714729,2194.8631685147993
1711685714770,2694.2304347576573
1711685714810,2359.6769701344892
1711685714850,2432.4884296986274
1711685714891,1655.2439482402988
1711685714930,1747.3815307072364
1711685714970,1834.7028415531386
1711685715010,3009.469948584214
1711685715051,3274.1942024093587
1711685715091,3680.4308983860537
1711685715131,4332.076724368613
1711685715171,5143.01037824247
1711685715211,5429.147200032603
1711685715251,5080.562687884783
1711685715292,3068.808663911186
1711685715331,1833.7262978772633
1711685715371,1058.7637807847932
1711685715412,1183.720919133164
1711685715452,1375.6844003265724
1711685715492,1605.6328754529823
1711685715532,1695.6468390168156
1711685715572,1389.8167243893258
1711685715612,289.16750957164913
1711685715652,1015.8216967948247
1711685715693,1301.4021381968632
1711685715732,1911.6008225437254
1711685715772,2620.7834902806208
1711685715812,3291.9371447816957
1711685715853,3472.242687426973
1711685715893,3693.593523847405
1711685715933,3535.738575868774
1711685715973,1965.5799508541822
1711685716013,-161.75107761938125
1711685716053,-1609.6535544965882
1711685716094,-1612.2982206013985
1711685716133,-1340.0555701809935
1711685716173,-1037.884472235106
1711685716214,-819.9338891336229
1711685716254,-933.9071298935451
1711685716294,-1595.8782950043678
1711685716334,-1459.3972702333704
1711685716374,-1509.9422507011332
1711685716414,-1043.7053410245571
1711685716454,-685.1037888957653
1711685716495,-107.22073943517171
1711685716534,97.81310163578019
1711685716574,-226.24633292481303
1711685716615,615.4180947327986
1711685716655,949.6363682539668
1711685716695,-1430.6015844731592
1711685716735,-4304.381594699342
1711685716775,-6082.251296779141
1711685716815,-6505.70210549701
1711685716855,-6802.269961368758
1711685716896,-6011.350915249903
1711685716935,-6750.488111358136
1711685716975,-6488.467721534893
1711685717016,-6186.574256718159
1711685717056,-6074.356102589518
1711685717097,-5777.29988743132
1711685717136,-4958.346583966631
1711685717176,-4618.918402365642
1711685717216,-4071.422387413215
1711685717256,-3880.593073660042
1711685717297,-3678.755446770694
1711685717337,-3140.541665964294
1711685717377,-2594.1234754438046
1711685717417,-4149.643480084138
1711685717457,-7056.688936129911
1711685717498,-8971.07821958093
1711685717537,-10198.789161808323
1711685717577,-10316.3249419278
1711685717617,-9873.125154837035
1711685717657,-9643.774436186999
1711685717698,-9115.699236897519
1711685717738,-9583.599464338971
1711685717778,-9565.559250167105
1711685717818,-9270.944592987886
1711685717858,-8060.602287724614
1711685717899,-7475.137340781046
1711685717938,-6488.874374191742
1711685717978,-5801.4163754705805
1711685718018,-4669.540808578022
1711685718059,-3372.9730652691796
1711685718099,-2224.4730580640025
1711685718139,-2751.5705528457183
1711685718179,-5635.190058005508
1711685718219,-7508.28256017575
1711685718259,-7914.213831008878
1711685718300,-8207.357072317041
1711685718339,-8032.406087146141
1711685718379,-7689.538949131733
1711685718420,-7543.784190553706
1711685718460,-7250.810289023677
1711685718501,-6900.424042392522
1711685718540,-6433.220124328043
1711685718580,-6208.490806237562
1711685718620,-5734.112176640425
1711685718661,-4626.568672538502
1711685718701,-3722.5718527152203
1711685718741,-2851.1728578542825
1711685718781,-2232.271278623026
1711685718821,-918.9184389621951
1711685718861,-1148.6730201514438
1711685718902,-3465.503632424632
1711685718941,-6343.42451946158
1711685718982,-8172.203871915117
1711685719022,-8472.396015533712
1711685719062,-7930.17939763004
1711685719103,-7106.337256567553
1711685719142,-6473.61195218889
1711685719182,-6252.916435765568
1711685719222,-6259.325052353088
1711685719263,-5989.941431227373
1711685719303,-5506.4651786787435
1711685719343,-5493.50039913482
1711685719383,-4702.00746284239
1711685719423,-3594.1763757499866
1711685719463,-2748.748382320162
1711685719504,-1459.572189318249
1711685719543,-1010.5269232245628
1711685719584,-2380.022959315218
1711685719624,-5370.974419367034
1711685719664,-7415.311299252324
1711685719705,-7867.924770489801
1711685719744,-8000.179549261928
1711685719784,-7590.662572979927
1711685719824,-6647.608842881862
1711685719865,-5949.4111369966995
1711685719905,-6260.589234402869
1711685719945,-5939.432460842421
1711685719985,-6094.197087833658
1711685720025,-5627.378141349647
1711685720065,-4635.600774996914
1711685720106,-3856.7515611117706
1711685720146,-3179.353885973105
1711685720186,-1789.045522180386
1711685720226,-1042.7776375764515
1711685720266,-2940.433237135876
1711685720307,-6006.380894827889
1711685720346,-8380.593341835774
1711685720386,-9324.596675361507
1711685720427,-9159.613022014499
1711685720467,-9130.92104572244
1711685720508,-9120.436120767612
1711685720547,-9542.820484755794
1711685720587,-9925.474147540051
1711685720627,-10264.03936015442
1711685720667,-9659.065654667793
1711685720708,-9280.984407311305
1711685720750,-9027.62325176713
1711685720790,-8031.163709456101
1711685720830,-6831.653261698084
1711685720870,-5753.311729629291
1711685720911,-8278.995954273734
1711685720950,-11982.425533004105
1711685720990,-14005.250002443325
1711685721030,-15036.009798132814
1711685721071,-15663.617955661844
1711685721111,-15955.460514420178
1711685721151,-15593.418380531715
1711685721191,-15453.568137516733
1711685721231,-16019.777116913116
1711685721271,-16022.927563924342
1711685721312,-16246.399015560746
1711685721351,-15430.79599636048
1711685721391,-14808.452585136052
1711685721431,-13110.966774706263
1711685721471,-11984.893469698727
1711685721512,-10226.137223095167
1711685721552,-9355.649875015253
1711685721592,-11812.56833546143
1711685721632,-15679.31719493703
1711685721672,-18017.639047316974
1711685721713,-19065.931318007177
1711685721752,-18854.905151541345
1711685721792,-18103.873571315315
1711685721832,-17028.200680216076
1711685721872,-16934.757659305353
1711685721913,-16430.603361746296
1711685721952,-17063.03626771178
1711685721993,-16711.905211375095
1711685722033,-15582.71640069224
1711685722073,-14892.706500883214
1711685722113,-13674.680502266856
1711685722153,-12540.992684299592
1711685722193,-11474.97203110531
1711685722233,-10451.755727023818
1711685722273,-12450.684345767833
1711685722314,-15761.809204041027
1711685722353,-17499.544620949775
1711685722394,-17629.99361394625
1711685722434,-17136.267645996995
1711685722474,-16565.429373881314
1711685722515,-16046.319394417107
1711685722554,-16103.224508007057
1711685722594,-16014.22884884337
1711685722634,-15884.925835137721
1711685722674,-15442.880504321074
1711685722715,-15088.830401966348
1711685722754,-13366.428922835039
1711685722794,-12961.177660555579
1711685722835,-11424.846706922865
1711685722875,-9527.045848315582
1711685722916,-7882.340296736918
1711685722955,-7972.746302640531
1711685722995,-10304.031453934498
1711685723035,-12629.170614996925
1711685723075,-13327.184871145058
1711685723116,-13019.548559606541
1711685723155,-12403.630272778682
1711685723195,-11961.633175942581
1711685723236,-10882.92451652605
1711685723276,-10439.542094930308
1711685723316,-10526.896741630975
1711685723356,-9487.422982271295
1711685723396,-8750.101280584
1711685723436,-7932.272666322067
1711685723476,-6088.058466489194
1711685723517,-4579.701073967386
1711685723556,-3204.821889869403
1711685723596,-1125.4942000277806
1711685723636,-2174.5369494550396
1711685723676,-4623.785856595729
1711685723717,-6650.275522208773
1711685723757,-7204.921930849552
1711685723797,-6392.442172337556
1711685723837,-5802.497458772734
1711685723877,-4699.43304957496
1711685723918,-3921.8323364667594
1711685723957,-3493.3515198873356
1711685723997,-3453.644687216729
1711685724037,-3767.043268451467
1711685724078,-2948.6893060309812
1711685724118,-2209.3004076411016
1711685724158,-796.6290257428773
1711685724198,3.9770713122561574
1711685724238,1407.338168431539
1711685724278,1879.1857718047686
1711685724319,-165.90779927698895
1711685724358,-3411.3178010145202
1711685724398,-5100.7682522588875
1711685724439,-5521.491901945788
1711685724478,-5062.619136059424
1711685724519,-4190.0695743528195
1711685724559,-3880.5206937452313
1711685724599,-3505.7710485432763
1711685724639,-3642.279436521698
1711685724679,-3455.602564721834
1711685724720,-2625.5489831957966
1711685724759,-1715.6101707392372
1711685724800,-804.060178345535
1711685724840,161.08069312595762
1711685724880,953.3733618180268
1711685724921,2003.2803833107464
1711685724960,2540.6076590640005
1711685725000,204.68347945949063
1711685725040,-2430.193020964507
1711685725080,-4276.543854070827
1711685725121,-4505.466832706239
1711685725161,-4482.228648193413
1711685725201,-4352.135917112697
1711685725241,-3671.585405650083
1711685725281,-3278.9630369346123
1711685725322,-2959.747954730876
1711685725361,-2316.2847270732746
1711685725401,-1732.9120687379036
1711685725441,-775.2258335575461
1711685725481,-85.69441714440472
1711685725522,1149.059721966274
1711685725562,2192.3188846558332
1711685725602,3155.2502129331697
1711685725642,4380.505335748894
1711685725682,4400.58625254361
1711685725723,1866.1489478526637
1711685725762,-291.6336792623624
1711685725802,-1037.3704145944212
1711685725842,-1228.153298050398
1711685725883,-944.002522124676
1711685725923,-432.3403056215029
1711685725963,24.066841311054304
1711685726003,-363.8041696581058
1711685726043,-326.7464716467075
1711685726083,-45.46387906256132
1711685726124,796.3266287054867
1711685726163,2195.455499749165
1711685726204,3390.2889191615395
1711685726244,4202.682110317517
1711685726284,4571.575358004309
1711685726325,5482.364493016619
1711685726364,6564.622507623397
1711685726404,7152.141117032617
1711685726444,4876.394723176025
1711685726485,2049.754858265631
1711685726525,838.6580593234394
1711685726565,143.18972070980817
1711685726605,346.58580738166347
1711685726645,489.9590932354331
1711685726685,1169.6681903901044
1711685726726,1140.2770096994936
1711685726766,1231.2474013085011
1711685726806,1244.6939473170787
1711685726846,1382.7001533466391
1711685726886,1969.006904625101
1711685726927,3078.7818489321508
1711685726966,3649.679496554658
1711685727006,4816.609679265879
1711685727047,5551.331747872289
1711685727087,6308.125254397048
1711685727127,7108.676766528515
1711685727167,7566.904482818674
1711685727207,5427.268491928931
1711685727247,2848.311235825997
1711685727287,1758.3362135018688
1711685727328,1486.5458204867318
1711685727368,1464.8916968866251
1711685727408,2468.1216694377363
1711685727448,2487.989300585119
1711685727488,2085.150544981938
1711685727529,1384.109142032452
1711685727568,2272.001983560389
1711685727608,2731.726124354638
1711685727649,3209.222621297464
1711685727689,3720.578647919465
1711685727730,4672.936393682379
1711685727769,6078.322562202346
1711685727809,6346.920026818756
1711685727849,6958.157792774029
1711685727890,7188.506276385859
1711685727930,6050.228603294119
1711685727970,3892.696639601141
1711685728010,1568.1595842521638
1711685728050,1059.869902074337
1711685728090,1289.395840068115
1711685728131,2670.285201552324
1711685728170,3617.3151888921857
1711685728210,3749.6946946352255
1711685728250,3545.717023411067
1711685728290,3437.2095704376698
1711685728331,3776.810288724955
1711685728371,4149.514474278316
1711685728411,4797.696237374097
1711685728451,5955.676398011623
1711685728491,6489.6271474326495
1711685728532,7487.119482210372
1711685728571,8144.659704051213
1711685728611,9194.908791737398
1711685728651,8926.924745816272
1711685728691,6507.299519840162
1711685728732,4186.8409378957
1711685728771,3407.367563898675
1711685728811,3186.2415143065155
1711685728852,3105.7422381259967
1711685728892,2803.822073474992
1711685728933,3158.6753663998097
1711685728972,3249.3591344966553
1711685729012,2858.53279887978
1711685729052,2352.702443878399
1711685729092,2957.00223265728
1711685729133,3617.6174569241703
1711685729172,4268.775004458148
1711685729212,4837.301226455718
1711685729253,5600.279073695652
1711685729293,6253.44903171272
1711685729334,6982.861059242161
1711685729373,7547.391441044398
1711685729413,6059.290780574316
1711685729453,3255.226097389823
1711685729493,1338.3806840232573
1711685729534,195.92583323083818
1711685729573,-103.7920453499537
1711685729614,31.319752830080688
1711685729654,767.9592140796594
1711685729694,1079.6436679104809
1711685729735,214.0140112109948
1711685729774,-44.09627546858974
1711685729814,-231.84073951421306
1711685729854,767.2415901194327
1711685729894,1602.5143169555813
1711685729935,2877.9497751034796
1711685729974,3860.872313867323
1711685730014,4715.316962933866
1711685730054,5616.7538952303585
1711685730095,6325.743547536898
1711685730135,6724.722920504399
1711685730175,5125.647040594835
1711685730215,2573.1105799034704
1711685730255,808.9945919616148
1711685730295,426.74506433308125
1711685730336,621.8990385427605
1711685730375,1039.2284047908615
1711685730415,1454.8195625420194
1711685730456,1430.0351161302533
1711685730496,1587.2341412517708
1711685730536,996.5575921847485
1711685730576,1628.6098010900896
1711685730616,1911.452328313375
1711685730656,2333.6390137411654
1711685730696,3351.1180231035687
1711685730737,3953.4443530244753
1711685730776,4175.984402358066
1711685730817,4662.271781896241
1711685730856,5649.909138659015
1711685730897,4746.461671562865
1711685730938,1960.0188604956493
1711685730977,-593.7891045017168
1711685731017,-1641.8569913185202
1711685731057,-2286.8956005333457
1711685731097,-1489.1144121743273
1711685731138,-984.277740262216
1711685731177,-1021.5937212947756
1711685731217,-1850.9289221786894
1711685731258,-2149.8357520499267
1711685731298,-2233.002685836749
1711685731338,-1939.1755110684317
1711685731378,-781.7670964854769
1711685731418,153.98819244280457
1711685731458,888.3416594732553
1711685731498,1925.7447550785728
1711685731539,2870.4104152983055
1711685731578,3619.332829413237
1711685731619,4062.641616379842
1711685731659,1971.307668485213
1711685731699,-1321.179049981758
1711685731739,-3392.1666631596163
1711685731779,-4910.156202155165
1711685731819,-5037.492768633179
1711685731859,-4829.250185259152
1711685731899,-4166.817560282536
1711685731940,-4601.569368052296
1711685731979,-5070.358087467961
1711685732020,-5219.838268681429
1711685732060,-5070.475363159087
1711685732100,-4234.767705162987
1711685732141,-3573.628479416482
1711685732180,-2188.4828063610476
1711685732220,-1147.4027800853364
1711685732260,-619.851512725465
1711685732300,545.257000871934
1711685732341,1370.8899352420121
1711685732381,1168.4454537362326
1711685732421,-1655.8401103049982
1711685732461,-3848.7299771355465
1711685732501,-4944.143954686355
1711685732542,-5557.324427078012
1711685732581,-4931.899658612208
1711685732621,-4084.4353873743676
1711685732661,-3729.4796158208046
1711685732701,-3482.0121975776274
1711685732742,-3356.313889738638
1711685732782,-3281.0913207239937
1711685732822,-3564.3322788886726
1711685732862,-2412.992336382158
1711685732902,-1552.837787461467
1711685732943,-407.1397069906816
1711685732982,1599.2707562120631
1711685733022,2626.46069337707
1711685733062,3905.545096712187
1711685733103,4088.1697879978456
1711685733143,1846.357648339821
1711685733183,-856.6296735100914
1711685733223,-2069.722297591623
1711685733263,-2726.7850323757157
1711685733303,-2606.23873711098
1711685733344,-2049.8154557917733
1711685733383,-1352.9404843561351
1711685733423,-1057.4887675866485
1711685733464,-1628.5721277238335
1711685733504,-1153.6301444303244
1711685733544,-660.1974882106297
1711685733584,-112.5917306530755
1711685733624,783.308767885901
1711685733664,1515.1626036996022
1711685733704,2629.0846600034274
1711685733745,3396.1183455828577
1711685733784,4287.069632790983
1711685733825,3956.223582772538
1711685733865,1365.3646746778395
1711685733905,-1270.9148413948715
1711685733946,-2918.510538343806
1711685733985,-3546.8701745504513
1711685734025,-3037.734402748989
1711685734066,-2472.276422044728
1711685734106,-1278.663236145163
1711685734146,-1753.054119494278
1711685734186,-2197.978449736722
1711685734226,-2752.3810579115525
1711685734266,-3139.2252268670127
1711685734306,-2515.652785711456
1711685734347,-1896.0266523635946
1711685734387,-1039.33614825923
1711685734427,-2.6799416071735322
1711685734467,884.2450628839433
1711685734507,1254.4067298767623
1711685734548,-1046.4418893919792
1711685734587,-4595.553982141428
1711685734627,-5999.268909637583
1711685734668,-6906.437503846362
1711685734708,-7062.948116022628
1711685734748,-6001.129954828881
1711685734788,-5797.543109171558
1711685734828,-5545.992130028782
1711685734868,-6011.115942614619
1711685734909,-6131.15992685454
1711685734949,-6346.3599984121975
1711685734989,-5900.244043273153
1711685735029,-4164.046979448758
1711685735069,-2516.560900387354
1711685735109,-1031.8308456218801
1711685735150,-149.59877435513772
1711685735189,-2190.5547516210936
1711685735229,-5688.563034159131
1711685735269,-8343.847385896603
1711685735309,-9198.682326830458
1711685735350,-8542.591200789437
1711685735390,-8212.191114825662
1711685735430,-7877.8929312108085
1711685735470,-7666.30390870315
1711685735510,-7601.829814004013
1711685735550,-7704.269986688159
1711685735590,-7554.652001541341
1711685735630,-6710.118355738698
1711685735670,-5511.532352868468
1711685735710,-4892.6237183087505
1711685735751,-3866.9712929052766
1711685735790,-2991.354134716559
1711685735830,-1982.8619861803018
1711685735871,-1638.0902689434588
1711685735911,-4769.01498410292
1711685735951,-7916.240858505946
1711685735991,-9173.01552382717
1711685736031,-10025.73086521402
1711685736071,-9783.172213468235
1711685736111,-9235.653400502633
1711685736152,-8925.78537038993
1711685736191,-9091.548044369556
1711685736231,-9064.398233236745
1711685736271,-8653.946808702778
1711685736311,-8395.105973389465
1711685736352,-7149.528198132524
1711685736392,-6735.488791953307
1711685736432,-5567.964950218331
1711685736472,-4190.48042642884
1711685736512,-3362.6474647969007
1711685736553,-1607.9064813666046
1711685736592,-2125.33704835712
1711685736632,-5711.250405792613
1711685736672,-8496.445517498069
1711685736712,-9368.31226151879
1711685736753,-9625.10580625385
1711685736792,-9668.735721889883
1711685736833,-9006.711462093052
1711685736873,-8494.326814689208
1711685736913,-8736.226521153469
1711685736954,-9154.266247917432
1711685736993,-8495.733962029452
1711685737033,-7810.419367820723
1711685737073,-6594.980090355501
1711685737113,-5546.072989400942
1711685737154,-4760.565488936845
1711685737193,-3528.7031378070824
1711685737233,-1906.112390535418
1711685737273,-775.4390873764642
1711685737314,-897.3690257901326
1711685737354,-3700.1224813035224
1711685737394,-5959.370204610284
1711685737434,-7293.48954188847
1711685737474,-7643.082720118575
1711685737514,-7194.977208258351
1711685737555,-5974.4917404551525
1711685737594,-5544.880111912731
1711685737634,-5761.181012942921
1711685737674,-5749.438468164299
1711685737714,-5282.998986091465
1711685737755,-5063.5346229681745
1711685737795,-3688.479543138761
1711685737835,-3394.4692560844123
1711685737875,-2181.8702056922484
1711685737915,-1301.6761678857729
1711685737956,-204.9753742038738
1711685737995,282.83510378329083
1711685738035,-1673.3874724719208
1711685738075,-4533.149207603885
1711685738115,-6351.649585658917
1711685738156,-6810.916028195992
1711685738196,-6388.443328588968
1711685738236,-5601.725871261675
1711685738276,-4786.341786606703
1711685738316,-3995.1080020030495
1711685738357,-4516.625869594049
1711685738396,-4381.063614744227
1711685738436,-3366.9194881368894
1711685738476,-2537.708594181342
1711685738516,-1758.2949167133775
1711685738557,-1046.3145367519464
1711685738597,-90.9414915018715
1711685738637,1266.5528743737377
1711685738677,2047.9528020194266
1711685738717,1377.4073365852237
1711685738758,-1845.0309112467803
1711685738797,-4436.088135844795
1711685738837,-6032.845642983913
1711685738877,-6482.075737630017
1711685738917,-6652.934121225029
1711685738958,-5516.3280325483065
1711685738998,-5340.7551184534095
1711685739038,-5490.339405809995
1711685739078,-6066.910976339597
1711685739118,-5621.416199615225
1711685739159,-5172.553845146205
1711685739198,-3801.7288359408267
1711685739238,-2692.774911886081
1711685739278,-1754.0862361069303
1711685739318,-759.1049373832066
1711685739359,453.6631653837394
1711685739398,1425.5623673256487
1711685739439,-718.9222527032252
1711685739479,-4283.379197145579
1711685739519,-6201.695415843278
1711685739559,-7281.426255081547
1711685739599,-7770.262585245073
1711685739639,-7429.710701355478
1711685739679,-6711.17989523313
1711685739720,-6825.995617280481
1711685739760,-7150.34597314219
1711685739800,-7047.613632759545
1711685739840,-5939.839501579059
1711685739880,-5118.8463451270945
1711685739920,-4300.494529375341
1711685739961,-3342.9287530663423
1711685740000,-2000.7698400903028
1711685740040,-934.0323264990002
1711685740081,-216.88318354962394
1711685740120,1146.1590342200361
1711685740161,947.58063938329
1711685740201,-2298.7885444562417
1711685740241,-5092.31866716966
1711685740281,-6184.667408006499
1711685740321,-6405.757708299439
1711685740362,-5878.838434977457
1711685740401,-5014.602182925213
1711685740441,-4958.123220901238
1711685740482,-5598.539294897579
1711685740522,-5660.11984023219
1711685740563,-4762.598156370223
1711685740602,-3828.9042151644826
1711685740642,-2347.220490403939
1711685740682,-1284.9206645479426
1711685740722,188.75346489390358
1711685740763,1705.6949141218793
1711685740802,2558.2402523362543
1711685740842,3848.16216831794
1711685740882,4177.260694855358
1711685740923,1622.194552582223
1711685740963,-1020.6359116025269
1711685741003,-2613.025720913429
1711685741043,-3128.7139123596717
1711685741083,-2623.2601599171758
1711685741123,-1895.2069746404886
1711685741164,-1119.0031878966838
1711685741203,-799.0040267601144
1711685741243,-851.2704574107192
1711685741284,-1043.1648725075647
1711685741324,-791.9947393720504
1711685741365,263.364151741378
1711685741404,1133.7666307408363
1711685741444,1967.6918108530808
1711685741484,2766.7043812314514
1711685741524,3749.6172912013717
1711685741565,4657.917857655557
1711685741605,5621.155959420372
1711685741645,3411.355939593166
1711685741685,389.5127512537874
1711685741725,-1204.4156058104709
1711685741766,-1446.1958370041102
1711685741805,-1274.6147643690929
1711685741845,-744.0322516467422
1711685741885,-352.45509528927505
1711685741925,-670.5549722197466
1711685741966,-997.912351871375
1711685742006,-1310.7747847000137
1711685742046,-729.7781399036758
1711685742086,151.31616587308235
1711685742126,1195.4686969642062
1711685742167,2642.667827726342
1711685742206,3770.2847322663292
1711685742247,4400.084504383383
1711685742287,5338.156055581756
1711685742327,5893.298821252305
1711685742368,3660.366172103677
1711685742407,412.1925593675114
1711685742447,-2148.1802552537993
1711685742487,-3140.29436098109
1711685742527,-2873.596362433862
1711685742568,-2602.803860237822
1711685742608,-1931.6247467547655
1711685742648,-1602.0171238826588
1711685742688,-1977.2658803076483
1711685742728,-2099.76629973948
1711685742769,-1654.8577992687933
1711685742808,-1052.3018086971715
1711685742848,430.3755786041729
1711685742888,1647.6903922087513
1711685742929,2728.3640653579496
1711685742969,3807.398270063568
1711685743009,5363.039402727969
1711685743049,6158.411247042939
1711685743089,5666.531039351597
1711685743129,2433.0169146433473
1711685743170,14.817866776837036
1711685743209,-1534.5652836449444
1711685743249,-2056.2439227076247
1711685743289,-1504.0534260799177
1711685743329,-1164.6444014615845
1711685743370,-723.1570675440598
1711685743410,-720.356734523084
1711685743450,-615.1869192034937
1711685743490,-428.9193472410552
1711685743530,500.8054903356824
1711685743571,1325.990374690853
1711685743610,3063.2375504369847
1711685743650,3991.811007017037
1711685743690,4417.007310605608
1711685743730,5460.51516843657
1711685743771,6087.348897951655
1711685743811,6197.155582158826
1711685743851,4377.458327753702
1711685743891,816.5388755886815
1711685743931,-1242.890352729708
1711685743971,-1799.7362110710237
1711685744011,-1781.7560525008012
1711685744051,-1090.7350189681165
1711685744091,2.8736883806996047
1711685744131,-147.4748858541716
1711685744172,-689.7623673900962
1711685744211,-1010.2247831649147
1711685744251,-652.2468437887728
1711685744292,-328.51780514302664
1711685744331,607.9858157541603
1711685744372,1666.796290397644
1711685744412,2998.412666709628
1711685744452,3676.0782149094157
1711685744492,4707.895659171045
1711685744532,6172.380083744647
1711685744573,6600.804509806447
1711685744612,4935.408759047976
1711685744652,1873.7232320832554
1711685744692,-319.2478466616012
1711685744732,-1310.624832651578
1711685744773,-942.1092104860581
1711685744812,-723.8955982583575
1711685744853,-252.10802439553663
1711685744893,-311.0298000841867
1711685744933,-370.8311653570272
1711685744974,-76.39997120760381
1711685745013,153.01717257034034
1711685745053,1004.0064302228857
1711685745093,1910.2616498325951
1711685745133,2997.5635905740783
1711685745174,4332.597397749778
1711685745213,5058.789135270752
1711685745254,5983.617958932184
1711685745294,6514.742210059194
1711685745334,6245.089994053822
1711685745374,3302.1560269743204
1711685745414,1190.113294590963
1711685745454,-120.7616167597007
1711685745494,-209.10136549081653
1711685745534,856.3878131241072
1711685745575,1634.1671860045753
1711685745614,2348.1518223062158
1711685745654,2133.559795335401
1711685745695,2062.9287303602323
1711685745735,2052.1905108757783
1711685745775,2750.6874737436883
1711685745815,3364.1750632957555
1711685745855,4813.066148273181
1711685745895,5837.353418093175
1711685745935,6808.387037563138
1711685745976,7599.861403352115
1711685746015,8210.192517064279
1711685746055,7284.506687531713
1711685746096,4380.228902027011
1711685746136,1908.4177718958817
1711685746176,-19.811845548916608
1711685746216,-346.6616334291175
1711685746256,-234.68196312128566
1711685746296,570.1400337058585
1711685746336,1463.4572956459597
1711685746377,883.6085796500556
1711685746416,783.5438455853146
1711685746457,684.86091120122
1711685746497,1087.3556472980417
1711685746537,2052.7360728818458
1711685746578,3021.107459247578
1711685746617,4275.486704715993
1711685746657,4873.550246339291
1711685746697,5101.999491151655
1711685746737,5923.418667621445
1711685746778,5037.700560972327
1711685746818,972.9914085615892
1711685746858,-1651.394165973179
1711685746898,-2592.3948592280503
1711685746938,-3002.2574094964657
1711685746979,-3141.76086588786
1711685747018,-2425.777952110395
1711685747058,-1966.5802246623207
1711685747098,-2484.787865022663
1711685747138,-2972.161457935814
1711685747179,-3064.8202352412045
1711685747219,-2586.2082616817206
1711685747259,-1475.6862178826705
1711685747299,-204.36994487652555
1711685747339,718.0770808111411
1711685747380,1814.0201374404132
1711685747419,2121.556029764004
1711685747459,3826.904418136226
1711685747500,4145.993077953812
1711685747540,1120.6992581794038
1711685747580,-1982.2429742268287
1711685747620,-4397.268055645749
1711685747660,-4488.805131814443
1711685747700,-4768.441257756203
1711685747740,-4008.6288890626747
1711685747781,-3572.992516184924
1711685747820,-3621.937248189235
1711685747860,-3776.4061369127594
1711685747901,-3886.672100975178
1711685747941,-3252.8971518957987
1711685747981,-1799.6059717820026
1711685748021,-690.3589821811765
1711685748061,772.0953285440337
1711685748101,1989.9222564012744
1711685748141,2987.2315805791877
1711685748182,3715.6392353735864
1711685748221,4867.413453737041
1711685748262,2930.7764353877865
1711685748302,-412.4144932902418
1711685748342,-2777.6126171932556
1711685748383,-3578.0506774482783
1711685748422,-3318.283134568017
1711685748462,-2924.3122336019296
1711685748502,-2571.3742010579444
1711685748542,-2501.0292971287854
1711685748583,-3131.065097545972
1711685748623,-2888.156140187755
1711685748663,-2098.062151840888
1711685748703,-1161.4916569723282
1711685748743,-172.21593058807775
1711685748784,1338.8982436414808
1711685748823,2523.4466093718074
1711685748863,3455.4351855956484
1711685748903,4606.836499270517
1711685748944,5250.706896249438
1711685748985,6426.934260225855
1711685749024,3645.346440497553
1711685749064,1194.4482306661084
1711685749104,-325.8491869312711
1711685749144,-625.758379674051
1711685749185,130.76613382808864
1711685749225,875.2626971430145
1711685749265,1200.9540056595579
1711685749305,885.7898877726402
1711685749345,24.648814547108486
1711685749386,118.8735338547267
1711685749425,338.0803464902565
1711685749465,1101.4596006325446
1711685749505,1873.4433338893577
1711685749546,3393.435541763203
1711685749587,4163.844603443285
1711685749626,4475.406490724068
1711685749666,5409.058391983388
1711685749706,5651.37982043135
1711685749746,2990.9872934906743
1711685749787,823.0387158575468
1711685749827,-958.4729324113578
1711685749867,-1236.0706909853034
1711685749907,-758.5577663728036
1711685749947,-10.403384956298396
1711685749988,146.10493143601343
1711685750027,84.13239311892539
1711685750067,-552.6390135344118
1711685750107,-604.2725037471391
1711685750148,-135.70520965149626
1711685750188,1732.0917838634923
1711685750228,2772.2311061327346
1711685750268,2913.936572523555
1711685750308,4253.2193470806815
1711685750348,4855.776255269535
1711685750389,4673.790142402286
1711685750428,1422.4167588385753
1711685750468,-1641.4222051994875
1711685750508,-2512.9976139282808
1711685750548,-2462.302664502524
1711685750589,-1962.1014056559652
1711685750628,-1310.8488378399052
1711685750668,-287.932046802016
1711685750708,-1211.034865052672
1711685750748,-1628.6500339414924
1711685750789,-1515.0159795978107
1711685750829,-1243.1980145061389
1711685750869,-203.19893393176608
1711685750909,745.8019585602451
1711685750949,1950.8054738421924
1711685750990,2091.185303362552
1711685751029,3356.9662527292967
1711685751069,3439.329639681382
1711685751109,2087.7654480878264
1711685751150,-1216.4859822455328
1711685751190,-3014.1653513032943
1711685751230,-3417.596741919173
1711685751270,-3184.89300587005
1711685751310,-2746.40394418058
1711685751350,-1947.7690324422438
1711685751391,-1620.8634957235772
1711685751430,-1693.489891213365
1711685751470,-1762.921606643824
1711685751510,-2379.5571761108004
1711685751550,-917.3134334573988
1711685751591,-21.4244848289527
1711685751631,1206.0219019318465
1711685751671,2518.99327134341
1711685751711,4046.3862208568025
1711685751751,5123.592702857219
1711685751792,4502.997466984671
1711685751831,772.9512117900886
1711685751871,-2285.2810992598534
1711685751911,-3899.7315573687665
1711685751951,-4810.220069622621
1711685751992,-4064.1482812841423
1711685752031,-3375.089987164829
1711685752072,-2629.4146070880815
1711685752112,-2935.985284413211
1711685752152,-3224.9463757479098
1711685752192,-2980.8411782016046
1711685752232,-2819.065900217276
1711685752272,-869.6273045954295
1711685752312,-236.32771775498986
1711685752352,627.9215978926513
1711685752393,1315.8909952063113
1711685752432,2207.9064396773465
1711685752472,2592.065883983625
1711685752512,2610.615151748061
1711685752553,-308.36909814807586
1711685752593,-2721.2151354935486
1711685752633,-4313.959134028293
1711685752673,-5196.906865591649
1711685752713,-5295.548972264864
1711685752753,-5055.5051624304615
1711685752794,-3988.7921043003444
1711685752833,-4404.433144984068
1711685752873,-4796.692949912045
1711685752913,-5098.007312270813
1711685752954,-4477.233642383944
1711685752994,-3707.407677799929
1711685753034,-2588.225022414699
1711685753074,-1501.325922609074
1711685753114,-218.26142532471567
1711685753154,628.2060965930577
1711685753195,1938.0945384693332
1711685753234,2900.884742710041
1711685753274,1452.3020619400777
1711685753314,-1412.9607396754436
1711685753354,-3925.723110876512
1711685753395,-4717.543885518797
1711685753435,-4775.225576860132
1711685753475,-4331.738026741426
1711685753515,-3216.416694048792
1711685753555,-3589.31738096755
1711685753596,-3412.8601486282423
1711685753635,-3633.380951292813
1711685753675,-3096.1149690588936
1711685753715,-2009.1978439434897
1711685753756,-494.3028256231919
1711685753796,396.46546899108216
1711685753836,1661.3608346935362
1711685753876,2418.1272990936413
1711685753916,3401.5757069496904
1711685753956,4447.150969616603
1711685753997,3964.438145708991
1711685754036,1649.7047455667052
1711685754076,-241.41259815264493
1711685754116,-1603.5731511206832
1711685754157,-1306.231581546599
1711685754197,-116.92178278276697
1711685754237,627.405757256085
1711685754277,838.6855205292813
1711685754317,817.7338875068817
1711685754357,243.07397502218373
1711685754398,511.1080747670494
1711685754437,1676.4484470826574
1711685754477,2722.0641280012205
1711685754517,4261.701795222238
1711685754557,4864.296699127415
1711685754598,5502.33638890204
1711685754638,6680.0414398331195
1711685754678,7814.416260370985
1711685754718,7034.105861717602
1711685754758,3945.9537958423607
1711685754799,1013.2677462757565
1711685754838,-564.4302688767202
1711685754879,-936.7540886721108
1711685754918,-640.5524553721771
1711685754959,81.05881307576783
1711685754999,529.6252833781764
1711685755039,165.038270132849
1711685755079,-250.04613622254692
1711685755119,-67.80013226019219
1711685755159,454.17547290446237
1711685755200,1339.4812371991575
1711685755239,2551.9061100487597
1711685755279,3146.733146813698
1711685755319,3615.7341278893873
1711685755360,4223.193566153292
1711685755400,5510.481020725332
1711685755440,5842.656784420367
1711685755480,3615.7511026596185
1711685755520,618.952482027933
1711685755560,-1037.6123605491593
1711685755601,-1754.9813084646594
1711685755640,-1767.342948627891
1711685755680,-1468.4457576638088
1711685755721,-1060.9406830151565
1711685755761,-1166.4835314527154
1711685755801,-1661.0225858839694
1711685755841,-1666.0010950579308
1711685755881,-980.3468649385031
1711685755921,-72.95686095324345
1711685755961,1080.0122138261795
1711685756002,2222.5387629223987
1711685756041,3007.672608818393
1711685756082,3984.1789963038173
1711685756122,5190.374014296103
1711685756162,6434.013796846382
1711685756203,7144.065370480763
1711685756242,4664.463102441514
1711685756282,1632.6434464233462
1711685756322,-119.08957582176663
1711685756362,-558.420148115838
1711685756403,-261.3465550141409
1711685756443,93.18261619890109
1711685756483,464.89767171861604
1711685756523,667.1991185494699
1711685756563,231.26566918333992
1711685756604,478.9756126794964
1711685756643,703.719458789099
1711685756683,1299.7028253045864
1711685756723,2246.2949615549296
1711685756763,3316.1886978435796
1711685756804,4222.321407573298
1711685756844,5084.692826701794
1711685756884,5997.487397565506
1711685756924,6970.349613184109
1711685756964,7701.568955775816
1711685757005,7075.544179692864
1711685757045,4495.126372018596
1711685757084,2091.5993443820626
1711685757125,1553.293593536131
1711685757165,1575.9896583538502
1711685757206,1986.6066269380972
1711685757245,2398.162624409655
1711685757285,2905.104959278833
1711685757325,2648.778515469283
1711685757365,3064.2215640735812
1711685757406,3002.849364307709
1711685757446,3353.0314454680774
1711685757486,3900.4765999913216
1711685757526,5362.270106356125
1711685757566,6263.190057280473
1711685757607,7026.925456342986
1711685757646,8122.848772909958
1711685757686,8691.887094823178
1711685757726,8859.636546954047
1711685757767,7273.322733977344
1711685757807,4740.42576360493
1711685757847,3317.5159835340455
1711685757887,2708.3504790998995
1711685757927,3237.3457179116085
1711685757967,4014.003604581114
1711685758008,4923.771573840175
1711685758047,4581.756495255511
1711685758087,4475.656182355247
1711685758127,4013.1972402841784
1711685758167,4277.977100287098
1711685758208,4466.603516984731
1711685758248,5413.253575313138
1711685758288,5803.690969809424
1711685758328,6610.081808727933
1711685758368,7577.765187109355
1711685758409,8161.51798902126
1711685758448,8922.927611366846
1711685758488,8131.0151772347745
1711685758528,5168.616267437581
1711685758568,2770.6654130723327
1711685758609,1941.829144545598
1711685758648,1350.9921015347354
1711685758688,1517.4313815722708
1711685758729,2478.6891163459513
1711685758769,2853.392563343048
1711685758809,2105.731838396052
1711685758849,1742.7065247946884
1711685758889,1563.8378540836275
1711685758929,1522.336951327743
1711685758969,2383.9312909487635
1711685759010,3730.497985925991
1711685759049,4608.86228367826
1711685759089,5547.656712242169
1711685759129,6263.530116805807
1711685759170,7336.239595083054
1711685759210,7241.982112090569
1711685759250,4514.071353330743
1711685759290,1791.628266774118
1711685759330,245.9362175844144
1711685759370,-552.1483033508994
1711685759411,-537.9259225497954
1711685759450,-349.9195543457754
1711685759490,313.8418727426324
1711685759530,-20.293549705762416
1711685759571,-50.57437535608187
1711685759611,-454.6155525422655
1711685759651,-380.88660450372845
1711685759691,339.05170356086455
1711685759731,549.9722278052941
1711685759771,1244.26276709605
1711685759812,2425.1432535927743
1711685759851,3269.605903523974
1711685759891,3688.812048856169
1711685759932,4234.562214871403
1711685759972,3456.804390928475
1711685760012,180.33208459825255
1711685760052,-2187.066164874006
1711685760092,-3569.9918166575953
1711685760132,-4123.537353298161
1711685760172,-3568.908938743407
1711685760213,-2617.477132506203
1711685760252,-2163.013862208929
1711685760292,-2319.1981475320645
1711685760332,-3227.597511678003
1711685760373,-2991.4977610143833
1711685760413,-2736.8332209587097
1711685760453,-1827.8508320930414
1711685760493,-959.8174319872633
1711685760533,62.555905242450535
1711685760573,975.0361047573388
1711685760614,1481.9991441466846
1711685760653,2389.1432954478078
1711685760693,2850.1277578948066
1711685760733,242.9383571515791
1711685760774,-2707.9395671365783
1711685760814,-4309.472009344725
1711685760854,-5570.618159220088
1711685760894,-5251.7613979540765
1711685760934,-4321.173053998733
1711685760974,-3745.7299153711647
1711685761015,-3562.1332332780585
1711685761054,-3892.6263264873996
1711685761094,-4638.729472996667
1711685761135,-4071.4264679001644
1711685761175,-2973.7066526878625
1711685761215,-2191.661655807402
1711685761255,-1419.1589263514616
1711685761295,-1000.2462700610049
1711685761335,-288.0065640239045
1711685761375,885.7416786530521
1711685761416,1415.6061114885379
1711685761455,-1298.9935787511058
1711685761496,-4313.571868998464
1711685761536,-5743.609821845777
1711685761576,-6386.527111897711
1711685761617,-6353.474078483647
1711685761656,-5994.404654093552
1711685761696,-5208.636012844043
1711685761736,-5670.685754447477
1711685761776,-6274.89180915989
1711685761817,-6492.065372813027
1711685761857,-6225.19392437581
1711685761897,-5188.795322171878
1711685761937,-4330.480453183409
1711685761977,-2953.447681436781
1711685762018,-1998.4635331644677
1711685762057,-808.6968758623116
1711685762097,-350.4948458999861
1711685762137,-1409.3397719324566
1711685762177,-5444.041311393492
1711685762218,-8546.130621971097
1711685762258,-9546.430042676162
1711685762298,-9761.56830211333
1711685762338,-9635.305228948127
1711685762378,-8595.923648335738
1711685762419,-8721.920004310552
1711685762458,-9553.863042354351
1711685762498,-9881.380363903707
1711685762538,-10069.155132382642
1711685762579,-8840.479626381071
1711685762619,-7553.795511104399
1711685762659,-5980.642367268447
1711685762699,-5608.888622598257
1711685762739,-4713.097327371826
1711685762779,-3829.6181132972706
1711685762820,-3700.9718472557142
1711685762859,-6957.57755502942
1711685762899,-10453.491767354542
1711685762940,-12756.735244597541
1711685762980,-13691.088477960555
1711685763020,-14004.390857580118
1711685763060,-13744.200526208151
1711685763100,-13319.629213918233
1711685763140,-14118.088377213804
1711685763180,-14682.442143736407
1711685763221,-14935.266638259636
1711685763260,-15068.7980948654
1711685763301,-14206.627703102538
1711685763341,-13337.752485123696
1711685763381,-11941.824056431418
1711685763422,-10886.51003376022
1711685763461,-9261.100139719201
1711685763501,-8032.161855214741
1711685763541,-7636.043438916793
1711685763581,-11150.137704619206
1711685763622,-14696.435668770224
1711685763662,-16942.333567732945
1711685763702,-17731.683915731497
1711685763742,-17702.631239331095
1711685763782,-17168.85815217672
1711685763823,-16177.522848886205
1711685763862,-16410.455128019443
1711685763903,-16864.827288320754
1711685763943,-17093.43425556575
1711685763983,-15897.864250736311
1711685764024,-14847.963592159329
1711685764063,-13124.382684165612
1711685764103,-11780.579042132013
1711685764143,-10358.262022204231
1711685764183,-9018.301803753478
1711685764224,-7527.281501108548
1711685764264,-6041.539671011735
1711685764304,-7231.134843027685
1711685764344,-10737.08468195307
1711685764384,-13121.866377516417
1711685764425,-14035.847572132945
1711685764464,-14436.356650285423
1711685764504,-13404.26514062658
1711685764544,-12581.453925093636
1711685764584,-12035.777311917394
1711685764625,-11972.173792073037
1711685764665,-12011.692408904433
1711685764705,-11466.317826334387
1711685764745,-10998.819653617218
1711685764785,-9769.435297267977
1711685764826,-8096.4178763821255
1711685764866,-6987.85289208265
1711685764906,-5790.505459374981
1711685764946,-4812.413557844702
1711685764986,-3038.1183068403043
1711685765029,-2463.167139273137
1711685765066,-7575.157889683964
1711685765106,-8813.658698112005
1711685765146,-8915.585573140532
1711685765186,-8477.188592644874
1711685765227,-7423.09358427953
1711685765266,-6584.164273752598
1711685765307,-6214.915857434738
1711685765347,-6697.077547444496
1711685765387,-6447.503763946937
1711685765428,-5648.670043683611
1711685765467,-4481.052373826504
1711685765507,-3128.4612157915253
1711685765547,-1672.1719406018965
1711685765587,-584.0408202083781
1711685765628,860.2657580589876
1711685765667,2152.5710334088653
1711685765707,3448.5579244513065
1711685765747,1891.2886568713002
1711685765787,-755.8673038515262
1711685765828,-1994.098971052561
1711685765868,-2336.0263027017936
1711685765908,-2222.5635876250453
1711685765948,-1327.5477608805522
1711685765988,-80.37770111579448
1711685766029,99.57710439711809
1711685766068,-255.55476330127567
1711685766108,-93.05927511304617
1711685766148,808.3734144447371
1711685766189,1347.9494052361697
1711685766229,2696.8095958926715
1711685766269,3750.9976941910572
1711685766309,5043.163265965413
1711685766349,6318.566080232151
1711685766389,7127.637922707479
1711685766430,7367.388467273209
1711685766469,4763.5797748193145
1711685766509,2028.1099469866604
1711685766549,602.4952687858604
1711685766589,494.7816746686585
1711685766630,1072.5007238448597
1711685766670,2574.8367042667232
1711685766710,3258.726027933182
1711685766750,3879.0846010684036
1711685766790,3448.625275873812
1711685766831,4053.495419913437
1711685766870,4698.183144815732
1711685766910,6070.197652055882
1711685766950,7159.843052567681
1711685766990,8472.141832740512
1711685767031,9155.2260663216
1711685767070,9285.899204736343
1711685767111,9800.921844934579
1711685767151,8557.473823820706
1711685767191,6235.247677514562
1711685767234,870.6418616585433
1711685767271,-2970.3524140296504
1711685767311,-3097.2969933021814
1711685767351,-4304.758778611431
1711685767392,-10007.27066584304
1711685767432,-9254.839761791285
1711685767472,-8725.937559413258
1711685767512,-10132.234334302135
1711685767552,-5898.695137064671
1711685767592,-862.0526686334051
1711685767633,2443.0215515261516
1711685767672,6667.58258966892
1711685767712,14694.506718297955
1711685767753,18694.285769497044
1711685767793,23942.50887032738
1711685767833,28403.20297428826
1711685767873,31792.123533776263
1711685767913,33352.420565990964
1711685767953,26169.495118902065
1711685767993,23105.606376003707
1711685768034,26579.593921680935
1711685768073,29197.468081710394
1711685768113,34267.225884075044
1711685768153,33328.58459504112
1711685768194,30020.84021621989
1711685768235,28286.551320348866
1711685768274,23860.954872993054
1711685768314,24338.55753417313
1711685768354,21991.282117557246
1711685768394,17333.482832793845
1711685768435,13491.177078546025
1711685768474,14005.954132326879
1711685768514,16468.142831708305
1711685768555,16078.215388457058
1711685768595,6912.023535725195
1711685768635,-1343.234519609483
1711685768675,4007.4321906394325
1711685768715,8512.53102089744
1711685768755,8133.919505931437
1711685768795,8992.677192984615
1711685768836,6830.048366350122
1711685768911,6140.155372144654
1711685768951,7507.7832216070965
1711685768992,7864.78541245684
1711685769032,2806.1263634597417
1711685769072,206.86961639346555
1711685769112,-4421.451051676646
1711685769152,-8593.734142540023
1711685769192,-10533.501468128525
1711685769232,-10511.164068493992
1711685769273,-2909.2113255658187
1711685769312,-2216.8662863471545
1711685769353,-6544.6457832166925
1711685769393,-8227.669251171872
1711685769433,-11405.960908633657
1711685769474,-10202.445303591667
1711685769513,-6812.531713652657
1711685769553,-7757.688373069745
1711685769593,-7717.018792035757
1711685769633,-10063.62906776974
1711685769674,-9652.082387208706
1711685769714,-4607.771645322908
1711685769754,1667.2099940348417
1711685769794,3047.263893420575
1711685769834,2000.8364634716418
1711685769875,3752.33309892728
1711685769914,12676.251225667307
1711685769954,22243.40995475091
1711685769994,24437.395681424532
1711685770034,22406.73766900343
1711685770075,22837.925779769663
1711685770115,23787.189027700573
1711685770155,23476.076512556523
1711685770195,23009.192780314013
1711685770235,21183.075412811013
1711685770276,16012.996102472534
1711685770315,11034.621942908969
1711685770355,8158.725368809421
1711685770395,5902.352899594232
1711685770436,4745.209809686523
1711685770476,4770.413933619857
1711685770516,4167.739726758795
1711685770556,2821.3291375294793
1711685770596,2048.8411796316504
1711685770636,1004.643883455079
1711685770677,242.3115656238515
1711685770716,50.25282448111102
1711685770756,194.3779924614355
1711685770797,445.3377906088717
1711685770836,647.1370423375629
1711685770877,813.0425109821372
1711685770917,553.8913450776599
1711685770957,-196.21134350565262
1711685770997,-5443.347749069799
1711685771037,-10397.969425845891
1711685771078,-13530.496292485157
1711685771117,-15150.174673000583
1711685771158,-15658.123561681714
1711685771198,-15818.911069551017
1711685771238,-15764.28983103251
1711685771279,-17422.201928423252
1711685771318,-19304.039899983443
1711685771358,-19694.3534859356
1711685771398,-19402.704739845125
1711685771438,-18799.053891654592
1711685771479,-18081.274686532794
1711685771519,-16648.851294370135
1711685771559,-15039.668862396386
1711685771599,-14098.059007095639
1711685771639,-13477.49955956405
1711685771680,-14665.859645979013
1711685771719,-19017.410273381276
1711685771759,-23027.16146622831
1711685771799,-24862.14867804339
1711685771840,-25490.664890675806
1711685771881,-25439.77022587997
1711685771920,-24342.815073847305
1711685771960,-23483.63443318219
1711685772000,-24186.847344418522
1711685772040,-24429.3719599694
1711685772081,-24336.1236648364
1711685772121,-23599.008403082844
1711685772161,-22513.532552480698
1711685772201,-21096.364493270405
1711685772241,-19940.45619416167
1711685772282,-18920.97279400495
1711685772321,-17615.285371715203
1711685772361,-16504.436159760924
1711685772401,-17517.444401822053
1711685772441,-21221.567103812937
1711685772482,-24571.415904790396
1711685772522,-25757.4680095145
1711685772562,-25563.023044154746
1711685772602,-24514.235477463575
1711685772642,-23630.62421039655
1711685772683,-22709.114659418818
1711685772722,-22450.527539491188
1711685772762,-22994.985685253283
1711685772802,-22244.009256710066
1711685772842,-21476.860748660285
1711685772883,-20086.349232435692
1711685772922,-18540.199075145647
1711685772962,-17427.31738746306
1711685773002,-15328.034844093956
1711685773043,-14057.130119435722
1711685773083,-12792.722804854857
1711685773123,-13914.62936158292
1711685773163,-17364.31618560059
1711685773203,-19828.48271694407
1711685773243,-21427.845567527227
1711685773284,-20664.05120726442
1711685773323,-19130.13540671533
1711685773363,-18105.57432341366
1711685773404,-17586.80703340564
1711685773444,-17818.82336308714
1711685773484,-17902.823765982408
1711685773524,-16970.739634171594
1711685773564,-15442.268067392055
1711685773604,-13935.984119915869
1711685773644,-12812.930999567732
1711685773685,-11451.70347435819
1711685773724,-10247.458955148468
1711685773764,-8742.348503887653
1711685773805,-8362.253816702403
1711685773844,-10697.423401536886
1711685773885,-13313.547887413297
1711685773925,-14093.427192131057
1711685773965,-14327.938522836193
1711685774005,-14054.166345337871
1711685774045,-11528.575037852395
1711685774086,-10234.460666041123
1711685774125,-9366.310089029837
1711685774165,-9085.974398987833
1711685774205,-8706.913570156554
1711685774245,-7533.213827788364
1711685774286,-6443.42613778403
1711685774326,-4459.820181686431
1711685774366,-2590.2204405437224
1711685774406,-1595.9072670959868
1711685774446,-33.86742525128648
1711685774487,1061.5461185160093
1711685774526,-407.82839682139456
1711685774566,-3720.0011888896115
1711685774606,-6165.8154278656
1711685774647,-6605.77670296072
1711685774687,-6306.5978531518485
1711685774727,-4954.781797748059
1711685774767,-4027.703915408114
1711685774807,-4003.7056266618893
1711685774847,-4097.828831976745
1711685774888,-3466.091993840877
1711685774927,-2740.258245910518
1711685774967,-1898.5800898373127
1711685775007,-213.18718343693763
1711685775047,1237.355522560887
1711685775088,2363.9043962094
1711685775128,3838.6705910074525
1711685775168,5128.387007378973
1711685775208,3598.0786559705157
1711685775248,1419.247765404638
1711685775289,-974.0493550288957
1711685775328,-2818.9875567818526
1711685775368,-2935.144734108355
1711685775408,-2655.8427518403623
1711685775448,-1349.6684860144742
1711685775489,-602.4691171459854
1711685775528,-516.8736887013074
1711685775569,-611.8721439167857
1711685775609,-354.3250858699903
1711685775649,517.5115277497098
1711685775690,1892.8136717719026
1711685775729,3675.2090982375666
1711685775769,4114.493947145995
1711685775809,4697.037848056294
1711685775849,5621.573017114541
1711685775890,6684.6025036112405
1711685775930,6117.465802797116
1711685775970,3412.1828049002215
1711685776010,672.4730091509409
1711685776050,-489.8047571904026
1711685776091,-695.5664569246583
1711685776130,-270.387192531256
1711685776170,869.5779734174721
1711685776211,954.1992406640202
1711685776250,1087.542468645377
1711685776291,1153.0118349241093
1711685776331,1567.5161792035215
1711685776371,2594.638146430487
1711685776411,3591.4730452643707
1711685776451,4648.910436245613
1711685776492,5742.6978389834985
1711685776531,6407.4084720877
1711685776572,7335.085171381012
1711685776612,8443.133383008419
1711685776652,8172.807178327115
1711685776693,5935.854282245273
1711685776732,2766.8614056052174
1711685776772,681.7115753474645
1711685776812,779.1256428156048
1711685776852,1035.3016618038528
1711685776893,1987.365288805915
1711685776933,2545.279534093337
1711685776973,2173.3498179968446
1711685777013,1699.4545737248845
1711685777053,2544.6973965973593
1711685777093,3263.0720905079506
1711685777133,4195.197523045354
1711685777173,5244.8827824736945
1711685777213,5575.758495729417
1711685777253,6628.062628281768
1711685777294,7247.8889292171225
1711685777333,8124.847336554434
1711685777374,8136.876016394701
1711685777414,6266.695611891802
1711685777454,3697.5879107266665
1711685777495,2428.2392364542466
1711685777534,2008.7792152953334
1711685777574,1859.1581691133324
1711685777614,2925.723411822226
1711685777655,3764.7714121520985
1711685777695,4057.9464327846654
1711685777735,4207.487169032451
1711685777775,4332.834941196488
1711685777815,4768.046960246749
1711685777855,5653.119508053642
1711685777896,6494.315988596296
1711685777935,7450.81561100157
1711685777975,7962.15807399014
1711685778016,8941.771086176392
1711685778056,10053.439617878292
1711685778096,9887.443977693096
1711685778136,8283.81083728047
1711685778176,5640.751236191252
1711685778216,3531.7245870684274
1711685778256,3314.333142390009
1711685778297,4109.175940709887
1711685778337,4934.3018075313885
1711685778377,5663.895815484691
1711685778417,6278.797642750666
1711685778457,5619.675604351796
1711685778498,5692.498724000761
1711685778537,5868.049524890259
1711685778577,7148.29345454555
1711685778618,7836.49832109781
1711685778658,9044.838649839628
1711685778698,10249.77946701087
1711685778738,10265.664998766966
1711685778778,10663.67346436344
1711685778818,11024.403331945883
1711685778858,9456.07965702191
1711685778899,6336.1791228000075
1711685778938,3900.7435864354484
1711685778979,3051.562879182864
1711685779019,2775.3197748679668
1711685779059,3357.5130228060298
1711685779100,4395.077030256856
1711685779139,4594.915361108957
1711685779179,4376.8578938958235
1711685779219,3954.1576612340286
1711685779259,4676.982164403191
1711685779300,5339.356067020446
1711685779340,6014.575293994276
1711685779380,6687.0557702057995
1711685779420,7258.2122970405035
1711685779460,7709.83396750805
1711685779501,8429.381623730762
1711685779540,9233.653268055525
1711685779581,9263.36412686808
1711685779620,6401.229624352418
1711685779661,3721.31566005433
1711685779682,1450.1375853091013
1711685779721,1092.2672575968318
1711685779761,964.8177849082276
1711685779802,1797.0132901924662
1711685779841,2213.852090163622
1711685779882,2195.5879717168864
1711685779922,1788.0819032327272
1711685779962,1332.3927733576857
1711685780002,1790.414639128372
1711685780042,2763.496750530321
1711685780083,3924.916092807427
1711685780122,4324.788014223566
1711685780162,5670.0412986511365
1711685780202,6117.706205718918
1711685780242,6379.457352303667
1711685780283,6762.131384567358
1711685780323,7019.151025690138
1711685780363,4364.432453403482
1711685780403,1372.8165361550637
1711685780443,-468.0727841274347
1711685780484,-1239.229796368163
1711685780523,-1584.0073511903174
1711685780563,-726.9021569653414
1711685780603,348.2912722809706
1711685780643,856.7194734341465
1711685780684,152.76104302657768
1711685780724,318.4648502441123
1711685780764,764.9785731704906
1711685780804,1467.8046897831373
1711685780844,2063.2269450835884
1711685780885,2937.2448938919697
1711685780924,3157.6429760484025
1711685780963,4018.8911866946146
1711685781003,4391.940084039699
1711685781043,5248.989177032607
1711685781083,5076.020296929637
1711685781123,2171.7141168487724
1711685781163,-521.2648299923167
1711685781203,-2042.0201457496732
1711685781243,-2206.864856789587
1711685781283,-2211.505750803044
1711685781323,-1014.9478360961657
1711685781363,-364.5351443863474
1711685781403,-46.20033205952495
1711685781443,-531.3542795602698
1711685781483,-449.9186988589354
1711685781523,220.37173361703753
1711685781563,1430.5541878005024
1711685781603,2080.1103226700798
1711685781643,2862.2843318798114
1711685781683,3804.026286348235
1711685781723,4393.485095831566
1711685781763,5760.680424713995
1711685781803,6211.535503778607
1711685781843,3040.655363873113
1711685781883,-72.16852831537835
1711685781923,-2035.873857355211
1711685781963,-2607.9048028080724
1711685782003,-2138.301508854609
1711685782043,-957.9904022593983
1711685782083,-664.1376659027301
1711685782123,-354.37834659125656
1711685782163,-866.103822252946
1711685782203,-943.0631889002398
1711685782243,-530.4460109346546
1711685782283,472.1368752291892
1711685782323,1273.046666813083
1711685782363,2177.4756968263537
1711685782403,3307.5903306487016
1711685782443,3825.0799202346243
1711685782483,4564.3140800208785
1711685782523,5033.478430644609
1711685782563,1775.4685204480775
1711685782603,-1970.9764309837483
1711685782643,-4605.271400752477
1711685782683,-5663.047149035148
1711685782723,-5856.054235975491
1711685782763,-5309.087427167455
1711685782803,-5117.822408701759
1711685782843,-5410.493921585847
1711685782883,-5612.538879534695
1711685782923,-5540.432928173104
1711685782963,-5415.558134969557
1711685783003,-4522.671532252571
1711685783043,-3866.787159819156
1711685783083,-2909.1444279621355
1711685783123,-1535.945194367785
1711685783163,-502.757049493026
1711685783203,578.9239647225477
1711685783243,1254.2537896647118
1711685783283,-1688.9131219051778
1711685783323,-5812.180423411075
1711685783363,-8054.932009845972
1711685783403,-8777.616386927199
1711685783443,-8503.030811991077
1711685783483,-7642.656205100473
1711685783523,-6804.09092479269
1711685783563,-6922.780826321337
1711685783603,-7350.533835179638
1711685783643,-7358.69394562114
1711685783683,-7040.792723668972
1711685783723,-5892.043341899756
1711685783763,-4912.59410297242
1711685783803,-4309.19700698345
1711685783843,-3190.3080180613324
1711685783883,-2366.5122465575114
1711685783923,-1777.189187720418
1711685783963,-822.291314230999
1711685784003,-3325.6415859162807
1711685784043,-6522.473837208003
1711685784083,-8310.383446688298
1711685784123,-9101.568615796044
1711685784163,-8757.377544948831
1711685784203,-7502.608246398158
1711685784243,-6919.46305993665
1711685784283,-6723.245816133451
1711685784323,-7256.098785584327
1711685784363,-7420.222094919998
1711685784403,-7630.105783986393
1711685784443,-6825.832639747765
1711685784483,-5592.549172610976
1711685784523,-4971.110314782942
1711685784563,-3650.175839057425
1711685784603,-2462.1710496703163
1711685784643,-1587.2066777206492
1711685784683,-1938.767123123398
1711685784723,-4621.485979140736
1711685784763,-7487.5116204279475
1711685784803,-9578.32909583184
1711685784843,-9411.116206842009
1711685784883,-9145.995607235469
1711685784923,-7553.890069887042
1711685784963,-6953.178555665305
1711685785003,-6879.799579251092
1711685785043,-7288.4292979741
1711685785083,-7447.557548998389
1711685785123,-7034.1174287102185
1711685785163,-5873.935775979189
1711685785203,-4240.011492763646
1711685785243,-3196.4173060706817
1711685785283,-1946.513042617822
1711685785323,-743.0182633597869
1711685785363,-268.9814928069245
1711685785403,-2243.839328381
1711685785443,-5108.2182158287615
1711685785483,-7083.999754951568
1711685785523,-7517.004588999087
1711685785563,-6832.510263466043
1711685785603,-4982.048205390107
1711685785643,-3941.764159793034
1711685785683,-3303.866988533642
1711685785723,-3527.03718834091
1711685785763,-3613.9403368849307
1711685785803,-3058.8204615558498
1711685785843,-1850.08900589915
1711685785883,-655.7134322118945
1711685785923,672.0448880570475
1711685785963,1789.685887970496
1711685786003,2915.0151824275963
1711685786043,3596.501675670501
1711685786083,2474.357065257849
1711685786123,-1057.9887499511242
1711685786163,-3918.5189910815097
1711685786203,-5485.9233214524575
1711685786243,-5474.908078853041
1711685786283,-4404.365821772255
1711685786323,-3907.090416670544
1711685786363,-3679.4499329274986
1711685786403,-3670.68679660419
1711685786443,-3245.6676696070936
1711685786483,-2180.205014490988
1711685786523,-862.1310258426238
1711685786563,121.23006784170866
1711685786603,1424.208225169219
1711685786643,2545.3028706018813
1711685786683,3524.230243395781
1711685786723,4242.0296701523475
1711685786763,2441.9217932086904
1711685786803,-666.5888719302602
1711685786843,-3999.993912121281
1711685786883,-5690.9441647168715
1711685786923,-5672.529084870359
1711685786963,-5721.628048210405
1711685787003,-4195.200660082279
1711685787043,-3945.3857157863677
1711685787083,-3976.1644830771256
1711685787123,-4636.74264349509
1711685787163,-3929.2872805474326
1711685787203,-3237.0554686666
1711685787243,-1409.7819708839525
1711685787283,-267.55247657815926
1711685787323,1093.817142587155
1711685787363,2185.0793938697316
1711685787403,2861.511680586962
1711685787443,3495.8349856587593
1711685787483,3348.035139692016
1711685787523,988.4571133807767
1711685787563,-2240.3257292956114
1711685787603,-4294.466211797902
1711685787643,-5111.366748292465
1711685787683,-5254.254827748984
1711685787723,-4561.926902498584
1711685787763,-3639.7615110352635
1711685787803,-3710.119119699113
1711685787843,-3679.729741600342
1711685787883,-3069.7797192563303
1711685787923,-2285.660530512687
1711685787963,-1185.1334812003188
1711685788003,370.78024594672024
1711685788043,1519.0950152627192
1711685788083,2531.3798018635716
1711685788123,3661.952965864679
1711685788163,4275.530385804828
1711685788203,5186.032545687864
1711685788243,5792.456477492349
1711685788283,2493.8546383948997
1711685788323,-609.8121681832708
1711685788363,-2322.6387476988602
1711685788403,-2434.1531288037077
1711685788443,-2486.7487180158496
1711685788483,-1306.4029779215343
1711685788523,-996.6034573628567
1711685788563,-996.8890097849071
1711685788603,-1520.8306997192558
1711685788643,-1412.0103048318997
1711685788683,-900.6647998122498
1711685788723,-46.29128930764273
1711685788763,944.3780869801994
1711685788803,1993.6896929235663
1711685788843,2888.426758260699
1711685788883,3349.266717890976
1711685788923,3988.4857694644015
1711685788963,5373.810181805864
1711685789003,5804.064804459456
1711685789043,3209.0601903358474
1711685789083,463.82547867367975
1711685789123,-1454.382238031365
1711685789163,-2144.195347378729
1711685789203,-1704.2434699134901
1711685789243,-447.1842750515789
1711685789283,4.270415923791006
1711685789323,48.84268026985228
1711685789363,-581.0336622933391
1711685789403,-922.8523538562004
1711685789443,-16.02222063066438
1711685789483,463.88710598647594
1711685789523,1509.5178187408019
1711685789563,2265.8271331614815
1711685789603,3533.4729267256334
1711685789643,4290.890864188317
1711685789683,5286.5912199364975
1711685789723,6517.429703850299
1711685789763,5393.690046044998
1711685789803,2692.9168152809143
1711685789843,145.44683458143845
1711685789883,-498.3148178034462
1711685789923,-289.4668811990414
1711685789963,886.1621868677903
1711685790003,2523.4319445821457
1711685790043,2788.4000813509338
1711685790083,2790.5476580467075
1711685790123,2778.720462020021
1711685790163,3589.759290621616
1711685790203,4540.074434884358
1711685790243,5184.647556954529
1711685790283,6200.043969899882
1711685790323,7385.373593463562
1711685790363,8503.29001110862
1711685790403,9454.151291635353
1711685790443,10087.438423602842
1711685790483,10048.785865725018
1711685790523,7188.548789839726
1711685790563,4268.248087931657
1711685790603,2059.315334422514
1711685790643,1872.3435280381236
1711685790683,2619.973974467255
1711685790723,3509.402262474643
1711685790763,4371.053889440373
1711685790803,4459.2990201285575
1711685790843,4504.56951949466
1711685790883,4545.346418290632
1711685790923,5249.947309084237
1711685790963,6104.126850784523
1711685791003,7102.771148280706
1711685791043,8083.505714807892
1711685791083,9256.777942214394
1711685791123,10189.661623494001
1711685791163,11012.764767253073
1711685791203,11319.966625622008
1711685791243,9791.003096361412
1711685791283,6787.284220178379
1711685791323,4141.854174705222
1711685791363,2763.899515511468
1711685791403,1926.919971352443
1711685791443,2348.2530583404005
1711685791483,3126.7453827660065
1711685791523,3548.406605056487
1711685791563,3474.905116119655
1711685791603,3302.4676965209655
1711685791643,3298.565014626365
1711685791683,4186.720956200268
1711685791723,4970.155949550681
1711685791763,5354.437896842603
1711685791803,6152.8388985060155
1711685791843,6924.001696292777
1711685791883,7915.655661930097
1711685791923,8420.516915987944
1711685791963,8274.920147620374
1711685792003,5671.54664703086
1711685792043,2661.8346919412725
1711685792083,643.6360336600337
1711685792123,54.410938036162406
1711685792163,26.095220813527703
1711685792203,590.757420306094
1711685792243,1061.4935651805717
1711685792283,1631.919214635156
1711685792323,920.8684109784663
1711685792363,511.2541497675702
1711685792403,504.5834515648894
1711685792443,1695.7807766562328
1711685792483,2503.967229454778
1711685792523,2915.1799639919773
1711685792563,3950.7874446171336
1711685792603,4391.1485553015955
1711685792643,4468.4014756116085
1711685792683,5404.058066794649
1711685792723,3981.4695922732353
1711685792763,875.9736926159821
1711685792803,-2054.662185281981
1711685792843,-3237.932731439825
1711685792883,-3433.3013380947523
1711685792922,-2800.5388924288563
1711685792962,-2155.3725088380743
1711685793002,-1206.7333044931293
1711685793042,-1174.4268906493671
1711685793083,-1206.2679195222445
1711685793122,-776.9637177614495
1711685793162,-473.4496234867256
1711685793203,495.8908121981658
1711685793243,789.2278784513474
1711685793283,1673.8360367263667
1711685793323,2144.880985483993
1711685793363,2810.18117543729
1711685793403,3505.1437861672603
1711685793443,2763.1480873669498
1711685793484,462.71895556128584
1711685793523,-1861.8085190891288
1711685793563,-3394.2535462379456
1711685793603,-2896.5023777782917
1711685793643,-1681.337835901184
1711685793684,152.3980784676969
1711685793724,570.4457138106227
1711685793764,649.1067533749156
1711685793804,449.35247439239174
1711685793844,718.2966308891773
1711685793885,1544.1749969427474
1711685793924,3167.603404318448
1711685793964,4326.4324120697565
1711685794004,5435.30718382122
1711685794044,6289.008268532343
1711685794085,7610.92053196067
1711685794124,8248.203736911993
1711685794164,5771.47049063025
1711685794205,2778.4060847419314
1711685794245,484.31438773777336
1711685794285,-366.45480843493715
1711685794325,-185.61053077224642
1711685794365,301.2197330892086
1711685794405,1490.7879426428117
1711685794445,1809.6220239298418
1711685794486,1989.2984874672256
1711685794525,2171.75892762281
1711685794566,2202.9248410873115
1711685794605,2986.8291489370167
1711685794645,3543.6099347178824
1711685794686,4465.117219521664
1711685794726,5126.527695226483
1711685794766,5506.719237587182
1711685794806,6125.448155188467
1711685794846,6318.298876414541
1711685794887,3642.832319526002
1711685794926,285.31818748801015
1711685794966,-2859.510027105687
1711685795006,-4029.511233451776
1711685795046,-4097.174142483622
1711685795087,-2977.9998904648237
1711685795127,-2509.5956552939024
1711685795167,-1811.3245840673335
1711685795207,-2005.5514994021505
1711685795247,-2147.792739564553
1711685795288,-2071.4994281975087
1711685795327,-1253.9788177548908
1711685795367,-394.75726029416546
1711685795407,426.1093588222284
1711685795447,2207.9563621934503
1711685795488,3632.4217161345296
1711685795528,4165.796242358163
