dataReceived,timestamp,ppg,status
1711685660605,1711685648550,2097152,0
1711685660605,1711685648590,2097152,0
1711685660605,1711685648630,2354915,0
1711685660605,1711685648670,2355046,0
1711685660605,1711685648711,2355230,0
1711685660605,1711685648751,2355397,0
1711685660605,1711685648791,2355587,0
1711685660605,1711685648831,2355759,0
1711685660605,1711685648871,2355974,0
1711685660605,1711685648912,2355742,0
1711685660605,1711685648951,2354643,0
1711685660605,1711685648991,2210095,0
1711685660605,1711685649031,2209293,0
1711685660605,1711685649071,2208893,0
1711685660605,1711685649113,2208664,0
1711685660605,1711685649152,2208508,0
1711685660605,1711685649192,2131439,0
1711685660605,1711685649232,2131084,0
1711685660605,1711685649272,2131015,0
1711685660605,1711685649313,2130076,0
1711685660605,1711685649352,2129950,0
1711685660605,1711685649392,2129663,0
1711685660605,1711685649433,2098235,0
1711685660605,1711685649473,2098603,0
1711685660605,1711685649514,2099352,0
1711685660605,1711685649553,2102063,0
1711685660605,1711685649593,2104431,0
1711685660605,1711685649633,2106980,0
1711685660605,1711685649673,2106990,0
1711685660605,1711685649717,2099441,0
1711685660605,1711685649753,2093775,0
1711685660605,1711685649794,2089120,0
1711685660605,1711685649834,2087679,0
1711685660605,1711685649874,2087156,0
1711685660605,1711685649915,2087629,0
1711685660605,1711685649954,2088152,0
1711685660605,1711685649994,2087742,0
1711685660605,1711685650034,2086590,0
1711685660605,1711685650074,2086031,0
1711685660605,1711685650115,2085926,0
1711685660605,1711685650154,2086590,0
1711685660605,1711685650194,2087944,0
1711685660605,1711685650234,2089312,0
1711685660605,1711685650275,2090752,0
1711685660605,1711685650316,2092119,0
1711685660605,1711685650355,2093709,0
1711685660605,1711685650395,2094407,0
1711685660605,1711685650435,2089405,0
1711685660605,1711685650475,2082642,0
1711685660605,1711685650516,2077848,0
1711685660605,1711685650555,2075904,0
1711685660605,1711685650595,2075623,0
1711685660605,1711685650635,2076127,0
1711685660605,1711685650676,2077182,0
1711685660605,1711685650717,2077318,0
1711685660605,1711685650756,2076777,0
1711685660605,1711685650796,2076288,0
1711685660605,1711685650836,2076673,0
1711685660605,1711685650876,2077668,0
1711685660605,1711685650917,2079335,0
1711685660605,1711685650956,2081476,0
1711685660605,1711685650996,2083668,0
1711685660605,1711685651036,2085806,0
1711685660605,1711685651076,2088464,0
1711685660605,1711685651117,2090560,0
1711685660605,1711685651157,2087832,0
1711685660605,1711685651197,2081592,0
1711685660605,1711685651237,2077281,0
1711685660605,1711685651277,2076372,0
1711685660605,1711685651318,2078160,0
1711685660605,1711685651357,2080874,0
1711685660605,1711685651397,2085781,0
1711685660605,1711685651437,2090986,0
1711685660605,1711685651477,2094863,0
1711685660605,1711685651518,2098142,0
1711685660605,1711685651557,2102104,0
1711685660605,1711685651598,2105927,0
1711685660605,1711685651638,2110118,0
1711685660605,1711685651678,2113996,0
1711685660605,1711685651719,2116747,0
1711685660605,1711685651758,2118134,0
1711685660605,1711685651798,2119840,0
1711685660605,1711685651838,2120975,0
1711685660605,1711685651878,2122996,0
1711685660605,1711685651922,2118665,0
1711685660605,1711685651958,2110830,0
1711685660605,1711685651999,2105714,0
1711685660605,1711685652039,2102447,0
1711685660605,1711685652079,2100460,0
1711685660605,1711685652120,2098832,0
1711685660605,1711685652159,2097382,0
1711685660605,1711685652199,2095721,0
1711685660605,1711685652239,2093923,0
1711685660605,1711685652279,2090838,0
1711685660605,1711685652320,2089533,0
1711685660605,1711685652359,2087981,0
1711685660605,1711685652399,2087417,0
1711685660605,1711685652440,2087114,0
1711685660605,1711685652480,2086704,0
1711685660605,1711685652521,2087197,0
1711685660605,1711685652560,2086769,0
1711685660605,1711685652600,2086979,0
1711685660605,1711685652640,2082507,0
1711685660605,1711685652680,2074860,0
1711685660605,1711685652721,2069920,0
1711685660605,1711685652760,2066376,0
1711685660605,1711685652800,2064507,0
1711685660605,1711685652841,2063325,0
1711685660605,1711685652881,2063014,0
1711685660605,1711685652922,2062576,0
1711685660605,1711685652961,2060991,0
1711685660605,1711685653001,2059533,0
1711685660605,1711685653041,2058836,0
1711685660605,1711685653081,2058571,0
1711685660605,1711685653122,2058643,0
1711685660605,1711685653161,2059175,0
1711685660605,1711685653202,2059943,0
1711685660605,1711685653242,2060520,0
1711685660605,1711685653282,2061543,0
1711685660605,1711685653323,2059717,0
1711685660605,1711685653362,2053510,0
1711685660605,1711685653402,2048304,0
1711685660605,1711685653442,2044718,0
1711685660605,1711685653482,2042520,0
1711685660605,1711685653523,2041515,0
1711685660605,1711685653563,2041100,0
1711685660605,1711685653603,2040527,0
1711685660605,1711685653643,2039057,0
1711685660605,1711685653683,2037656,0
1711685660605,1711685653724,2036632,0
1711685660605,1711685653763,2036342,0
1711685660605,1711685653803,2036535,0
1711685660605,1711685653843,2036729,0
1711685660605,1711685653883,2037286,0
1711685660605,1711685653924,2037905,0
1711685660605,1711685653964,2038519,0
1711685660605,1711685654004,2037181,0
1711685660605,1711685654044,2030475,0
1711685660605,1711685654084,2024901,0
1711685660605,1711685654125,2021514,0
1711685660605,1711685654164,2020003,0
1711685660605,1711685654204,2019762,0
1711685660605,1711685654244,2021183,0
1711685660605,1711685654285,2022251,0
1711685660605,1711685654326,2023252,0
1711685660605,1711685654365,2024942,0
1711685660605,1711685654405,2026164,0
1711685660605,1711685654445,2028594,0
1711685660605,1711685654485,2031458,0
1711685660605,1711685654526,2033968,0
1711685660605,1711685654565,2036769,0
1711685660605,1711685654605,2039794,0
1711685660605,1711685654646,2042687,0
1711685660605,1711685654686,2043552,0
1711685660605,1711685654727,2039619,0
1711685660605,1711685654766,2035325,0
1711685660605,1711685654806,2033509,0
1711685660605,1711685654846,2032337,0
1711685660605,1711685654886,2032395,0
1711685660605,1711685654927,2031901,0
1711685660605,1711685654966,2032088,0
1711685660605,1711685655006,2031723,0
1711685660605,1711685655046,2030611,0
1711685660605,1711685655087,2031452,0
1711685660605,1711685655128,2030537,0
1711685660605,1711685655167,2028485,0
1711685660605,1711685655207,2027203,0
1711685660605,1711685655247,2026741,0
1711685660605,1711685655287,2027560,0
1711685660605,1711685655328,2028271,0
1711685660605,1711685655368,2028787,0
1711685660605,1711685655408,2027453,0
1711685660605,1711685655448,2022637,0
1711685660605,1711685655488,2018428,0
1711685660605,1711685655529,2016234,0
1711685660605,1711685655568,2014809,0
1711685660605,1711685655608,2014158,0
1711685660605,1711685655648,2014506,0
1711685660605,1711685655688,2014187,0
1711685660605,1711685655730,2014111,0
1711685660605,1711685655769,2014071,0
1711685660605,1711685655809,2013910,0
1711685660605,1711685655849,2014382,0
1711685660605,1711685655889,2017144,0
1711685660605,1711685655930,2018948,0
1711685660605,1711685655970,2021411,0
1711685660605,1711685656010,2026377,0
1711685660605,1711685656050,2028654,0
1711685660605,1711685656090,2030006,0
1711685660605,1711685656131,2031335,0
1711685660605,1711685656170,2026682,0
1711685660605,1711685656210,2024286,0
1711685660605,1711685656250,2021878,0
1711685660605,1711685656291,2021687,0
1711685660605,1711685656332,2021713,0
1711685660605,1711685656371,2021767,0
1711685660605,1711685656411,2020699,0
1711685660605,1711685656451,2020130,0
1711685660605,1711685656491,2019323,0
1711685660605,1711685656532,2019383,0
1711685660605,1711685656572,2019538,0
1711685660605,1711685656612,2020283,0
1711685660605,1711685656652,2021381,0
1711685660605,1711685656692,2022764,0
1711685660605,1711685656733,2023826,0
1711685660605,1711685656772,2025588,0
1711685660605,1711685656812,2026366,0
1711685660605,1711685656852,2023963,0
1711685660605,1711685656893,2021385,0
1711685660605,1711685656934,2019342,0
1711685660605,1711685656973,2019346,0
1711685660605,1711685657013,2020174,0
1711685660605,1711685657053,2021037,0
1711685660605,1711685657093,2021753,0
1711685660605,1711685657134,2022929,0
1711685660605,1711685657173,2023107,0
1711685660605,1711685657213,2023510,0
1711685660605,1711685657254,2024681,0
1711685660605,1711685657294,2025435,0
1711685660605,1711685657335,2027211,0
1711685660605,1711685657374,2028511,0
1711685660605,1711685657414,2029983,0
1711685660605,1711685657454,2031560,0
1711685660605,1711685657494,2033129,0
1711685660605,1711685657535,2032618,0
1711685660605,1711685657574,2029396,0
1711685660605,1711685657614,2026351,0
1711685660605,1711685657655,2025400,0
1711685660605,1711685657695,2025139,0
1711685660605,1711685657736,2025282,0
1711685660605,1711685657775,2026299,0
1711685660605,1711685657815,2026631,0
1711685660605,1711685657855,2027042,0
1711685660605,1711685657895,2027291,0
1711685660605,1711685657936,2027540,0
1711685660605,1711685657975,2028207,0
1711685660605,1711685658015,2029452,0
1711685660605,1711685658055,2030581,0
1711685660605,1711685658096,2032016,0
1711685660605,1711685658137,2033118,0
1711685660605,1711685658176,2034551,0
1711685660605,1711685658216,2035861,0
1711685660605,1711685658256,2036052,0
1711685660605,1711685658296,2033153,0
1711685660605,1711685658337,2029459,0
1711685660605,1711685658376,2028565,0
1711685660605,1711685658416,2028600,0
1711685660605,1711685658456,2028578,0
1711685660605,1711685658497,2029026,0
1711685660605,1711685658537,2029991,0
1711685660605,1711685658577,2030294,0
1711685660605,1711685658617,2030066,0
1711685660605,1711685658657,2030680,0
1711685660605,1711685658697,2031291,0
1711685660605,1711685658738,2032006,0
1711685660605,1711685658777,2033151,0
1711685660605,1711685658817,2034329,0
1711685660605,1711685658857,2035420,0
1711685660605,1711685658897,2036689,0
1711685660605,1711685658938,2037823,0
1711685660605,1711685658978,2039457,0
1711685660605,1711685659018,2039052,0
1711685660605,1711685659058,2035750,0
1711685660605,1711685659098,2033301,0
1711685660605,1711685659139,2031854,0
1711685660605,1711685659178,2031582,0
1711685660605,1711685659218,2031734,0
1711685660605,1711685659258,2032441,0
1711685660605,1711685659298,2033046,0
1711685660605,1711685659339,2033083,0
1711685660605,1711685659378,2033039,0
1711685660605,1711685659419,2033039,0
1711685660605,1711685659459,2033545,0
1711685660605,1711685659499,2034584,0
1711685660605,1711685659540,2035710,0
1711685660605,1711685659579,2036820,0
1711685660605,1711685659619,2038131,0
1711685660605,1711685659659,2039223,0
1711685660605,1711685659699,2040833,0
1711685660605,1711685659740,2041517,0
1711685660605,1711685659779,2038788,0
1711685660605,1711685659820,2035935,0
1711685660605,1711685659860,2033912,0
1711685660605,1711685659900,2033487,0
1711685660605,1711685659941,2033784,0
1711685660605,1711685659980,2034633,0
1711685660605,1711685660020,2035381,0
1711685660605,1711685660060,2035356,0
1711685660605,1711685660100,2034824,0
1711685660605,1711685660141,2034724,0
1711685660605,1711685660181,2034897,0
1711685660605,1711685660221,2035609,0
1711685660605,1711685660261,2036424,0
1711685660605,1711685660301,2037675,0
1711685660605,1711685660342,2038729,0
1711685660605,1711685660381,2039787,0
1711685660605,1711685660421,2040969,0
1711685660605,1711685660461,2040782,0
1711685660605,1711685660501,2037010,0
1711685660605,1711685660543,2033381,0
1711685672643,1711685660581,2031077,0
1711685672643,1711685660621,2030242,0
1711685672643,1711685660661,2030137,0
1711685672643,1711685660701,2030237,0
1711685672643,1711685660742,2030905,0
1711685672643,1711685660781,2030487,0
1711685672643,1711685660821,2029900,0
1711685672643,1711685660862,2029610,0
1711685672643,1711685660902,2029541,0
1711685672643,1711685660943,2030170,0
1711685672643,1711685660982,2030990,0
1711685672643,1711685661022,2032085,0
1711685672643,1711685661062,2033113,0
1711685672643,1711685661102,2034196,0
1711685672643,1711685661143,2035629,0
1711685672643,1711685661182,2035292,0
1711685672643,1711685661222,2031062,0
1711685672643,1711685661263,2026797,0
1711685672643,1711685661303,2023681,0
1711685672643,1711685661344,2022090,0
1711685672643,1711685661383,2021254,0
1711685672643,1711685661423,2021196,0
1711685672643,1711685661463,2021150,0
1711685672643,1711685661504,2020621,0
1711685672643,1711685661544,2019838,0
1711685672643,1711685661584,2019170,0
1711685672643,1711685661624,2019148,0
1711685672643,1711685661664,2019310,0
1711685672643,1711685661704,2019973,0
1711685672643,1711685661745,2020888,0
1711685672643,1711685661784,2022003,0
1711685672643,1711685661824,2023172,0
1711685672643,1711685661865,2024355,0
1711685672643,1711685661905,2025570,0
1711685672643,1711685661946,2021949,0
1711685672643,1711685661985,2017231,0
1711685672643,1711685662025,2014024,0
1711685672643,1711685662065,2012283,0
1711685672643,1711685662105,2011809,0
1711685672643,1711685662146,2012180,0
1711685672643,1711685662185,2013118,0
1711685672643,1711685662226,2013749,0
1711685672643,1711685662266,2014032,0
1711685672643,1711685662306,2014464,0
1711685672643,1711685662347,2015386,0
1711685672643,1711685662386,2018278,0
1711685672643,1711685662426,2022098,0
1711685672643,1711685662466,2026859,0
1711685672643,1711685662506,2032171,0
1711685672643,1711685662547,2037136,0
1711685672643,1711685662587,2043805,0
1711685672643,1711685662627,2047038,0
1711685672643,1711685662667,2051479,0
1711685672643,1711685662707,2046035,0
1711685672643,1711685662748,2044835,0
1711685672643,1711685662787,2045216,0
1711685672643,1711685662827,2047269,0
1711685672643,1711685662867,2048802,0
1711685672643,1711685662907,2051270,0
1711685672643,1711685662949,2052895,0
1711685672643,1711685662988,2053851,0
1711685672643,1711685663028,2054292,0
1711685672643,1711685663068,2055315,0
1711685672643,1711685663108,2057245,0
1711685672643,1711685663149,2058555,0
1711685672643,1711685663189,2060754,0
1711685672643,1711685663229,2062920,0
1711685672643,1711685663269,2064677,0
1711685672643,1711685663309,2066213,0
1711685672643,1711685663350,2067801,0
1711685672643,1711685663389,2064927,0
1711685672643,1711685663429,2061520,0
1711685672643,1711685663469,2056903,0
1711685672643,1711685663510,2053556,0
1711685672643,1711685663551,2051945,0
1711685672643,1711685663590,2051008,0
1711685672643,1711685663630,2051852,0
1711685672643,1711685663670,2051297,0
1711685672643,1711685663710,2050462,0
1711685672643,1711685663751,2048840,0
1711685672643,1711685663791,2048365,0
1711685672643,1711685663831,2048518,0
1711685672643,1711685663871,2048998,0
1711685672643,1711685663911,2049622,0
1711685672643,1711685663952,2050407,0
1711685672643,1711685663991,2051205,0
1711685672643,1711685664032,2052082,0
1711685672643,1711685664072,2051359,0
1711685672643,1711685664112,2045244,0
1711685672643,1711685664153,2039213,0
1711685672643,1711685664192,2035064,0
1711685672643,1711685664232,2032401,0
1711685672643,1711685664272,2030842,0
1711685672643,1711685664312,2029598,0
1711685672643,1711685664353,2028892,0
1711685672643,1711685664393,2027760,0
1711685672643,1711685664433,2025917,0
1711685672643,1711685664473,2024549,0
1711685672643,1711685664513,2023898,0
1711685672643,1711685664554,2023667,0
1711685672643,1711685664593,2024036,0
1711685672643,1711685664633,2024828,0
1711685672643,1711685664673,2025493,0
1711685672643,1711685664713,2026622,0
1711685672643,1711685664755,2027713,0
1711685672643,1711685664794,2027370,0
1711685672643,1711685664834,2021070,0
1711685672643,1711685664874,2014410,0
1711685672643,1711685664914,2010508,0
1711685672643,1711685664955,2008532,0
1711685672643,1711685664994,2006834,0
1711685672643,1711685665034,2005213,0
1711685672643,1711685665074,2004230,0
1711685672643,1711685665114,2002637,0
1711685672643,1711685665155,2000604,0
1711685672643,1711685665195,1999168,0
1711685672643,1711685665235,1998573,0
1711685672643,1711685665275,1999041,0
1711685672643,1711685665315,1999987,0
1711685672643,1711685665356,2001647,0
1711685672643,1711685665395,2003478,0
1711685672643,1711685665435,2005574,0
1711685672643,1711685665475,2007053,0
1711685672643,1711685665515,2008250,0
1711685672643,1711685665556,2005562,0
1711685672643,1711685665596,1998475,0
1711685672643,1711685665636,1992238,0
1711685672643,1711685665676,1988143,0
1711685672643,1711685665716,1985433,0
1711685672643,1711685665757,1983348,0
1711685672643,1711685665796,1982244,0
1711685672643,1711685665836,1980172,0
1711685672643,1711685665876,1977577,0
1711685672643,1711685665916,1975092,0
1711685672643,1711685665957,1972762,0
1711685672643,1711685665997,1971332,0
1711685672643,1711685666037,1970251,0
1711685672643,1711685666077,1969461,0
1711685672643,1711685666117,1968683,0
1711685672643,1711685666158,1968103,0
1711685672643,1711685666197,1967568,0
1711685672643,1711685666237,1966976,0
1711685672643,1711685666277,1965122,0
1711685672643,1711685666317,1958375,0
1711685672643,1711685666358,1951085,0
1711685672643,1711685666398,1945632,0
1711685672643,1711685666438,1942270,0
1711685672643,1711685666478,1939771,0
1711685672643,1711685666518,1938369,0
1711685672643,1711685666559,1936989,0
1711685672643,1711685666598,1934845,0
1711685672643,1711685666638,1932629,0
1711685672643,1711685666678,1930670,0
1711685672643,1711685666718,1929607,0
1711685672643,1711685666759,1929186,0
1711685672643,1711685666799,1929216,0
1711685672643,1711685666839,1929630,0
1711685672643,1711685666879,1930275,0
1711685672643,1711685666919,1930849,0
1711685672643,1711685666960,1931521,0
1711685672643,1711685666999,1928575,0
1711685672643,1711685667039,1922405,0
1711685672643,1711685667079,1917181,0
1711685672643,1711685667119,1913926,0
1711685672643,1711685667160,1912226,0
1711685672643,1711685667200,1910992,0
1711685672643,1711685667240,1910774,0
1711685672643,1711685667280,1910153,0
1711685672643,1711685667320,1909006,0
1711685672643,1711685667361,1907836,0
1711685672643,1711685667400,1907167,0
1711685672643,1711685667440,1907340,0
1711685672643,1711685667480,1907900,0
1711685672643,1711685667521,1908805,0
1711685672643,1711685667561,1909841,0
1711685672643,1711685667601,1911068,0
1711685672643,1711685667641,1912584,0
1711685672643,1711685667681,1913033,0
1711685672643,1711685667721,1909328,0
1711685672643,1711685667762,1904010,0
1711685672643,1711685667801,1900488,0
1711685672643,1711685667841,1898789,0
1711685672643,1711685667882,1898000,0
1711685672643,1711685667922,1897913,0
1711685672643,1711685667962,1898530,0
1711685672643,1711685668002,1898931,0
1711685672643,1711685668042,1898725,0
1711685672643,1711685668082,1898576,0
1711685672643,1711685668122,1899113,0
1711685672643,1711685668163,1900244,0
1711685672643,1711685668203,1901789,0
1711685672643,1711685668243,1903555,0
1711685672643,1711685668283,1905457,0
1711685672643,1711685668323,1907452,0
1711685672643,1711685668364,1909459,0
1711685672643,1711685668403,1910821,0
1711685672643,1711685668443,1908045,0
1711685672643,1711685668483,1904836,0
1711685672643,1711685668523,1902992,0
1711685672643,1711685668564,1902602,0
1711685672643,1711685668604,1902968,0
1711685672643,1711685668644,1904042,0
1711685672643,1711685668684,1905169,0
1711685672643,1711685668724,1906124,0
1711685672643,1711685668765,1906728,0
1711685672643,1711685668804,1907404,0
1711685672643,1711685668844,1908525,0
1711685672643,1711685668884,1910089,0
1711685672643,1711685668925,1911989,0
1711685672643,1711685668965,1914062,0
1711685672643,1711685669005,1916170,0
1711685672643,1711685669045,1918345,0
1711685672643,1711685669085,1920666,0
1711685672643,1711685669125,1922724,0
1711685672643,1711685669166,1922135,0
1711685672643,1711685669205,1920041,0
1711685672643,1711685669245,1918564,0
1711685672643,1711685669286,1918799,0
1711685672643,1711685669326,1919916,0
1711685672643,1711685669366,1921581,0
1711685672643,1711685669406,1923457,0
1711685672643,1711685669446,1924966,0
1711685672643,1711685669486,1926194,0
1711685672643,1711685669526,1927260,0
1711685672643,1711685669567,1928700,0
1711685672643,1711685669606,1930419,0
1711685672643,1711685669647,1932622,0
1711685672643,1711685669687,1934766,0
1711685672643,1711685669727,1937137,0
1711685672643,1711685669768,1939566,0
1711685672643,1711685669807,1941851,0
1711685672643,1711685669847,1943660,0
1711685672643,1711685669887,1942944,0
1711685672643,1711685669928,1941639,0
1711685672643,1711685669968,1941636,0
1711685672643,1711685670008,1942540,0
1711685672643,1711685670048,1944352,0
1711685672643,1711685670088,1946639,0
1711685672643,1711685670128,1948671,0
1711685672643,1711685670169,1950335,0
1711685672643,1711685670208,1951500,0
1711685672643,1711685670248,1953012,0
1711685672643,1711685670289,1954950,0
1711685672643,1711685670329,1957086,0
1711685672643,1711685670370,1959310,0
1711685672643,1711685670409,1961691,0
1711685672643,1711685670449,1964097,0
1711685672643,1711685670489,1966477,0
1711685672643,1711685670529,1968745,0
1711685672643,1711685670570,1968824,0
1711685672643,1711685670610,1967762,0
1711685672643,1711685670650,1967214,0
1711685672643,1711685670690,1968210,0
1711685672643,1711685670730,1969807,0
1711685672643,1711685670771,1971481,0
1711685672643,1711685670810,1973540,0
1711685672643,1711685670850,1975071,0
1711685672643,1711685670891,1976500,0
1711685672643,1711685670931,1977834,0
1711685672643,1711685670971,1979576,0
1711685672643,1711685671011,1981337,0
1711685672643,1711685671051,1983388,0
1711685672643,1711685671091,1985719,0
1711685672643,1711685671132,1987836,0
1711685672643,1711685671172,1990016,0
1711685672643,1711685671211,1992240,0
1711685672643,1711685671252,1993653,0
1711685672643,1711685671292,1992470,0
1711685672643,1711685671332,1991740,0
1711685672643,1711685671373,1991979,0
1711685672643,1711685671412,1993393,0
1711685672643,1711685671452,1994869,0
1711685672643,1711685671492,1996751,0
1711685672643,1711685671532,1998545,0
1711685672643,1711685671573,2000047,0
1711685672643,1711685671612,2000950,0
1711685672643,1711685671652,2002207,0
1711685672643,1711685671692,2003675,0
1711685672643,1711685671733,2005585,0
1711685672643,1711685671773,2007342,0
1711685672643,1711685671813,2009510,0
1711685672643,1711685671853,2011202,0
1711685672643,1711685671893,2013040,0
1711685672643,1711685671933,2014723,0
1711685672643,1711685671974,2014582,0
1711685672643,1711685672013,2013548,0
1711685672643,1711685672053,2013224,0
1711685672643,1711685672094,2014107,0
1711685672643,1711685672134,2015499,0
1711685672643,1711685672174,2017144,0
1711685672643,1711685672214,2018966,0
1711685672643,1711685672254,2020278,0
1711685672643,1711685672294,2021244,0
1711685672643,1711685672334,2022141,0
1711685672643,1711685672375,2023195,0
1711685672643,1711685672414,2024615,0
1711685672643,1711685672454,2026164,0
1711685672643,1711685672494,2027632,0
1711685672643,1711685672535,2029350,0
1711685672643,1711685672575,2031034,0
1711685684689,1711685672617,2032639,0
1711685684689,1711685672657,2033365,0
1711685684689,1711685672697,2032482,0
1711685684689,1711685672737,2031342,0
1711685684689,1711685672778,2031306,0
1711685684689,1711685672817,2032315,0
1711685684689,1711685672857,2033415,0
1711685684689,1711685672898,2034994,0
1711685684689,1711685672938,2036406,0
1711685684689,1711685672978,2037063,0
1711685684689,1711685673018,2037582,0
1711685684689,1711685673058,2038434,0
1711685684689,1711685673098,2039314,0
1711685684689,1711685673138,2040651,0
1711685684689,1711685673179,2041932,0
1711685684689,1711685673218,2043581,0
1711685684689,1711685673258,2045028,0
1711685684689,1711685673299,2046429,0
1711685684689,1711685673339,2046883,0
1711685684689,1711685673379,2045500,0
1711685684689,1711685673419,2044265,0
1711685684689,1711685673459,2044247,0
1711685684689,1711685673499,2044941,0
1711685684689,1711685673539,2046136,0
1711685684689,1711685673580,2047576,0
1711685684689,1711685673619,2048495,0
1711685684689,1711685673659,2048918,0
1711685684689,1711685673699,2049213,0
1711685684689,1711685673739,2049716,0
1711685684689,1711685673780,2050670,0
1711685684689,1711685673820,2051751,0
1711685684689,1711685673860,2052972,0
1711685684689,1711685673900,2054239,0
1711685684689,1711685673940,2055386,0
1711685684689,1711685673981,2056378,0
1711685684689,1711685674020,2054880,0
1711685684689,1711685674060,2052551,0
1711685684689,1711685674100,2050779,0
1711685684689,1711685674141,2050304,0
1711685684689,1711685674181,2050635,0
1711685684689,1711685674221,2050993,0
1711685684689,1711685674261,2051754,0
1711685684689,1711685674301,2051966,0
1711685684689,1711685674341,2051662,0
1711685684689,1711685674382,2051479,0
1711685684689,1711685674421,2051399,0
1711685684689,1711685674461,2051730,0
1711685684689,1711685674501,2052552,0
1711685684689,1711685674541,2053348,0
1711685684689,1711685674582,2054175,0
1711685684689,1711685674622,2055058,0
1711685684689,1711685674662,2054977,0
1711685684689,1711685674702,2051984,0
1711685684689,1711685674742,2048782,0
1711685684689,1711685674783,2046524,0
1711685684689,1711685674822,2045594,0
1711685684689,1711685674862,2045001,0
1711685684689,1711685674902,2044982,0
1711685684689,1711685674942,2044829,0
1711685684689,1711685674983,2044306,0
1711685684689,1711685675023,2043479,0
1711685684689,1711685675063,2042601,0
1711685684689,1711685675103,2042139,0
1711685684689,1711685675143,2042144,0
1711685684689,1711685675184,2042477,0
1711685684689,1711685675223,2042922,0
1711685684689,1711685675263,2043346,0
1711685684689,1711685675303,2043810,0
1711685684689,1711685675344,2041705,0
1711685684689,1711685675384,2037603,0
1711685684689,1711685675424,2033552,0
1711685684689,1711685675464,2031194,0
1711685684689,1711685675504,2029999,0
1711685684689,1711685675544,2029137,0
1711685684689,1711685675585,2028802,0
1711685684689,1711685675624,2028260,0
1711685684689,1711685675665,2026939,0
1711685684689,1711685675705,2025741,0
1711685684689,1711685675745,2024910,0
1711685684689,1711685675786,2024474,0
1711685684689,1711685675825,2024395,0
1711685684689,1711685675865,2024460,0
1711685684689,1711685675905,2024968,0
1711685684689,1711685675945,2025349,0
1711685684689,1711685675986,2024143,0
1711685684689,1711685676025,2020093,0
1711685684689,1711685676066,2015963,0
1711685684689,1711685676106,2013253,0
1711685684689,1711685676146,2011902,0
1711685684689,1711685676187,2011188,0
1711685684689,1711685676226,2011131,0
1711685684689,1711685676266,2010721,0
1711685684689,1711685676306,2009668,0
1711685684689,1711685676346,2008598,0
1711685684689,1711685676387,2007785,0
1711685684689,1711685676427,2007811,0
1711685684689,1711685676467,2007930,0
1711685684689,1711685676507,2008279,0
1711685684689,1711685676547,2008976,0
1711685684689,1711685676588,2009775,0
1711685684689,1711685676627,2009613,0
1711685684689,1711685676667,2006287,0
1711685684689,1711685676707,2002406,0
1711685684689,1711685676748,1999943,0
1711685684689,1711685676789,1998871,0
1711685684689,1711685676828,1998574,0
1711685684689,1711685676868,1998997,0
1711685684689,1711685676908,1999218,0
1711685684689,1711685676948,1998959,0
1711685684689,1711685676989,1998261,0
1711685684689,1711685677029,1998029,0
1711685684689,1711685677069,1998304,0
1711685684689,1711685677109,1998761,0
1711685684689,1711685677149,1999687,0
1711685684689,1711685677190,2000995,0
1711685684689,1711685677229,2002160,0
1711685684689,1711685677270,2003128,0
1711685684689,1711685677309,2001804,0
1711685684689,1711685677350,1999047,0
1711685684689,1711685677391,1997305,0
1711685684689,1711685677430,1997241,0
1711685684689,1711685677470,1998198,0
1711685684689,1711685677510,1999595,0
1711685684689,1711685677550,2000886,0
1711685684689,1711685677591,2001698,0
1711685684689,1711685677631,2002057,0
1711685684689,1711685677671,2002724,0
1711685684689,1711685677711,2003426,0
1711685684689,1711685677751,2004648,0
1711685684689,1711685677792,2006118,0
1711685684689,1711685677831,2007069,0
1711685684689,1711685677872,2008756,0
1711685684689,1711685677912,2009873,0
1711685684689,1711685677952,2008906,0
1711685684689,1711685677993,2006721,0
1711685684689,1711685678032,2004694,0
1711685684689,1711685678072,2004428,0
1711685684689,1711685678113,2004655,0
1711685684689,1711685678153,2006070,0
1711685684689,1711685678193,2007252,0
1711685684689,1711685678233,2007916,0
1711685684689,1711685678273,2008349,0
1711685684689,1711685678313,2008821,0
1711685684689,1711685678353,2009788,0
1711685684689,1711685678394,2010272,0
1711685684689,1711685678433,2010892,0
1711685684689,1711685678474,2011645,0
1711685684689,1711685678514,2012265,0
1711685684689,1711685678554,2010995,0
1711685684689,1711685678594,2007524,0
1711685684689,1711685678634,2004742,0
1711685684689,1711685678674,2003161,0
1711685684689,1711685678714,2002640,0
1711685684689,1711685678754,2002609,0
1711685684689,1711685678795,2002889,0
1711685684689,1711685678834,2003341,0
1711685684689,1711685678874,2003293,0
1711685684689,1711685678914,2003389,0
1711685684689,1711685678955,2003431,0
1711685684689,1711685678995,2004170,0
1711685684689,1711685679035,2005115,0
1711685684689,1711685679075,2006159,0
1711685684689,1711685679115,2007417,0
1711685684689,1711685679155,2008783,0
1711685684689,1711685679196,2009746,0
1711685684689,1711685679235,2008304,0
1711685684689,1711685679275,2006081,0
1711685684689,1711685679315,2004912,0
1711685684689,1711685679355,2005024,0
1711685684689,1711685679396,2005590,0
1711685684689,1711685679436,2006461,0
1711685684689,1711685679476,2007603,0
1711685684689,1711685679516,2008267,0
1711685684689,1711685679556,2008784,0
1711685684689,1711685679597,2009408,0
1711685684689,1711685679636,2010112,0
1711685684689,1711685679676,2011373,0
1711685684689,1711685679716,2012490,0
1711685684689,1711685679756,2013840,0
1711685684689,1711685679797,2015187,0
1711685684689,1711685679836,2016636,0
1711685684689,1711685679877,2018043,0
1711685684689,1711685679917,2017216,0
1711685684689,1711685679957,2015512,0
1711685684689,1711685679998,2014775,0
1711685684689,1711685680037,2015095,0
1711685684689,1711685680077,2015750,0
1711685684689,1711685680117,2016451,0
1711685684689,1711685680157,2017770,0
1711685684689,1711685680198,2018763,0
1711685684689,1711685680237,2019818,0
1711685684689,1711685680278,2021237,0
1711685684689,1711685680318,2022469,0
1711685684689,1711685680358,2023465,0
1711685684689,1711685680399,2024330,0
1711685684689,1711685680438,2025553,0
1711685684689,1711685680478,2026758,0
1711685684689,1711685680518,2028384,0
1711685684689,1711685680558,2029709,0
1711685684689,1711685680599,2029889,0
1711685684689,1711685680639,2028686,0
1711685684689,1711685680679,2027779,0
1711685684689,1711685680719,2027955,0
1711685684689,1711685680759,2028938,0
1711685684689,1711685680799,2030207,0
1711685684689,1711685680839,2031764,0
1711685684689,1711685680879,2033178,0
1711685684689,1711685680919,2034001,0
1711685684689,1711685680959,2035335,0
1711685684689,1711685681000,2036518,0
1711685684689,1711685681039,2037749,0
1711685684689,1711685681079,2039604,0
1711685684689,1711685681120,2041249,0
1711685684689,1711685681160,2042611,0
1711685684689,1711685681200,2044408,0
1711685684689,1711685681240,2046052,0
1711685684689,1711685681280,2047080,0
1711685684689,1711685681320,2046236,0
1711685684689,1711685681360,2045524,0
1711685684689,1711685681401,2045491,0
1711685684689,1711685681440,2046738,0
1711685684689,1711685681480,2047889,0
1711685684689,1711685681520,2049226,0
1711685684689,1711685681561,2050551,0
1711685684689,1711685681601,2051262,0
1711685684689,1711685681641,2051958,0
1711685684689,1711685681681,2052877,0
1711685684689,1711685681721,2053867,0
1711685684689,1711685681761,2055137,0
1711685684689,1711685681802,2056429,0
1711685684689,1711685681841,2057943,0
1711685684689,1711685681881,2059330,0
1711685684689,1711685681921,2060923,0
1711685684689,1711685681962,2062547,0
1711685684689,1711685682002,2063725,0
1711685684689,1711685682042,2062734,0
1711685684689,1711685682082,2062019,0
1711685684689,1711685682122,2062078,0
1711685684689,1711685682162,2063115,0
1711685684689,1711685682203,2064344,0
1711685684689,1711685682242,2065923,0
1711685684689,1711685682282,2067209,0
1711685684689,1711685682322,2068025,0
1711685684689,1711685682362,2068834,0
1711685684689,1711685682403,2069653,0
1711685684689,1711685682443,2070707,0
1711685684689,1711685682483,2071839,0
1711685684689,1711685682523,2073322,0
1711685684689,1711685682563,2074726,0
1711685684689,1711685682604,2076094,0
1711685684689,1711685682643,2077598,0
1711685684689,1711685682683,2078925,0
1711685684689,1711685682723,2079022,0
1711685684689,1711685682763,2078017,0
1711685684689,1711685682804,2077682,0
1711685684689,1711685682844,2078172,0
1711685684689,1711685682884,2079424,0
1711685684689,1711685682924,2080655,0
1711685684689,1711685682964,2082275,0
1711685684689,1711685683005,2083176,0
1711685684689,1711685683044,2084038,0
1711685684689,1711685683084,2084777,0
1711685684689,1711685683124,2085605,0
1711685684689,1711685683165,2086742,0
1711685684689,1711685683205,2087926,0
1711685684689,1711685683245,2089370,0
1711685684689,1711685683285,2090590,0
1711685684689,1711685683325,2091880,0
1711685684689,1711685683365,2093277,0
1711685684689,1711685683406,2093236,0
1711685684689,1711685683445,2091670,0
1711685684689,1711685683486,2090616,0
1711685684689,1711685683526,2090580,0
1711685684689,1711685683566,2091201,0
1711685684689,1711685683607,2092092,0
1711685684689,1711685683646,2093273,0
1711685684689,1711685683686,2094117,0
1711685684689,1711685683726,2094438,0
1711685684689,1711685683766,2094737,0
1711685684689,1711685683807,2095128,0
1711685684689,1711685683847,2095825,0
1711685684689,1711685683887,2096765,0
1711685684689,1711685683927,2097690,0
1711685684689,1711685683967,2098840,0
1711685684689,1711685684008,2099756,0
1711685684689,1711685684047,2100775,0
1711685684689,1711685684087,2101197,0
1711685684689,1711685684128,2099324,0
1711685684689,1711685684168,2097423,0
1711685684689,1711685684208,2096552,0
1711685684689,1711685684248,2096404,0
1711685684689,1711685684288,2096635,0
1711685684689,1711685684328,2097342,0
1711685684689,1711685684368,2097776,0
1711685684689,1711685684409,2097915,0
1711685684689,1711685684448,2097751,0
1711685684689,1711685684489,2097651,0
1711685684689,1711685684529,2097878,0
1711685684689,1711685684569,2098297,0
1711685684689,1711685684610,2098971,0
1711685696757,1711685684649,2099716,0
1711685696757,1711685684689,2100476,0
1711685696757,1711685684729,2101168,0
1711685696757,1711685684769,2101902,0
1711685696757,1711685684810,2100366,0
1711685696757,1711685684849,2097708,0
1711685696757,1711685684889,2095557,0
1711685696757,1711685684930,2094694,0
1711685696757,1711685684970,2094303,0
1711685696757,1711685685011,2094572,0
1711685696757,1711685685050,2094713,0
1711685696757,1711685685090,2094718,0
1711685696757,1711685685130,2094148,0
1711685696757,1711685685170,2093546,0
1711685696757,1711685685211,2093224,0
1711685696757,1711685685250,2093238,0
1711685696757,1711685685291,2093563,0
1711685696757,1711685685331,2093932,0
1711685696757,1711685685371,2094258,0
1711685696757,1711685685412,2094805,0
1711685696757,1711685685451,2095460,0
1711685696757,1711685685491,2095454,0
1711685696757,1711685685531,2092549,0
1711685696757,1711685685571,2089420,0
1711685696757,1711685685612,2087372,0
1711685696757,1711685685652,2086248,0
1711685696757,1711685685692,2085803,0
1711685696757,1711685685732,2085806,0
1711685696757,1711685685772,2085548,0
1711685696757,1711685685813,2084864,0
1711685696757,1711685685852,2083833,0
1711685696757,1711685685892,2083369,0
1711685696757,1711685685933,2083017,0
1711685696757,1711685685973,2083285,0
1711685696757,1711685686013,2083416,0
1711685696757,1711685686053,2083898,0
1711685696757,1711685686093,2084179,0
1711685696757,1711685686133,2084318,0
1711685696757,1711685686173,2083941,0
1711685696757,1711685686214,2081182,0
1711685696757,1711685686253,2077624,0
1711685696757,1711685686293,2075468,0
1711685696757,1711685686333,2074205,0
1711685696757,1711685686373,2073533,0
1711685696757,1711685686414,2073410,0
1711685696757,1711685686453,2073283,0
1711685696757,1711685686493,2072503,0
1711685696757,1711685686534,2071317,0
1711685696757,1711685686574,2070194,0
1711685696757,1711685686614,2069510,0
1711685696757,1711685686654,2068980,0
1711685696757,1711685686694,2068814,0
1711685696757,1711685686734,2068862,0
1711685696757,1711685686774,2068685,0
1711685696757,1711685686815,2068588,0
1711685696757,1711685686854,2068365,0
1711685696757,1711685686894,2064462,0
1711685696757,1711685686934,2060149,0
1711685696757,1711685686975,2057068,0
1711685696757,1711685687015,2053690,0
1711685696757,1711685687055,2052712,0
1711685696757,1711685687095,2053084,0
1711685696757,1711685687135,2052281,0
1711685696757,1711685687175,2052313,0
1711685696757,1711685687216,2051678,0
1711685696757,1711685687255,2050339,0
1711685696757,1711685687295,2048921,0
1711685696757,1711685687335,2046596,0
1711685696757,1711685687376,2043743,0
1711685696757,1711685687416,2041671,0
1711685696757,1711685687456,2039555,0
1711685696757,1711685687496,2037065,0
1711685696757,1711685687536,2033916,0
1711685696757,1711685687576,2031442,0
1711685696757,1711685687617,2028971,0
1711685696757,1711685687656,2027871,0
1711685696757,1711685687696,2027825,0
1711685696757,1711685687736,2029164,0
1711685696757,1711685687776,2031284,0
1711685696757,1711685687817,2033416,0
1711685696757,1711685687857,2036584,0
1711685696757,1711685687897,2037506,0
1711685696757,1711685687937,2039193,0
1711685696757,1711685687977,2039622,0
1711685696757,1711685688018,2041386,0
1711685696757,1711685688057,2044822,0
1711685696757,1711685688097,2044222,0
1711685696757,1711685688137,2038696,0
1711685696757,1711685688177,2033908,0
1711685696757,1711685688218,2022917,0
1711685696757,1711685688257,2005156,0
1711685696757,1711685688298,1991275,0
1711685696757,1711685688338,1981865,0
1711685696757,1711685688378,1986395,0
1711685696757,1711685688419,1993683,0
1711685696757,1711685688458,2001224,0
1711685696757,1711685688498,2009261,0
1711685696757,1711685688538,2010389,0
1711685696757,1711685688578,2005941,0
1711685696757,1711685688619,1998662,0
1711685696757,1711685688658,1991753,0
1711685696757,1711685688699,1987047,0
1711685696757,1711685688739,1982816,0
1711685696757,1711685688779,1980519,0
1711685696757,1711685688820,1981427,0
1711685696757,1711685688859,1980773,0
1711685696757,1711685688899,1977116,0
1711685696757,1711685688939,1973656,0
1711685696757,1711685688979,1970167,0
1711685696757,1711685689020,1966838,0
1711685696757,1711685689059,1970306,0
1711685696757,1711685689099,1973070,0
1711685696757,1711685689139,1975560,0
1711685696757,1711685689180,1976911,0
1711685696757,1711685689220,1977933,0
1711685696757,1711685689260,1978126,0
1711685696757,1711685689300,1979881,0
1711685696757,1711685689340,1979670,0
1711685696757,1711685689380,1981024,0
1711685696757,1711685689421,1982760,0
1711685696757,1711685689460,1983897,0
1711685696757,1711685689500,1984797,0
1711685696757,1711685689541,1982415,0
1711685696757,1711685689580,1981309,0
1711685696757,1711685689621,1981502,0
1711685696757,1711685689661,1981827,0
1711685696757,1711685689701,1984400,0
1711685696757,1711685689741,1985895,0
1711685696757,1711685689781,1984415,0
1711685696757,1711685689822,1984157,0
1711685696757,1711685689861,1984285,0
1711685696757,1711685689901,1985002,0
1711685696757,1711685689941,1985815,0
1711685696757,1711685689982,1987151,0
1711685696757,1711685690023,1988712,0
1711685696757,1711685690062,1990041,0
1711685696757,1711685690102,1991791,0
1711685696757,1711685690142,1992371,0
1711685696757,1711685690182,1990231,0
1711685696757,1711685690223,1987226,0
1711685696757,1711685690263,1985086,0
1711685696757,1711685690303,1984608,0
1711685696757,1711685690343,1984378,0
1711685696757,1711685690383,1984631,0
1711685696757,1711685690424,1985319,0
1711685696757,1711685690463,1986139,0
1711685696757,1711685690503,1986754,0
1711685696757,1711685690543,1987123,0
1711685696757,1711685690583,1987880,0
1711685696757,1711685690624,1988932,0
1711685696757,1711685690664,1990081,0
1711685696757,1711685690704,1991305,0
1711685696757,1711685690744,1993070,0
1711685696757,1711685690784,1994632,0
1711685696757,1711685690825,1994449,0
1711685696757,1711685690864,1992462,0
1711685696757,1711685690904,1990494,0
1711685696757,1711685690944,1989719,0
1711685696757,1711685690985,1989855,0
1711685696757,1711685691025,1990201,0
1711685696757,1711685691065,1991162,0
1711685696757,1711685691105,1992314,0
1711685696757,1711685691145,1993147,0
1711685696757,1711685691185,1993618,0
1711685696757,1711685691226,1994356,0
1711685696757,1711685691265,1995061,0
1711685696757,1711685691305,1996488,0
1711685696757,1711685691346,1998017,0
1711685696757,1711685691386,1999499,0
1711685696757,1711685691426,2001248,0
1711685696757,1711685691466,2002906,0
1711685696757,1711685691506,2002554,0
1711685696757,1711685691546,2001292,0
1711685696757,1711685691586,2001069,0
1711685696757,1711685691627,2001937,0
1711685696757,1711685691666,2003114,0
1711685696757,1711685691707,2004532,0
1711685696757,1711685691747,2006076,0
1711685696757,1711685691787,2006932,0
1711685696757,1711685691828,2008109,0
1711685696757,1711685691867,2008976,0
1711685696757,1711685691907,2010019,0
1711685696757,1711685691947,2011395,0
1711685696757,1711685691987,2013120,0
1711685696757,1711685692028,2014885,0
1711685696757,1711685692068,2016742,0
1711685696757,1711685692108,2018675,0
1711685696757,1711685692148,2019858,0
1711685696757,1711685692188,2019133,0
1711685696757,1711685692228,2018635,0
1711685696757,1711685692268,2018998,0
1711685696757,1711685692308,2020028,0
1711685696757,1711685692348,2021709,0
1711685696757,1711685692388,2023784,0
1711685696757,1711685692429,2025234,0
1711685696757,1711685692469,2026497,0
1711685696757,1711685692509,2027241,0
1711685696757,1711685692549,2028496,0
1711685696757,1711685692589,2030034,0
1711685696757,1711685692630,2031588,0
1711685696757,1711685692669,2033525,0
1711685696757,1711685692709,2035142,0
1711685696757,1711685692749,2037117,0
1711685696757,1711685692790,2038206,0
1711685696757,1711685692830,2037561,0
1711685696757,1711685692870,2037512,0
1711685696757,1711685692910,2037960,0
1711685696757,1711685692950,2039401,0
1711685696757,1711685692990,2041011,0
1711685696757,1711685693031,2042809,0
1711685696757,1711685693070,2044486,0
1711685696757,1711685693111,2045564,0
1711685696757,1711685693151,2046359,0
1711685696757,1711685693191,2047556,0
1711685696757,1711685693231,2048864,0
1711685696757,1711685693271,2050562,0
1711685696757,1711685693311,2052301,0
1711685696757,1711685693351,2054124,0
1711685696757,1711685693391,2055774,0
1711685696757,1711685693432,2056424,0
1711685696757,1711685693471,2055675,0
1711685696757,1711685693512,2055356,0
1711685696757,1711685693552,2055882,0
1711685696757,1711685693592,2057246,0
1711685696757,1711685693633,2058567,0
1711685696757,1711685693672,2061293,0
1711685696757,1711685693712,2062144,0
1711685696757,1711685693753,2063255,0
1711685696757,1711685693793,2064260,0
1711685696757,1711685693833,2065299,0
1711685696757,1711685693873,2066586,0
1711685696757,1711685693913,2067810,0
1711685696757,1711685693953,2069313,0
1711685696757,1711685693993,2071003,0
1711685696757,1711685694034,2070971,0
1711685696757,1711685694073,2069915,0
1711685696757,1711685694113,2069555,0
1711685696757,1711685694153,2069903,0
1711685696757,1711685694193,2071039,0
1711685696757,1711685694234,2072413,0
1711685696757,1711685694274,2073724,0
1711685696757,1711685694314,2074680,0
1711685696757,1711685694354,2075553,0
1711685696757,1711685694394,2076156,0
1711685696757,1711685694435,2076995,0
1711685696757,1711685694474,2078209,0
1711685696757,1711685694514,2079475,0
1711685696757,1711685694554,2080749,0
1711685696757,1711685694594,2081966,0
1711685696757,1711685694635,2083134,0
1711685696757,1711685694675,2082956,0
1711685696757,1711685694715,2081434,0
1711685696757,1711685694755,2080603,0
1711685696757,1711685694795,2080697,0
1711685696757,1711685694836,2081107,0
1711685696757,1711685694875,2082037,0
1711685696757,1711685694915,2083193,0
1711685696757,1711685694955,2083712,0
1711685696757,1711685694995,2083914,0
1711685696757,1711685695036,2084242,0
1711685696757,1711685695076,2084634,0
1711685696757,1711685695116,2085433,0
1711685696757,1711685695156,2086543,0
1711685696757,1711685695196,2087680,0
1711685696757,1711685695237,2088802,0
1711685696757,1711685695276,2089848,0
1711685696757,1711685695316,2088807,0
1711685696757,1711685695356,2087285,0
1711685696757,1711685695396,2085897,0
1711685696757,1711685695437,2085442,0
1711685696757,1711685695476,2086617,0
1711685696757,1711685695516,2087663,0
1711685696757,1711685695557,2089166,0
1711685696757,1711685695597,2091364,0
1711685696757,1711685695637,2094077,0
1711685696757,1711685695677,2097246,0
1711685696757,1711685695717,2100565,0
1711685696757,1711685695757,2104228,0
1711685696757,1711685695797,2107065,0
1711685696757,1711685695838,2109658,0
1711685696757,1711685695877,2111818,0
1711685696757,1711685695918,2113358,0
1711685696757,1711685695958,2110829,0
1711685696757,1711685695998,2106274,0
1711685696757,1711685696039,2102334,0
1711685696757,1711685696078,2097928,0
1711685696757,1711685696118,2095968,0
1711685696757,1711685696158,2095242,0
1711685696757,1711685696198,2094405,0
1711685696757,1711685696239,2093520,0
1711685696757,1711685696279,2092593,0
1711685696757,1711685696319,2091408,0
1711685696757,1711685696359,2090958,0
1711685696757,1711685696399,2090656,0
1711685696757,1711685696439,2090999,0
1711685696757,1711685696479,2090882,0
1711685696757,1711685696519,2091361,0
1711685696757,1711685696559,2088930,0
1711685696757,1711685696599,2083959,0
1711685696757,1711685696640,2079363,0
1711685708746,1711685696679,2076467,0
1711685708746,1711685696720,2074492,0
1711685708746,1711685696760,2073384,0
1711685708746,1711685696800,2072520,0
1711685708746,1711685696841,2070810,0
1711685708746,1711685696880,2068731,0
1711685708746,1711685696920,2066605,0
1711685708746,1711685696960,2064941,0
1711685708746,1711685697001,2063682,0
1711685708746,1711685697041,2062876,0
1711685708746,1711685697081,2062098,0
1711685708746,1711685697121,2061801,0
1711685708746,1711685697161,2060775,0
1711685708746,1711685697201,2056018,0
1711685708746,1711685697242,2049167,0
1711685708746,1711685697281,2043030,0
1711685708746,1711685697321,2039232,0
1711685708746,1711685697362,2035977,0
1711685708746,1711685697402,2034109,0
1711685708746,1711685697442,2032088,0
1711685708746,1711685697482,2029852,0
1711685708746,1711685697522,2027313,0
1711685708746,1711685697562,2024358,0
1711685708746,1711685697603,2021960,0
1711685708746,1711685697643,2020352,0
1711685708746,1711685697683,2018947,0
1711685708746,1711685697723,2018330,0
1711685708746,1711685697763,2017525,0
1711685708746,1711685697803,2016576,0
1711685708746,1711685697844,2011043,0
1711685708746,1711685697883,2002900,0
1711685708746,1711685697923,1995963,0
1711685708746,1711685697964,1991392,0
1711685708746,1711685698004,1988300,0
1711685708746,1711685698045,1986132,0
1711685708746,1711685698084,1984014,0
1711685708746,1711685698124,1981589,0
1711685708746,1711685698164,1978430,0
1711685708746,1711685698205,1975573,0
1711685708746,1711685698245,1973629,0
1711685708746,1711685698285,1972296,0
1711685708746,1711685698325,1971467,0
1711685708746,1711685698365,1971056,0
1711685708746,1711685698405,1970683,0
1711685708746,1711685698446,1969594,0
1711685708746,1711685698486,1964055,0
1711685708746,1711685698526,1956521,0
1711685708746,1711685698566,1950832,0
1711685708746,1711685698606,1947509,0
1711685708746,1711685698647,1945680,0
1711685708746,1711685698686,1944712,0
1711685708746,1711685698726,1943459,0
1711685708746,1711685698767,1941763,0
1711685708746,1711685698807,1939663,0
1711685708746,1711685698848,1938006,0
1711685708746,1711685698887,1937367,0
1711685708746,1711685698927,1937359,0
1711685708746,1711685698967,1937858,0
1711685708746,1711685699007,1938388,0
1711685708746,1711685699048,1939253,0
1711685708746,1711685699088,1938315,0
1711685708746,1711685699128,1933158,0
1711685708746,1711685699168,1927709,0
1711685708746,1711685699208,1924205,0
1711685708746,1711685699249,1922747,0
1711685708746,1711685699288,1922254,0
1711685708746,1711685699328,1922412,0
1711685708746,1711685699369,1922204,0
1711685708746,1711685699409,1921656,0
1711685708746,1711685699449,1920792,0
1711685708746,1711685699489,1920658,0
1711685708746,1711685699529,1921082,0
1711685708746,1711685699569,1921868,0
1711685708746,1711685699609,1923165,0
1711685708746,1711685699650,1924472,0
1711685708746,1711685699690,1925900,0
1711685708746,1711685699730,1926033,0
1711685708746,1711685699770,1922045,0
1711685708746,1711685699810,1917650,0
1711685708746,1711685699851,1915295,0
1711685708746,1711685699890,1914337,0
1711685708746,1711685699930,1914309,0
1711685708746,1711685699971,1914879,0
1711685708746,1711685700011,1915481,0
1711685708746,1711685700052,1915641,0
1711685708746,1711685700091,1915668,0
1711685708746,1711685700131,1916117,0
1711685708746,1711685700171,1917112,0
1711685708746,1711685700212,1918631,0
1711685708746,1711685700252,1920386,0
1711685708746,1711685700292,1922303,0
1711685708746,1711685700332,1924338,0
1711685708746,1711685700372,1926272,0
1711685708746,1711685700412,1925498,0
1711685708746,1711685700453,1921938,0
1711685708746,1711685700492,1919723,0
1711685708746,1711685700532,1918766,0
1711685708746,1711685700572,1918963,0
1711685708746,1711685700613,1919308,0
1711685708746,1711685700653,1920340,0
1711685708746,1711685700693,1921100,0
1711685708746,1711685700733,1921482,0
1711685708746,1711685700773,1922006,0
1711685708746,1711685700813,1922997,0
1711685708746,1711685700854,1924161,0
1711685708746,1711685700893,1926204,0
1711685708746,1711685700933,1928081,0
1711685708746,1711685700974,1930118,0
1711685708746,1711685701014,1932240,0
1711685708746,1711685701054,1934604,0
1711685708746,1711685701094,1935730,0
1711685708746,1711685701134,1934233,0
1711685708746,1711685701174,1932476,0
1711685708746,1711685701214,1931921,0
1711685708746,1711685701255,1932644,0
1711685708746,1711685701294,1933689,0
1711685708746,1711685701334,1934939,0
1711685708746,1711685701374,1936376,0
1711685708746,1711685701415,1937487,0
1711685708746,1711685701456,1938536,0
1711685708746,1711685701495,1939549,0
1711685708746,1711685701535,1941220,0
1711685708746,1711685701575,1943087,0
1711685708746,1711685701615,1944974,0
1711685708746,1711685701656,1947215,0
1711685708746,1711685701695,1949211,0
1711685708746,1711685701735,1951368,0
1711685708746,1711685701775,1953670,0
1711685708746,1711685701816,1955305,0
1711685708746,1711685701856,1954895,0
1711685708746,1711685701896,1953682,0
1711685708746,1711685701936,1953538,0
1711685708746,1711685701976,1954322,0
1711685708746,1711685702016,1955519,0
1711685708746,1711685702057,1957165,0
1711685708746,1711685702096,1958635,0
1711685708746,1711685702136,1959931,0
1711685708746,1711685702176,1960656,0
1711685708746,1711685702217,1961918,0
1711685708746,1711685702257,1963218,0
1711685708746,1711685702297,1965083,0
1711685708746,1711685702337,1967209,0
1711685708746,1711685702377,1969035,0
1711685708746,1711685702417,1970883,0
1711685708746,1711685702458,1972905,0
1711685708746,1711685702497,1974787,0
1711685708746,1711685702537,1975822,0
1711685708746,1711685702577,1975195,0
1711685708746,1711685702617,1974741,0
1711685708746,1711685702658,1975160,0
1711685708746,1711685702698,1976467,0
1711685708746,1711685702738,1977989,0
1711685708746,1711685702778,1979583,0
1711685708746,1711685702818,1981103,0
1711685708746,1711685702859,1982132,0
1711685708746,1711685702898,1983090,0
1711685708746,1711685702938,1984135,0
1711685708746,1711685702979,1985705,0
1711685708746,1711685703019,1987195,0
1711685708746,1711685703059,1989208,0
1711685708746,1711685703099,1990896,0
1711685708746,1711685703139,1992700,0
1711685708746,1711685703179,1994486,0
1711685708746,1711685703219,1995867,0
1711685708746,1711685703260,1995131,0
1711685708746,1711685703300,1994120,0
1711685708746,1711685703340,1994375,0
1711685708746,1711685703380,1995277,0
1711685708746,1711685703420,1996441,0
1711685708746,1711685703461,1997786,0
1711685708746,1711685703500,1999223,0
1711685708746,1711685703540,2000029,0
1711685708746,1711685703580,2001084,0
1711685708746,1711685703621,2001919,0
1711685708746,1711685703661,2003262,0
1711685708746,1711685703701,2004757,0
1711685708746,1711685703741,2006183,0
1711685708746,1711685703781,2007867,0
1711685708746,1711685703821,2009483,0
1711685708746,1711685703862,2011254,0
1711685708746,1711685703901,2011753,0
1711685708746,1711685703941,2010537,0
1711685708746,1711685703982,2009437,0
1711685708746,1711685704021,2009211,0
1711685708746,1711685704062,2010001,0
1711685708746,1711685704102,2010838,0
1711685708746,1711685704142,2011986,0
1711685708746,1711685704182,2012881,0
1711685708746,1711685704222,2013686,0
1711685708746,1711685704263,2014200,0
1711685708746,1711685704302,2014878,0
1711685708746,1711685704343,2016083,0
1711685708746,1711685704383,2017353,0
1711685708746,1711685704423,2018762,0
1711685708746,1711685704464,2020178,0
1711685708746,1711685704503,2021473,0
1711685708746,1711685704543,2022770,0
1711685708746,1711685704583,2024119,0
1711685708746,1711685704623,2023520,0
1711685708746,1711685704664,2021621,0
1711685708746,1711685704704,2020006,0
1711685708746,1711685704744,2019882,0
1711685708746,1711685704784,2020019,0
1711685708746,1711685704824,2020677,0
1711685708746,1711685704867,2022026,0
1711685708746,1711685704904,2023084,0
1711685708746,1711685704944,2023542,0
1711685708746,1711685704984,2024279,0
1711685708746,1711685705024,2025224,0
1711685708746,1711685705065,2026554,0
1711685708746,1711685705105,2028041,0
1711685708746,1711685705145,2029657,0
1711685708746,1711685705185,2031380,0
1711685708746,1711685705225,2032583,0
1711685708746,1711685705266,2034089,0
1711685708746,1711685705305,2033517,0
1711685708746,1711685705345,2031832,0
1711685708746,1711685705385,2030351,0
1711685708746,1711685705426,2030013,0
1711685708746,1711685705466,2030429,0
1711685708746,1711685705506,2031378,0
1711685708746,1711685705546,2032595,0
1711685708746,1711685705586,2033201,0
1711685708746,1711685705626,2033197,0
1711685708746,1711685705667,2033490,0
1711685708746,1711685705706,2033895,0
1711685708746,1711685705746,2034832,0
1711685708746,1711685705787,2035935,0
1711685708746,1711685705827,2036915,0
1711685708746,1711685705868,2038061,0
1711685708746,1711685705907,2039270,0
1711685708746,1711685705947,2040071,0
1711685708746,1711685705987,2038649,0
1711685708746,1711685706028,2036352,0
1711685708746,1711685706068,2034898,0
1711685708746,1711685706108,2034704,0
1711685708746,1711685706148,2035115,0
1711685708746,1711685706188,2036090,0
1711685708746,1711685706228,2036972,0
1711685708746,1711685706269,2037082,0
1711685708746,1711685706308,2036939,0
1711685708746,1711685706349,2036968,0
1711685708746,1711685706389,2037285,0
1711685708746,1711685706429,2038007,0
1711685708746,1711685706470,2038863,0
1711685708746,1711685706509,2039853,0
1711685708746,1711685706549,2040888,0
1711685708746,1711685706589,2041841,0
1711685708746,1711685706630,2040381,0
1711685708746,1711685706670,2037897,0
1711685708746,1711685706710,2036302,0
1711685708746,1711685706750,2035685,0
1711685708746,1711685706790,2036115,0
1711685708746,1711685706830,2036988,0
1711685708746,1711685706871,2037841,0
1711685708746,1711685706910,2038044,0
1711685708746,1711685706950,2038032,0
1711685708746,1711685706991,2037998,0
1711685708746,1711685707031,2038313,0
1711685708746,1711685707074,2039051,0
1711685708746,1711685707111,2040035,0
1711685708746,1711685707151,2041066,0
1711685708746,1711685707191,2043321,0
1711685708746,1711685707231,2042180,0
1711685708746,1711685707272,2039806,0
1711685708746,1711685707311,2038145,0
1711685708746,1711685707352,2037852,0
1711685708746,1711685707392,2038108,0
1711685708746,1711685707432,2039163,0
1711685708746,1711685707473,2040020,0
1711685708746,1711685707512,2040499,0
1711685708746,1711685707552,2040541,0
1711685708746,1711685707592,2040763,0
1711685708746,1711685707632,2041160,0
1711685708746,1711685707673,2042066,0
1711685708746,1711685707712,2043185,0
1711685708746,1711685707752,2044372,0
1711685708746,1711685707792,2045672,0
1711685708746,1711685707833,2046633,0
1711685708746,1711685707873,2045911,0
1711685708746,1711685707913,2044223,0
1711685708746,1711685707953,2043130,0
1711685708746,1711685707993,2043157,0
1711685708746,1711685708033,2043977,0
1711685708746,1711685708074,2045179,0
1711685708746,1711685708113,2046428,0
1711685708746,1711685708153,2046817,0
1711685708746,1711685708193,2046984,0
1711685708746,1711685708233,2047515,0
1711685708746,1711685708274,2047978,0
1711685708746,1711685708314,2049124,0
1711685708746,1711685708354,2050252,0
1711685708746,1711685708394,2051444,0
1711685708746,1711685708434,2052755,0
1711685708746,1711685708475,2053231,0
1711685708746,1711685708514,2051794,0
1711685708746,1711685708554,2050537,0
1711685708746,1711685708594,2050350,0
1711685708746,1711685708634,2050764,0
1711685708746,1711685708675,2051894,0
1711685720809,1711685708712,2053208,0
1711685720809,1711685708753,2053937,0
1711685720809,1711685708793,2054494,0
1711685720809,1711685708833,2054941,0
1711685720809,1711685708874,2055383,0
1711685720809,1711685708913,2056272,0
1711685720809,1711685708953,2057343,0
1711685720809,1711685708993,2058451,0
1711685720809,1711685709033,2059709,0
1711685720809,1711685709074,2060687,0
1711685720809,1711685709113,2059439,0
1711685720809,1711685709154,2058122,0
1711685720809,1711685709194,2057394,0
1711685720809,1711685709234,2057606,0
1711685720809,1711685709275,2058325,0
1711685720809,1711685709314,2059336,0
1711685720809,1711685709354,2060062,0
1711685720809,1711685709394,2060465,0
1711685720809,1711685709434,2060649,0
1711685720809,1711685709475,2060938,0
1711685720809,1711685709515,2061847,0
1711685720809,1711685709555,2062740,0
1711685720809,1711685709595,2063777,0
1711685720809,1711685709635,2064894,0
1711685720809,1711685709676,2065941,0
1711685720809,1711685709715,2065725,0
1711685720809,1711685709755,2063912,0
1711685720809,1711685709795,2062821,0
1711685720809,1711685709835,2062506,0
1711685720809,1711685709876,2062925,0
1711685720809,1711685709915,2063478,0
1711685720809,1711685709956,2064253,0
1711685720809,1711685709996,2064552,0
1711685720809,1711685710036,2064447,0
1711685720809,1711685710076,2064548,0
1711685720809,1711685710116,2064837,0
1711685720809,1711685710156,2065390,0
1711685720809,1711685710196,2066021,0
1711685720809,1711685710236,2066925,0
1711685720809,1711685710277,2067776,0
1711685720809,1711685710316,2068578,0
1711685720809,1711685710357,2067688,0
1711685720809,1711685710397,2065850,0
1711685720809,1711685710437,2064484,0
1711685720809,1711685710478,2064310,0
1711685720809,1711685710517,2064369,0
1711685720809,1711685710557,2064868,0
1711685720809,1711685710597,2065187,0
1711685720809,1711685710637,2065136,0
1711685720809,1711685710678,2065078,0
1711685720809,1711685710717,2065075,0
1711685720809,1711685710757,2065556,0
1711685720809,1711685710798,2066374,0
1711685720809,1711685710838,2067148,0
1711685720809,1711685710878,2068169,0
1711685720809,1711685710918,2069139,0
1711685720809,1711685710958,2070302,0
1711685720809,1711685710998,2070588,0
1711685720809,1711685711038,2068937,0
1711685720809,1711685711079,2067606,0
1711685720809,1711685711118,2067114,0
1711685720809,1711685711159,2067293,0
1711685720809,1711685711199,2067737,0
1711685720809,1711685711239,2068486,0
1711685720809,1711685711280,2068699,0
1711685720809,1711685711319,2068791,0
1711685720809,1711685711359,2068716,0
1711685720809,1711685711399,2069065,0
1711685720809,1711685711439,2069491,0
1711685720809,1711685711480,2070378,0
1711685720809,1711685711519,2071111,0
1711685720809,1711685711560,2071916,0
1711685720809,1711685711600,2072782,0
1711685720809,1711685711640,2073502,0
1711685720809,1711685711681,2073154,0
1711685720809,1711685711720,2071436,0
1711685720809,1711685711760,2069871,0
1711685720809,1711685711801,2069454,0
1711685720809,1711685711840,2069530,0
1711685720809,1711685711881,2069773,0
1711685720809,1711685711921,2070412,0
1711685720809,1711685711961,2070665,0
1711685720809,1711685712001,2070716,0
1711685720809,1711685712041,2070604,0
1711685720809,1711685712082,2070859,0
1711685720809,1711685712121,2071460,0
1711685720809,1711685712161,2072044,0
1711685720809,1711685712202,2073024,0
1711685720809,1711685712242,2073751,0
1711685720809,1711685712283,2074633,0
1711685720809,1711685712322,2075431,0
1711685720809,1711685712362,2074434,0
1711685720809,1711685712402,2072645,0
1711685720809,1711685712442,2071627,0
1711685720809,1711685712483,2071444,0
1711685720809,1711685712523,2071564,0
1711685720809,1711685712563,2072010,0
1711685720809,1711685712603,2072506,0
1711685720809,1711685712643,2072559,0
1711685720809,1711685712684,2072477,0
1711685720809,1711685712723,2072589,0
1711685720809,1711685712763,2073065,0
1711685720809,1711685712803,2073602,0
1711685720809,1711685712844,2074428,0
1711685720809,1711685712884,2075103,0
1711685720809,1711685712924,2075816,0
1711685720809,1711685712964,2076537,0
1711685720809,1711685713004,2077390,0
1711685720809,1711685713044,2077050,0
1711685720809,1711685713085,2075170,0
1711685720809,1711685713125,2074090,0
1711685720809,1711685713165,2073765,0
1711685720809,1711685713205,2074027,0
1711685720809,1711685713245,2074143,0
1711685720809,1711685713286,2074899,0
1711685720809,1711685713325,2074839,0
1711685720809,1711685713366,2074815,0
1711685720809,1711685713406,2074934,0
1711685720809,1711685713446,2075253,0
1711685720809,1711685713487,2075894,0
1711685720809,1711685713526,2076517,0
1711685720809,1711685713566,2077053,0
1711685720809,1711685713606,2077670,0
1711685720809,1711685713646,2077988,0
1711685720809,1711685713687,2078377,0
1711685720809,1711685713727,2079071,0
1711685720809,1711685713767,2078343,0
1711685720809,1711685713807,2076347,0
1711685720809,1711685713847,2074960,0
1711685720809,1711685713888,2074300,0
1711685720809,1711685713927,2074085,0
1711685720809,1711685713967,2074215,0
1711685720809,1711685714007,2074579,0
1711685720809,1711685714048,2075326,0
1711685720809,1711685714089,2075607,0
1711685720809,1711685714128,2075831,0
1711685720809,1711685714168,2076468,0
1711685720809,1711685714208,2077224,0
1711685720809,1711685714248,2078089,0
1711685720809,1711685714289,2079042,0
1711685720809,1711685714329,2079842,0
1711685720809,1711685714369,2080714,0
1711685720809,1711685714409,2081629,0
1711685720809,1711685714449,2082404,0
1711685720809,1711685714490,2083284,0
1711685720809,1711685714529,2083138,0
1711685720809,1711685714569,2081509,0
1711685720809,1711685714609,2080281,0
1711685720809,1711685714649,2080171,0
1711685720809,1711685714690,2080367,0
1711685720809,1711685714729,2080751,0
1711685720809,1711685714770,2081383,0
1711685720809,1711685714810,2081608,0
1711685720809,1711685714850,2081598,0
1711685720809,1711685714891,2081558,0
1711685720809,1711685714930,2081993,0
1711685720809,1711685714970,2082423,0
1711685720809,1711685715010,2083095,0
1711685720809,1711685715051,2083862,0
1711685720809,1711685715091,2084535,0
1711685720809,1711685715131,2085296,0
1711685720809,1711685715171,2085744,0
1711685720809,1711685715211,2086458,0
1711685720809,1711685715251,2086263,0
1711685720809,1711685715292,2084555,0
1711685720809,1711685715331,2083276,0
1711685720809,1711685715371,2082812,0
1711685720809,1711685715412,2083050,0
1711685720809,1711685715452,2083490,0
1711685720809,1711685715492,2083993,0
1711685720809,1711685715532,2084200,0
1711685720809,1711685715572,2083854,0
1711685720809,1711685715612,2083581,0
1711685720809,1711685715652,2083900,0
1711685720809,1711685715693,2084186,0
1711685720809,1711685715732,2084928,0
1711685720809,1711685715772,2085611,0
1711685720809,1711685715812,2086253,0
1711685720809,1711685715853,2086898,0
1711685720809,1711685715893,2087531,0
1711685720809,1711685715933,2088172,0
1711685720809,1711685715973,2086746,0
1711685720809,1711685716013,2084650,0
1711685720809,1711685716053,2082922,0
1711685720809,1711685716094,2082323,0
1711685720809,1711685716133,2082237,0
1711685720809,1711685716173,2081936,0
1711685720809,1711685716214,2082117,0
1711685720809,1711685716254,2081946,0
1711685720809,1711685716294,2081308,0
1711685720809,1711685716334,2081038,0
1711685720809,1711685716374,2080806,0
1711685720809,1711685716414,2081095,0
1711685720809,1711685716454,2081438,0
1711685720809,1711685716495,2081975,0
1711685720809,1711685716534,2082457,0
1711685720809,1711685716574,2082846,0
1711685720809,1711685716615,2083595,0
1711685720809,1711685716655,2083644,0
1711685720809,1711685716695,2081473,0
1711685720809,1711685716735,2079032,0
1711685720809,1711685716775,2077253,0
1711685720809,1711685716815,2076408,0
1711685720809,1711685716855,2075914,0
1711685720809,1711685716896,2075673,0
1711685720809,1711685716935,2075330,0
1711685720809,1711685716975,2075111,0
1711685720809,1711685717016,2074305,0
1711685720809,1711685717056,2073756,0
1711685720809,1711685717097,2073491,0
1711685720809,1711685717136,2073569,0
1711685720809,1711685717176,2073825,0
1711685720809,1711685717216,2074270,0
1711685720809,1711685717256,2074783,0
1711685720809,1711685717297,2075175,0
1711685720809,1711685717337,2075434,0
1711685720809,1711685717377,2076056,0
1711685720809,1711685717417,2074387,0
1711685720809,1711685717457,2071265,0
1711685720809,1711685717498,2068899,0
1711685720809,1711685717537,2067265,0
1711685720809,1711685717577,2066195,0
1711685720809,1711685717617,2065876,0
1711685720809,1711685717657,2065502,0
1711685720809,1711685717698,2064930,0
1711685720809,1711685717738,2064045,0
1711685720809,1711685717778,2063392,0
1711685720809,1711685717818,2063102,0
1711685720809,1711685717858,2062974,0
1711685720809,1711685717899,2063238,0
1711685720809,1711685717938,2063746,0
1711685720809,1711685717978,2064034,0
1711685720809,1711685718018,2064423,0
1711685720809,1711685718059,2064789,0
1711685720809,1711685718099,2065538,0
1711685720809,1711685718139,2064661,0
1711685720809,1711685718179,2061989,0
1711685720809,1711685718219,2059528,0
1711685720809,1711685718259,2058048,0
1711685720809,1711685718300,2057549,0
1711685720809,1711685718339,2057275,0
1711685720809,1711685718379,2057305,0
1711685720809,1711685718420,2057157,0
1711685720809,1711685718460,2056580,0
1711685720809,1711685718501,2055707,0
1711685720809,1711685718540,2055267,0
1711685720809,1711685718580,2055501,0
1711685720809,1711685718620,2055911,0
1711685720809,1711685718661,2056563,0
1711685720809,1711685718701,2057197,0
1711685720809,1711685718741,2057836,0
1711685720809,1711685718781,2058407,0
1711685720809,1711685718821,2059327,0
1711685720809,1711685718861,2059375,0
1711685720809,1711685718902,2057217,0
1711685720809,1711685718941,2054412,0
1711685720809,1711685718982,2052570,0
1711685720809,1711685719022,2051761,0
1711685720809,1711685719062,2051723,0
1711685720809,1711685719103,2052124,0
1711685720809,1711685719142,2052393,0
1711685720809,1711685719182,2051943,0
1711685720809,1711685719222,2051238,0
1711685720809,1711685719263,2050886,0
1711685720809,1711685719303,2050907,0
1711685720809,1711685719343,2051180,0
1711685720809,1711685719383,2051833,0
1711685720809,1711685719423,2052798,0
1711685720809,1711685719463,2053457,0
1711685720809,1711685719504,2054231,0
1711685720809,1711685719543,2055046,0
1711685720809,1711685719584,2053455,0
1711685720809,1711685719624,2050627,0
1711685720809,1711685719664,2048242,0
1711685720809,1711685719705,2047237,0
1711685720809,1711685719744,2047020,0
1711685720809,1711685719784,2047280,0
1711685720809,1711685719824,2047563,0
1711685720809,1711685719865,2047451,0
1711685720809,1711685719905,2046859,0
1711685720809,1711685719945,2046288,0
1711685720809,1711685719985,2046165,0
1711685720809,1711685720025,2046307,0
1711685720809,1711685720065,2047004,0
1711685720809,1711685720106,2047611,0
1711685720809,1711685720146,2048300,0
1711685720809,1711685720186,2049267,0
1711685720809,1711685720226,2049524,0
1711685720809,1711685720266,2047776,0
1711685720809,1711685720307,2044477,0
1711685720809,1711685720346,2041736,0
1711685720809,1711685720386,2040232,0
1711685720809,1711685720427,2039664,0
1711685720809,1711685720467,2039320,0
1711685720809,1711685720508,2039299,0
1711685720809,1711685720547,2038801,0
1711685720809,1711685720587,2037884,0
1711685720809,1711685720627,2037134,0
1711685720809,1711685720667,2036689,0
1711685720809,1711685720708,2036642,0
1711685732824,1711685720750,2036524,0
1711685732824,1711685720790,2037005,0
1711685732824,1711685720830,2037365,0
1711685732824,1711685720870,2037889,0
1711685732824,1711685720911,2035194,0
1711685732824,1711685720950,2030922,0
1711685732824,1711685720990,2027637,0
1711685732824,1711685721030,2025697,0
1711685732824,1711685721071,2024232,0
1711685732824,1711685721111,2023207,0
1711685732824,1711685721151,2022784,0
1711685732824,1711685721191,2021626,0
1711685732824,1711685721231,2020301,0
1711685732824,1711685721271,2018726,0
1711685732824,1711685721312,2017597,0
1711685732824,1711685721351,2017203,0
1711685732824,1711685721391,2016932,0
1711685732824,1711685721431,2016739,0
1711685732824,1711685721471,2016896,0
1711685732824,1711685721512,2017209,0
1711685732824,1711685721552,2017200,0
1711685732824,1711685721592,2014599,0
1711685732824,1711685721632,2009848,0
1711685732824,1711685721672,2006500,0
1711685732824,1711685721713,2004757,0
1711685732824,1711685721752,2003539,0
1711685732824,1711685721792,2003045,0
1711685732824,1711685721832,2002564,0
1711685732824,1711685721872,2001439,0
1711685732824,1711685721913,2000115,0
1711685732824,1711685721952,1999047,0
1711685732824,1711685721993,1998187,0
1711685732824,1711685722033,1998006,0
1711685732824,1711685722073,1998097,0
1711685732824,1711685722113,1998476,0
1711685732824,1711685722153,1998985,0
1711685732824,1711685722193,1999223,0
1711685732824,1711685722233,1999587,0
1711685732824,1711685722273,1997464,0
1711685732824,1711685722314,1993866,0
1711685732824,1711685722353,1990868,0
1711685732824,1711685722394,1989308,0
1711685732824,1711685722434,1988644,0
1711685732824,1711685722474,1988076,0
1711685732824,1711685722515,1987964,0
1711685732824,1711685722554,1987288,0
1711685732824,1711685722594,1986233,0
1711685732824,1711685722634,1985375,0
1711685732824,1711685722674,1984827,0
1711685732824,1711685722715,1984894,0
1711685732824,1711685722754,1985422,0
1711685732824,1711685722794,1986124,0
1711685732824,1711685722835,1986798,0
1711685732824,1711685722875,1987643,0
1711685732824,1711685722916,1988472,0
1711685732824,1711685722955,1987703,0
1711685732824,1711685722995,1984663,0
1711685732824,1711685723035,1981722,0
1711685732824,1711685723075,1980115,0
1711685732824,1711685723116,1979755,0
1711685732824,1711685723155,1979584,0
1711685732824,1711685723195,1979973,0
1711685732824,1711685723236,1979977,0
1711685732824,1711685723276,1979415,0
1711685732824,1711685723316,1978680,0
1711685732824,1711685723356,1978730,0
1711685732824,1711685723396,1979151,0
1711685732824,1711685723436,1979630,0
1711685732824,1711685723476,1980714,0
1711685732824,1711685723517,1981756,0
1711685732824,1711685723556,1982807,0
1711685732824,1711685723596,1983992,0
1711685732824,1711685723636,1983135,0
1711685732824,1711685723676,1980839,0
1711685732824,1711685723717,1978390,0
1711685732824,1711685723757,1977611,0
1711685732824,1711685723797,1977546,0
1711685732824,1711685723837,1977813,0
1711685732824,1711685723877,1978652,0
1711685732824,1711685723918,1978798,0
1711685732824,1711685723957,1978721,0
1711685732824,1711685723997,1978477,0
1711685732824,1711685724037,1978623,0
1711685732824,1711685724078,1979262,0
1711685732824,1711685724118,1980133,0
1711685732824,1711685724158,1981153,0
1711685732824,1711685724198,1982087,0
1711685732824,1711685724238,1983430,0
1711685732824,1711685724278,1984116,0
1711685732824,1711685724319,1982527,0
1711685732824,1711685724358,1979647,0
1711685732824,1711685724398,1977835,0
1711685732824,1711685724439,1977531,0
1711685732824,1711685724478,1977511,0
1711685732824,1711685724519,1978059,0
1711685732824,1711685724559,1978492,0
1711685732824,1711685724599,1978702,0
1711685732824,1711685724639,1978585,0
1711685732824,1711685724679,1978516,0
1711685732824,1711685724720,1979004,0
1711685732824,1711685724759,1979789,0
1711685732824,1711685724800,1980594,0
1711685732824,1711685724840,1981940,0
1711685732824,1711685724880,1982954,0
1711685732824,1711685724921,1984140,0
1711685732824,1711685724960,1984753,0
1711685732824,1711685725000,1982459,0
1711685732824,1711685725040,1979872,0
1711685732824,1711685725080,1978115,0
1711685732824,1711685725121,1977635,0
1711685732824,1711685725161,1977472,0
1711685732824,1711685725201,1977637,0
1711685732824,1711685725241,1977991,0
1711685732824,1711685725281,1977883,0
1711685732824,1711685725322,1977736,0
1711685732824,1711685725361,1977573,0
1711685732824,1711685725401,1977972,0
1711685732824,1711685725441,1978705,0
1711685732824,1711685725481,1979628,0
1711685732824,1711685725522,1980781,0
1711685732824,1711685725562,1981713,0
1711685732824,1711685725602,1982917,0
1711685732824,1711685725642,1984045,0
1711685732824,1711685725682,1983819,0
1711685732824,1711685725723,1981199,0
1711685732824,1711685725762,1978964,0
1711685732824,1711685725802,1977954,0
1711685732824,1711685725842,1977556,0
1711685732824,1711685725883,1977641,0
1711685732824,1711685725923,1978064,0
1711685732824,1711685725963,1978335,0
1711685732824,1711685726003,1978086,0
1711685732824,1711685726043,1978105,0
1711685732824,1711685726083,1978187,0
1711685732824,1711685726124,1978850,0
1711685732824,1711685726163,1979848,0
1711685732824,1711685726204,1980971,0
1711685732824,1711685726244,1981990,0
1711685732824,1711685726284,1983048,0
1711685732824,1711685726325,1984133,0
1711685732824,1711685726364,1985418,0
1711685732824,1711685726404,1986261,0
1711685732824,1711685726444,1984500,0
1711685732824,1711685726485,1982133,0
1711685732824,1711685726525,1980900,0
1711685732824,1711685726565,1980507,0
1711685732824,1711685726605,1980622,0
1711685732824,1711685726645,1981016,0
1711685732824,1711685726685,1981652,0
1711685732824,1711685726726,1981679,0
1711685732824,1711685726766,1981527,0
1711685732824,1711685726806,1981663,0
1711685732824,1711685726846,1982256,0
1711685732824,1711685726886,1983086,0
1711685732824,1711685726927,1984230,0
1711685732824,1711685726966,1985336,0
1711685732824,1711685727006,1986652,0
1711685732824,1711685727047,1987612,0
1711685732824,1711685727087,1989068,0
1711685732824,1711685727127,1990205,0
1711685732824,1711685727167,1990819,0
1711685732824,1711685727207,1988872,0
1711685732824,1711685727247,1986923,0
1711685732824,1711685727287,1986066,0
1711685732824,1711685727328,1986076,0
1711685732824,1711685727368,1986461,0
1711685732824,1711685727408,1987336,0
1711685732824,1711685727448,1987941,0
1711685732824,1711685727488,1988062,0
1711685732824,1711685727529,1987856,0
1711685732824,1711685727568,1988254,0
1711685732824,1711685727608,1988796,0
1711685732824,1711685727649,1989728,0
1711685732824,1711685727689,1990620,0
1711685732824,1711685727730,1991748,0
1711685732824,1711685727769,1992958,0
1711685732824,1711685727809,1994048,0
1711685732824,1711685727849,1995293,0
1711685732824,1711685727890,1996187,0
1711685732824,1711685727930,1995124,0
1711685732824,1711685727970,1993123,0
1711685732824,1711685728010,1991608,0
1711685732824,1711685728050,1991334,0
1711685732824,1711685728090,1991644,0
1711685732824,1711685728131,1992377,0
1711685732824,1711685728170,1992994,0
1711685732824,1711685728210,1993398,0
1711685732824,1711685728250,1993272,0
1711685732824,1711685728290,1993352,0
1711685732824,1711685728331,1993759,0
1711685732824,1711685728371,1994635,0
1711685732824,1711685728411,1995531,0
1711685732824,1711685728451,1996747,0
1711685732824,1711685728491,1997896,0
1711685732824,1711685728532,1998978,0
1711685732824,1711685728571,2000148,0
1711685732824,1711685728611,2001456,0
1711685732824,1711685728651,2001631,0
1711685732824,1711685728691,1999639,0
1711685732824,1711685728732,1997481,0
1711685732824,1711685728771,1996581,0
1711685732824,1711685728811,1996385,0
1711685732824,1711685728852,1996638,0
1711685732824,1711685728892,1997191,0
1711685732824,1711685728933,1997618,0
1711685732824,1711685728972,1997691,0
1711685732824,1711685729012,1997435,0
1711685732824,1711685729052,1997619,0
1711685732824,1711685729092,1998087,0
1711685732824,1711685729133,1998854,0
1711685732824,1711685729172,1999801,0
1711685732824,1711685729212,2000903,0
1711685732824,1711685729253,2001949,0
1711685732824,1711685729293,2002969,0
1711685732824,1711685729334,2004135,0
1711685732824,1711685729373,2005142,0
1711685732824,1711685729413,2004460,0
1711685732824,1711685729453,2002098,0
1711685732824,1711685729493,2000363,0
1711685732824,1711685729534,1999589,0
1711685732824,1711685729573,1999692,0
1711685732824,1711685729614,1999868,0
1711685732824,1711685729654,2000176,0
1711685732824,1711685729694,2000495,0
1711685732824,1711685729735,2000251,0
1711685732824,1711685729774,1999821,0
1711685732824,1711685729814,1999950,0
1711685732824,1711685729854,2000618,0
1711685732824,1711685729894,2001444,0
1711685732824,1711685729935,2002552,0
1711685732824,1711685729974,2003811,0
1711685732824,1711685730014,2004811,0
1711685732824,1711685730054,2006015,0
1711685732824,1711685730095,2007074,0
1711685732824,1711685730135,2008014,0
1711685732824,1711685730175,2006751,0
1711685732824,1711685730215,2004552,0
1711685732824,1711685730255,2003086,0
1711685732824,1711685730295,2002588,0
1711685732824,1711685730336,2002523,0
1711685732824,1711685730375,2002979,0
1711685732824,1711685730415,2003374,0
1711685732824,1711685730456,2003577,0
1711685732824,1711685730496,2003212,0
1711685732824,1711685730536,2002871,0
1711685732824,1711685730576,2002999,0
1711685732824,1711685730616,2003232,0
1711685732824,1711685730656,2003942,0
1711685732824,1711685730696,2004791,0
1711685732824,1711685730737,2005656,0
1711685732824,1711685730776,2006390,0
1711685732824,1711685730817,2007284,0
1711685732824,1711685730856,2008327,0
1711685732824,1711685730897,2008242,0
1711685732824,1711685730938,2006126,0
1711685732824,1711685730977,2003951,0
1711685732824,1711685731017,2002925,0
1711685732824,1711685731057,2002481,0
1711685732824,1711685731097,2003035,0
1711685732824,1711685731138,2003638,0
1711685732824,1711685731177,2003912,0
1711685732824,1711685731217,2003419,0
1711685732824,1711685731258,2002869,0
1711685732824,1711685731298,2002843,0
1711685732824,1711685731338,2003133,0
1711685732824,1711685731378,2003798,0
1711685732824,1711685731418,2004584,0
1711685732824,1711685731458,2005487,0
1711685732824,1711685731498,2006338,0
1711685732824,1711685731539,2007231,0
1711685732824,1711685731578,2008454,0
1711685732824,1711685731619,2009363,0
1711685732824,1711685731659,2007789,0
1711685732824,1711685731699,2004913,0
1711685732824,1711685731739,2002807,0
1711685732824,1711685731779,2001929,0
1711685732824,1711685731819,2001551,0
1711685732824,1711685731859,2001959,0
1711685732824,1711685731899,2002541,0
1711685732824,1711685731940,2002201,0
1711685732824,1711685731979,2001676,0
1711685732824,1711685732020,2001024,0
1711685732824,1711685732060,2000766,0
1711685732824,1711685732100,2001058,0
1711685732824,1711685732141,2001708,0
1711685732824,1711685732180,2002483,0
1711685732824,1711685732220,2003310,0
1711685732824,1711685732260,2003959,0
1711685732824,1711685732300,2004819,0
1711685732824,1711685732341,2005605,0
1711685732824,1711685732381,2005086,0
1711685732824,1711685732421,2002327,0
1711685732824,1711685732461,2000040,0
1711685732824,1711685732501,1998822,0
1711685732824,1711685732542,1997972,0
1711685732824,1711685732581,1998202,0
1711685732824,1711685732621,1998644,0
1711685732824,1711685732661,1998784,0
1711685732824,1711685732701,1998550,0
1711685732824,1711685732742,1997867,0
1711685744867,1711685732782,1997600,0
1711685744867,1711685732822,1997632,0
1711685744867,1711685732862,1998129,0
1711685744867,1711685732902,1999021,0
1711685744867,1711685732943,1999792,0
1711685744867,1711685732982,2000971,0
1711685744867,1711685733022,2001728,0
1711685744867,1711685733062,2002790,0
1711685744867,1711685733103,2003021,0
1711685744867,1711685733143,2000914,0
1711685744867,1711685733183,1998344,0
1711685744867,1711685733223,1996593,0
1711685744867,1711685733263,1995773,0
1711685744867,1711685733303,1995922,0
1711685744867,1711685733344,1996360,0
1711685744867,1711685733383,1996851,0
1711685744867,1711685733423,1996754,0
1711685744867,1711685733464,1996168,0
1711685744867,1711685733504,1995833,0
1711685744867,1711685733544,1995865,0
1711685744867,1711685733584,1996368,0
1711685744867,1711685733624,1997167,0
1711685744867,1711685733664,1998049,0
1711685744867,1711685733704,1999105,0
1711685744867,1711685733745,2000106,0
1711685744867,1711685733784,2001115,0
1711685744867,1711685733825,2001263,0
1711685744867,1711685733865,1998780,0
1711685744867,1711685733905,1996093,0
1711685744867,1711685733946,1994554,0
1711685744867,1711685733985,1993867,0
1711685744867,1711685734025,1994112,0
1711685744867,1711685734066,1994831,0
1711685744867,1711685734106,1995236,0
1711685744867,1711685734146,1994914,0
1711685744867,1711685734186,1994171,0
1711685744867,1711685734226,1993820,0
1711685744867,1711685734266,1993764,0
1711685744867,1711685734306,1994316,0
1711685744867,1711685734347,1994991,0
1711685744867,1711685734387,1995856,0
1711685744867,1711685734427,1996799,0
1711685744867,1711685734467,1997635,0
1711685744867,1711685734507,1998117,0
1711685744867,1711685734548,1995779,0
1711685744867,1711685734587,1992561,0
1711685744867,1711685734627,1990497,0
1711685744867,1711685734668,1989404,0
1711685744867,1711685734708,1989057,0
1711685744867,1711685734748,1989390,0
1711685744867,1711685734788,1989713,0
1711685744867,1711685734828,1989413,0
1711685744867,1711685734868,1988666,0
1711685744867,1711685734909,1988040,0
1711685744867,1711685734949,1988022,0
1711685744867,1711685734989,1988229,0
1711685744867,1711685735029,1989014,0
1711685744867,1711685735069,1990593,0
1711685744867,1711685735109,1991555,0
1711685744867,1711685735150,1992306,0
1711685744867,1711685735189,1990487,0
1711685744867,1711685735229,1986866,0
1711685744867,1711685735269,1984311,0
1711685744867,1711685735309,1982858,0
1711685744867,1711685735350,1982378,0
1711685744867,1711685735390,1982264,0
1711685744867,1711685735430,1982479,0
1711685744867,1711685735470,1982123,0
1711685744867,1711685735510,1981335,0
1711685744867,1711685735550,1980649,0
1711685744867,1711685735590,1980249,0
1711685744867,1711685735630,1980571,0
1711685744867,1711685735670,1981158,0
1711685744867,1711685735710,1981916,0
1711685744867,1711685735751,1982699,0
1711685744867,1711685735790,1983518,0
1711685744867,1711685735830,1984568,0
1711685744867,1711685735871,1984222,0
1711685744867,1711685735911,1981181,0
1711685744867,1711685735951,1977903,0
1711685744867,1711685735991,1976012,0
1711685744867,1711685736031,1975011,0
1711685744867,1711685736071,1974582,0
1711685744867,1711685736111,1974647,0
1711685744867,1711685736152,1974520,0
1711685744867,1711685736191,1973746,0
1711685744867,1711685736231,1972951,0
1711685744867,1711685736271,1972468,0
1711685744867,1711685736311,1972370,0
1711685744867,1711685736352,1972829,0
1711685744867,1711685736392,1973338,0
1711685744867,1711685736432,1974265,0
1711685744867,1711685736472,1975131,0
1711685744867,1711685736512,1975913,0
1711685744867,1711685736553,1976748,0
1711685744867,1711685736592,1976501,0
1711685744867,1711685736632,1973261,0
1711685744867,1711685736672,1970141,0
1711685744867,1711685736712,1968480,0
1711685744867,1711685736753,1967646,0
1711685744867,1711685736792,1967483,0
1711685744867,1711685736833,1967844,0
1711685744867,1711685736873,1967670,0
1711685744867,1711685736913,1967021,0
1711685744867,1711685736954,1966281,0
1711685744867,1711685736993,1965961,0
1711685744867,1711685737033,1966217,0
1711685744867,1711685737073,1966823,0
1711685744867,1711685737113,1967564,0
1711685744867,1711685737154,1968442,0
1711685744867,1711685737193,1969402,0
1711685744867,1711685737233,1970321,0
1711685744867,1711685737273,1971278,0
1711685744867,1711685737314,1970933,0
1711685744867,1711685737354,1968023,0
1711685744867,1711685737394,1965370,0
1711685744867,1711685737434,1963778,0
1711685744867,1711685737474,1963392,0
1711685744867,1711685737514,1963426,0
1711685744867,1711685737555,1964086,0
1711685744867,1711685737594,1964266,0
1711685744867,1711685737634,1963580,0
1711685744867,1711685737674,1963100,0
1711685744867,1711685737714,1962865,0
1711685744867,1711685737755,1963078,0
1711685744867,1711685737795,1963766,0
1711685744867,1711685737835,1964613,0
1711685744867,1711685737875,1965345,0
1711685744867,1711685737915,1966272,0
1711685744867,1711685737956,1967356,0
1711685744867,1711685737995,1968051,0
1711685744867,1711685738035,1966156,0
1711685744867,1711685738075,1963065,0
1711685744867,1711685738115,1960914,0
1711685744867,1711685738156,1960006,0
1711685744867,1711685738196,1959992,0
1711685744867,1711685738236,1960409,0
1711685744867,1711685738276,1960689,0
1711685744867,1711685738316,1960559,0
1711685744867,1711685738357,1959789,0
1711685744867,1711685738396,1959661,0
1711685744867,1711685738436,1959693,0
1711685744867,1711685738476,1960244,0
1711685744867,1711685738516,1961221,0
1711685744867,1711685738557,1962146,0
1711685744867,1711685738597,1963110,0
1711685744867,1711685738637,1964286,0
1711685744867,1711685738677,1965359,0
1711685744867,1711685738717,1964764,0
1711685744867,1711685738758,1961313,0
1711685744867,1711685738797,1958238,0
1711685744867,1711685738837,1956664,0
1711685744867,1711685738877,1956133,0
1711685744867,1711685738917,1955818,0
1711685744867,1711685738958,1956095,0
1711685744867,1711685738998,1956087,0
1711685744867,1711685739038,1955440,0
1711685744867,1711685739078,1954823,0
1711685744867,1711685739118,1954729,0
1711685744867,1711685739159,1955042,0
1711685744867,1711685739198,1955794,0
1711685744867,1711685739238,1956779,0
1711685744867,1711685739278,1957652,0
1711685744867,1711685739318,1958689,0
1711685744867,1711685739359,1959864,0
1711685744867,1711685739398,1960711,0
1711685744867,1711685739439,1958965,0
1711685744867,1711685739479,1955476,0
1711685744867,1711685739519,1953097,0
1711685744867,1711685739559,1951874,0
1711685744867,1711685739599,1951266,0
1711685744867,1711685739639,1951241,0
1711685744867,1711685739679,1951454,0
1711685744867,1711685739720,1951284,0
1711685744867,1711685739760,1950634,0
1711685744867,1711685739800,1950185,0
1711685744867,1711685739840,1950536,0
1711685744867,1711685739880,1950995,0
1711685744867,1711685739920,1951878,0
1711685744867,1711685739961,1952801,0
1711685744867,1711685740000,1953857,0
1711685744867,1711685740040,1954837,0
1711685744867,1711685740081,1955917,0
1711685744867,1711685740120,1957157,0
1711685744867,1711685740161,1956362,0
1711685744867,1711685740201,1953230,0
1711685744867,1711685740241,1950601,0
1711685744867,1711685740281,1949452,0
1711685744867,1711685740321,1949016,0
1711685744867,1711685740362,1948906,0
1711685744867,1711685740401,1949354,0
1711685744867,1711685740441,1949281,0
1711685744867,1711685740482,1948595,0
1711685744867,1711685740522,1948186,0
1711685744867,1711685740563,1948321,0
1711685744867,1711685740602,1948848,0
1711685744867,1711685740642,1949829,0
1711685744867,1711685740682,1950786,0
1711685744867,1711685740722,1951897,0
1711685744867,1711685740763,1952841,0
1711685744867,1711685740802,1953883,0
1711685744867,1711685740842,1955071,0
1711685744867,1711685740882,1956011,0
1711685744867,1711685740923,1953790,0
1711685744867,1711685740963,1951206,0
1711685744867,1711685741003,1949453,0
1711685744867,1711685741043,1948860,0
1711685744867,1711685741083,1949085,0
1711685744867,1711685741123,1949734,0
1711685744867,1711685741164,1950150,0
1711685744867,1711685741203,1949866,0
1711685744867,1711685741243,1949410,0
1711685744867,1711685741284,1949102,0
1711685744867,1711685741324,1949315,0
1711685744867,1711685741365,1950205,0
1711685744867,1711685741404,1951217,0
1711685744867,1711685741444,1952339,0
1711685744867,1711685741484,1953316,0
1711685744867,1711685741524,1954402,0
1711685744867,1711685741565,1955511,0
1711685744867,1711685741605,1956338,0
1711685744867,1711685741645,1954420,0
1711685744867,1711685741685,1951707,0
1711685744867,1711685741725,1950047,0
1711685744867,1711685741766,1949584,0
1711685744867,1711685741805,1949644,0
1711685744867,1711685741845,1950300,0
1711685744867,1711685741885,1950830,0
1711685744867,1711685741925,1950660,0
1711685744867,1711685741966,1950287,0
1711685744867,1711685742006,1950307,0
1711685744867,1711685742046,1950853,0
1711685744867,1711685742086,1951722,0
1711685744867,1711685742126,1952771,0
1711685744867,1711685742167,1954039,0
1711685744867,1711685742206,1955206,0
1711685744867,1711685742247,1956278,0
1711685744867,1711685742287,1957525,0
1711685744867,1711685742327,1958460,0
1711685744867,1711685742368,1956878,0
1711685744867,1711685742407,1953620,0
1711685744867,1711685742447,1951309,0
1711685744867,1711685742487,1950557,0
1711685744867,1711685742527,1950333,0
1711685744867,1711685742568,1950331,0
1711685744867,1711685742608,1950716,0
1711685744867,1711685742648,1950826,0
1711685744867,1711685742688,1950456,0
1711685744867,1711685742728,1950241,0
1711685744867,1711685742769,1950404,0
1711685744867,1711685742808,1951075,0
1711685744867,1711685742848,1952086,0
1711685744867,1711685742888,1953320,0
1711685744867,1711685742929,1954448,0
1711685744867,1711685742969,1955542,0
1711685744867,1711685743009,1956913,0
1711685744867,1711685743049,1958087,0
1711685744867,1711685743089,1958080,0
1711685744867,1711685743129,1955201,0
1711685744867,1711685743170,1952591,0
1711685744867,1711685743209,1951212,0
1711685744867,1711685743249,1950938,0
1711685744867,1711685743289,1951024,0
1711685744867,1711685743329,1951559,0
1711685744867,1711685743370,1951883,0
1711685744867,1711685743410,1951785,0
1711685744867,1711685743450,1951387,0
1711685744867,1711685743490,1951508,0
1711685744867,1711685743530,1951976,0
1711685744867,1711685743571,1952819,0
1711685744867,1711685743610,1954088,0
1711685744867,1711685743650,1955266,0
1711685744867,1711685743690,1956415,0
1711685744867,1711685743730,1957654,0
1711685744867,1711685743771,1958922,0
1711685744867,1711685743811,1960010,0
1711685744867,1711685743851,1958509,0
1711685744867,1711685743891,1955613,0
1711685744867,1711685743931,1953600,0
1711685744867,1711685743971,1952893,0
1711685744867,1711685744011,1952812,0
1711685744867,1711685744051,1953141,0
1711685744867,1711685744091,1953861,0
1711685744867,1711685744131,1954048,0
1711685744867,1711685744172,1953722,0
1711685744867,1711685744211,1953569,0
1711685744867,1711685744251,1953894,0
1711685744867,1711685744292,1954613,0
1711685744867,1711685744331,1955765,0
1711685744867,1711685744372,1956881,0
1711685744867,1711685744412,1958145,0
1711685744867,1711685744452,1959285,0
1711685744867,1711685744492,1960508,0
1711685744867,1711685744532,1961869,0
1711685744867,1711685744573,1962919,0
1711685744867,1711685744612,1961747,0
1711685744867,1711685744652,1958776,0
1711685744867,1711685744692,1956883,0
1711685744867,1711685744732,1956183,0
1711685744867,1711685744773,1956300,0
1711685756895,1711685744812,1956874,0
1711685756895,1711685744853,1957643,0
1711685756895,1711685744893,1957855,0
1711685756895,1711685744933,1957612,0
1711685756895,1711685744974,1957409,0
1711685756895,1711685745013,1957638,0
1711685756895,1711685745053,1958359,0
1711685756895,1711685745093,1959132,0
1711685756895,1711685745133,1960550,0
1711685756895,1711685745174,1961657,0
1711685756895,1711685745213,1962860,0
1711685756895,1711685745254,1964092,0
1711685756895,1711685745294,1965273,0
1711685756895,1711685745334,1965790,0
1711685756895,1711685745374,1963378,0
1711685756895,1711685745414,1960947,0
1711685756895,1711685745454,1959682,0
1711685756895,1711685745494,1959357,0
1711685756895,1711685745534,1959932,0
1711685756895,1711685745575,1960857,0
1711685756895,1711685745614,1961503,0
1711685756895,1711685745654,1961462,0
1711685756895,1711685745695,1961108,0
1711685756895,1711685745735,1961054,0
1711685756895,1711685745775,1961541,0
1711685756895,1711685745815,1962297,0
1711685756895,1711685745855,1963564,0
1711685756895,1711685745895,1964571,0
1711685756895,1711685745935,1965887,0
1711685756895,1711685745976,1967069,0
1711685756895,1711685746015,1968339,0
1711685756895,1711685746055,1968055,0
1711685756895,1711685746096,1965416,0
1711685756895,1711685746136,1962672,0
1711685756895,1711685746176,1961387,0
1711685756895,1711685746216,1960987,0
1711685756895,1711685746256,1961444,0
1711685756895,1711685746296,1962304,0
1711685756895,1711685746336,1962810,0
1711685756895,1711685746377,1962501,0
1711685756895,1711685746416,1962237,0
1711685756895,1711685746457,1962341,0
1711685756895,1711685746497,1962558,0
1711685756895,1711685746537,1963570,0
1711685756895,1711685746578,1964718,0
1711685756895,1711685746617,1965911,0
1711685756895,1711685746657,1967109,0
1711685756895,1711685746697,1968475,0
1711685756895,1711685746737,1969646,0
1711685756895,1711685746778,1969552,0
1711685756895,1711685746818,1966454,0
1711685756895,1711685746858,1963618,0
1711685756895,1711685746898,1962075,0
1711685756895,1711685746938,1961660,0
1711685756895,1711685746979,1961826,0
1711685756895,1711685747018,1962382,0
1711685756895,1711685747058,1962755,0
1711685756895,1711685747098,1962413,0
1711685756895,1711685747138,1961978,0
1711685756895,1711685747179,1961863,0
1711685756895,1711685747219,1962171,0
1711685756895,1711685747259,1963001,0
1711685756895,1711685747299,1963959,0
1711685756895,1711685747339,1965278,0
1711685756895,1711685747380,1966564,0
1711685756895,1711685747419,1967480,0
1711685756895,1711685747459,1968765,0
1711685756895,1711685747500,1969408,0
1711685756895,1711685747540,1966895,0
1711685756895,1711685747580,1963713,0
1711685756895,1711685747620,1961695,0
1711685756895,1711685747660,1961089,0
1711685756895,1711685747700,1961034,0
1711685756895,1711685747740,1961485,0
1711685756895,1711685747781,1961894,0
1711685756895,1711685747820,1961789,0
1711685756895,1711685747860,1961142,0
1711685756895,1711685747901,1960853,0
1711685756895,1711685747941,1961020,0
1711685756895,1711685747981,1961689,0
1711685756895,1711685748021,1962669,0
1711685756895,1711685748061,1963736,0
1711685756895,1711685748101,1964862,0
1711685756895,1711685748141,1965858,0
1711685756895,1711685748182,1966992,0
1711685756895,1711685748221,1968220,0
1711685756895,1711685748262,1966892,0
1711685756895,1711685748302,1963758,0
1711685756895,1711685748342,1961406,0
1711685756895,1711685748383,1960337,0
1711685756895,1711685748422,1960213,0
1711685756895,1711685748462,1960461,0
1711685756895,1711685748502,1961071,0
1711685756895,1711685748542,1961240,0
1711685756895,1711685748583,1960655,0
1711685756895,1711685748623,1960227,0
1711685756895,1711685748663,1960268,0
1711685756895,1711685748703,1960700,0
1711685756895,1711685748743,1961451,0
1711685756895,1711685748784,1962463,0
1711685756895,1711685748823,1963360,0
1711685756895,1711685748863,1964408,0
1711685756895,1711685748903,1965599,0
1711685756895,1711685748944,1966518,0
1711685756895,1711685748985,1967155,0
1711685756895,1711685749024,1964895,0
1711685756895,1711685749064,1962087,0
1711685756895,1711685749104,1960521,0
1711685756895,1711685749144,1960133,0
1711685756895,1711685749185,1960518,0
1711685756895,1711685749225,1961327,0
1711685756895,1711685749265,1962002,0
1711685756895,1711685749305,1961804,0
1711685756895,1711685749345,1961126,0
1711685756895,1711685749386,1961107,0
1711685756895,1711685749425,1961378,0
1711685756895,1711685749465,1962113,0
1711685756895,1711685749505,1963071,0
1711685756895,1711685749546,1964238,0
1711685756895,1711685749587,1965353,0
1711685756895,1711685749626,1966331,0
1711685756895,1711685749666,1967454,0
1711685756895,1711685749706,1968084,0
1711685756895,1711685749746,1966003,0
1711685756895,1711685749787,1963503,0
1711685756895,1711685749827,1962133,0
1711685756895,1711685749867,1961728,0
1711685756895,1711685749907,1962164,0
1711685756895,1711685749947,1963161,0
1711685756895,1711685749988,1963656,0
1711685756895,1711685750027,1963783,0
1711685756895,1711685750067,1963579,0
1711685756895,1711685750107,1963509,0
1711685756895,1711685750148,1964163,0
1711685756895,1711685750188,1966110,0
1711685756895,1711685750228,1967290,0
1711685756895,1711685750268,1968524,0
1711685756895,1711685750308,1969825,0
1711685756895,1711685750348,1971186,0
1711685756895,1711685750389,1971545,0
1711685756895,1711685750428,1969033,0
1711685756895,1711685750468,1966657,0
1711685756895,1711685750508,1965462,0
1711685756895,1711685750548,1965059,0
1711685756895,1711685750589,1965246,0
1711685756895,1711685750628,1965670,0
1711685756895,1711685750668,1966287,0
1711685756895,1711685750708,1965931,0
1711685756895,1711685750748,1965685,0
1711685756895,1711685750789,1965545,0
1711685756895,1711685750829,1965793,0
1711685756895,1711685750869,1966387,0
1711685756895,1711685750909,1967154,0
1711685756895,1711685750949,1968134,0
1711685756895,1711685750990,1968978,0
1711685756895,1711685751029,1970132,0
1711685756895,1711685751069,1970828,0
1711685756895,1711685751109,1969054,0
1711685756895,1711685751150,1965858,0
1711685756895,1711685751190,1963798,0
1711685756895,1711685751230,1963059,0
1711685756895,1711685751270,1962806,0
1711685756895,1711685751310,1963386,0
1711685756895,1711685751350,1963722,0
1711685756895,1711685751391,1963620,0
1711685756895,1711685751430,1963131,0
1711685756895,1711685751470,1962659,0
1711685756895,1711685751510,1962798,0
1711685756895,1711685751550,1963236,0
1711685756895,1711685751591,1964164,0
1711685756895,1711685751631,1965116,0
1711685756895,1711685751671,1966028,0
1711685756895,1711685751711,1967143,0
1711685756895,1711685751751,1968212,0
1711685756895,1711685751792,1967867,0
1711685756895,1711685751831,1964894,0
1711685756895,1711685751871,1962003,0
1711685756895,1711685751911,1960587,0
1711685756895,1711685751951,1960134,0
1711685756895,1711685751992,1959975,0
1711685756895,1711685752031,1960211,0
1711685756895,1711685752072,1960348,0
1711685756895,1711685752112,1960038,0
1711685756895,1711685752152,1959479,0
1711685756895,1711685752192,1959337,0
1711685756895,1711685752232,1959536,0
1711685756895,1711685752272,1960123,0
1711685756895,1711685752312,1960959,0
1711685756895,1711685752352,1961769,0
1711685756895,1711685752393,1962837,0
1711685756895,1711685752432,1963825,0
1711685756895,1711685752472,1964816,0
1711685756895,1711685752512,1965116,0
1711685756895,1711685752553,1962696,0
1711685756895,1711685752593,1959742,0
1711685756895,1711685752633,1958189,0
1711685756895,1711685752673,1957595,0
1711685756895,1711685752713,1957477,0
1711685756895,1711685752753,1957567,0
1711685756895,1711685752794,1957750,0
1711685756895,1711685752833,1957520,0
1711685756895,1711685752873,1957171,0
1711685756895,1711685752913,1956958,0
1711685756895,1711685752954,1957368,0
1711685756895,1711685752994,1958084,0
1711685756895,1711685753034,1959089,0
1711685756895,1711685753074,1960185,0
1711685756895,1711685753114,1961318,0
1711685756895,1711685753154,1962324,0
1711685756895,1711685753195,1963466,0
1711685756895,1711685753234,1964468,0
1711685756895,1711685753274,1963223,0
1711685756895,1711685753314,1960395,0
1711685756895,1711685753354,1958398,0
1711685756895,1711685753395,1957613,0
1711685756895,1711685753435,1957577,0
1711685756895,1711685753475,1957768,0
1711685756895,1711685753515,1958304,0
1711685756895,1711685753555,1958411,0
1711685756895,1711685753596,1957974,0
1711685756895,1711685753635,1957659,0
1711685756895,1711685753675,1958052,0
1711685756895,1711685753715,1958783,0
1711685756895,1711685753756,1959702,0
1711685756895,1711685753796,1960632,0
1711685756895,1711685753836,1961806,0
1711685756895,1711685753876,1962876,0
1711685756895,1711685753916,1964081,0
1711685756895,1711685753956,1965322,0
1711685756895,1711685753997,1965075,0
1711685756895,1711685754036,1962745,0
1711685756895,1711685754076,1960547,0
1711685756895,1711685754116,1959572,0
1711685756895,1711685754157,1959418,0
1711685756895,1711685754197,1959917,0
1711685756895,1711685754237,1960681,0
1711685756895,1711685754277,1960916,0
1711685756895,1711685754317,1960850,0
1711685756895,1711685754357,1960563,0
1711685756895,1711685754398,1960761,0
1711685756895,1711685754437,1961613,0
1711685756895,1711685754477,1962586,0
1711685756895,1711685754517,1963898,0
1711685756895,1711685754557,1965001,0
1711685756895,1711685754598,1966219,0
1711685756895,1711685754638,1967609,0
1711685756895,1711685754678,1968704,0
1711685756895,1711685754718,1968729,0
1711685756895,1711685754758,1966112,0
1711685756895,1711685754799,1963927,0
1711685756895,1711685754838,1962665,0
1711685756895,1711685754879,1962585,0
1711685756895,1711685754918,1962784,0
1711685756895,1711685754959,1963414,0
1711685756895,1711685754999,1963797,0
1711685756895,1711685755039,1963568,0
1711685756895,1711685755079,1963257,0
1711685756895,1711685755119,1963515,0
1711685756895,1711685755159,1964120,0
1711685756895,1711685755200,1964855,0
1711685756895,1711685755239,1966110,0
1711685756895,1711685755279,1967078,0
1711685756895,1711685755319,1968287,0
1711685756895,1711685755360,1969410,0
1711685756895,1711685755400,1970597,0
1711685756895,1711685755440,1971567,0
1711685756895,1711685755480,1969983,0
1711685756895,1711685755520,1967168,0
1711685756895,1711685755560,1965365,0
1711685756895,1711685755601,1964555,0
1711685756895,1711685755640,1964358,0
1711685756895,1711685755680,1964628,0
1711685756895,1711685755721,1965130,0
1711685756895,1711685755761,1965151,0
1711685756895,1711685755801,1964625,0
1711685756895,1711685755841,1964452,0
1711685756895,1711685755881,1964927,0
1711685756895,1711685755921,1965554,0
1711685756895,1711685755961,1966633,0
1711685756895,1711685756002,1967627,0
1711685756895,1711685756041,1968857,0
1711685756895,1711685756082,1969943,0
1711685756895,1711685756122,1971038,0
1711685756895,1711685756162,1972451,0
1711685756895,1711685756203,1973238,0
1711685756895,1711685756242,1971249,0
1711685756895,1711685756282,1968602,0
1711685756895,1711685756322,1967214,0
1711685756895,1711685756362,1966757,0
1711685756895,1711685756403,1966914,0
1711685756895,1711685756443,1967369,0
1711685756895,1711685756483,1967906,0
1711685756895,1711685756523,1968081,0
1711685756895,1711685756563,1967672,0
1711685756895,1711685756604,1967794,0
1711685756895,1711685756643,1968184,0
1711685756895,1711685756683,1968945,0
1711685756895,1711685756723,1969958,0
1711685756895,1711685756763,1971160,0
1711685756895,1711685756804,1972334,0
1711685768933,1711685756844,1973575,0
1711685768933,1711685756884,1974655,0
1711685768933,1711685756924,1975802,0
1711685768933,1711685756964,1976997,0
1711685768933,1711685757005,1976640,0
1711685768933,1711685757045,1974182,0
1711685768933,1711685757084,1972300,0
1711685768933,1711685757125,1971687,0
1711685768933,1711685757165,1971827,0
1711685768933,1711685757206,1972490,0
1711685768933,1711685757245,1973427,0
1711685768933,1711685757285,1973911,0
1711685768933,1711685757325,1973526,0
1711685768933,1711685757365,1973569,0
1711685768933,1711685757406,1973810,0
1711685768933,1711685757446,1974481,0
1711685768933,1711685757486,1975556,0
1711685768933,1711685757526,1976764,0
1711685768933,1711685757566,1978116,0
1711685768933,1711685757607,1979234,0
1711685768933,1711685757646,1980369,0
1711685768933,1711685757686,1981790,0
1711685768933,1711685757726,1982806,0
1711685768933,1711685757767,1981591,0
1711685768933,1711685757807,1979484,0
1711685768933,1711685757847,1978228,0
1711685768933,1711685757887,1977938,0
1711685768933,1711685757927,1978334,0
1711685768933,1711685757967,1979342,0
1711685768933,1711685758008,1980321,0
1711685768933,1711685758047,1980577,0
1711685768933,1711685758087,1980618,0
1711685768933,1711685758127,1980446,0
1711685768933,1711685758167,1980899,0
1711685768933,1711685758208,1981692,0
1711685768933,1711685758248,1982784,0
1711685768933,1711685758288,1984015,0
1711685768933,1711685758328,1985188,0
1711685768933,1711685758368,1986497,0
1711685768933,1711685758409,1987681,0
1711685768933,1711685758448,1988811,0
1711685768933,1711685758488,1988351,0
1711685768933,1711685758528,1985693,0
1711685768933,1711685758568,1983776,0
1711685768933,1711685758609,1982898,0
1711685768933,1711685758648,1982796,0
1711685768933,1711685758688,1983240,0
1711685768933,1711685758729,1983993,0
1711685768933,1711685758769,1984453,0
1711685768933,1711685758809,1984095,0
1711685768933,1711685758849,1983805,0
1711685768933,1711685758889,1983766,0
1711685768933,1711685758929,1984207,0
1711685768933,1711685758969,1984917,0
1711685768933,1711685759010,1986034,0
1711685768933,1711685759049,1986922,0
1711685768933,1711685759089,1988027,0
1711685768933,1711685759129,1988972,0
1711685768933,1711685759170,1990144,0
1711685768933,1711685759210,1990519,0
1711685768933,1711685759250,1988129,0
1711685768933,1711685759290,1985438,0
1711685768933,1711685759330,1983705,0
1711685768933,1711685759370,1983002,0
1711685768933,1711685759411,1983161,0
1711685768933,1711685759450,1983570,0
1711685768933,1711685759490,1984006,0
1711685768933,1711685759530,1983768,0
1711685768933,1711685759571,1983331,0
1711685768933,1711685759611,1982999,0
1711685768933,1711685759651,1983078,0
1711685768933,1711685759691,1983670,0
1711685768933,1711685759731,1984325,0
1711685768933,1711685759771,1985292,0
1711685768933,1711685759812,1986263,0
1711685768933,1711685759851,1987165,0
1711685768933,1711685759891,1988247,0
1711685768933,1711685759932,1989167,0
1711685768933,1711685759972,1988412,0
1711685768933,1711685760012,1985401,0
1711685768933,1711685760052,1983032,0
1711685768933,1711685760092,1981882,0
1711685768933,1711685760132,1981415,0
1711685768933,1711685760172,1981658,0
1711685768933,1711685760213,1982182,0
1711685768933,1711685760252,1982334,0
1711685768933,1711685760292,1981957,0
1711685768933,1711685760332,1981242,0
1711685768933,1711685760373,1981048,0
1711685768933,1711685760413,1981571,0
1711685768933,1711685760453,1982117,0
1711685768933,1711685760493,1983021,0
1711685768933,1711685760533,1983936,0
1711685768933,1711685760573,1984948,0
1711685768933,1711685760614,1985918,0
1711685768933,1711685760653,1986837,0
1711685768933,1711685760693,1987423,0
1711685768933,1711685760733,1985057,0
1711685768933,1711685760774,1982237,0
1711685768933,1711685760814,1980497,0
1711685768933,1711685760854,1979632,0
1711685768933,1711685760894,1979710,0
1711685768933,1711685760934,1980269,0
1711685768933,1711685760974,1980663,0
1711685768933,1711685761015,1980367,0
1711685768933,1711685761054,1979666,0
1711685768933,1711685761094,1979012,0
1711685768933,1711685761135,1979121,0
1711685768933,1711685761175,1979421,0
1711685768933,1711685761215,1980255,0
1711685768933,1711685761255,1980942,0
1711685768933,1711685761295,1981891,0
1711685768933,1711685761335,1982599,0
1711685768933,1711685761375,1983597,0
1711685768933,1711685761416,1983745,0
1711685768933,1711685761455,1981036,0
1711685768933,1711685761496,1978071,0
1711685768933,1711685761536,1976176,0
1711685768933,1711685761576,1975320,0
1711685768933,1711685761617,1975189,0
1711685768933,1711685761656,1975689,0
1711685768933,1711685761696,1975872,0
1711685768933,1711685761736,1975304,0
1711685768933,1711685761776,1974314,0
1711685768933,1711685761817,1973787,0
1711685768933,1711685761857,1973605,0
1711685768933,1711685761897,1973980,0
1711685768933,1711685761937,1974625,0
1711685768933,1711685761977,1975348,0
1711685768933,1711685762018,1976047,0
1711685768933,1711685762057,1976787,0
1711685768933,1711685762097,1977415,0
1711685768933,1711685762137,1975603,0
1711685768933,1711685762177,1971691,0
1711685768933,1711685762218,1968384,0
1711685768933,1711685762258,1966660,0
1711685768933,1711685762298,1965673,0
1711685768933,1711685762338,1965266,0
1711685768933,1711685762378,1965433,0
1711685768933,1711685762419,1964849,0
1711685768933,1711685762458,1963594,0
1711685768933,1711685762498,1962460,0
1711685768933,1711685762538,1962001,0
1711685768933,1711685762579,1961810,0
1711685768933,1711685762619,1962184,0
1711685768933,1711685762659,1962787,0
1711685768933,1711685762699,1963298,0
1711685768933,1711685762739,1964047,0
1711685768933,1711685762779,1964705,0
1711685768933,1711685762820,1964826,0
1711685768933,1711685762859,1961198,0
1711685768933,1711685762899,1956788,0
1711685768933,1711685762940,1953661,0
1711685768933,1711685762980,1951852,0
1711685768933,1711685763020,1950855,0
1711685768933,1711685763060,1950325,0
1711685768933,1711685763100,1950074,0
1711685768933,1711685763140,1948806,0
1711685768933,1711685763180,1947327,0
1711685768933,1711685763221,1946377,0
1711685768933,1711685763260,1945815,0
1711685768933,1711685763301,1945789,0
1711685768933,1711685763341,1946277,0
1711685768933,1711685763381,1946779,0
1711685768933,1711685763422,1947415,0
1711685768933,1711685763461,1948039,0
1711685768933,1711685763501,1948640,0
1711685768933,1711685763541,1948711,0
1711685768933,1711685763581,1945180,0
1711685768933,1711685763622,1940749,0
1711685768933,1711685763662,1937550,0
1711685768933,1711685763702,1935887,0
1711685768933,1711685763742,1934887,0
1711685768933,1711685763782,1934301,0
1711685768933,1711685763823,1933998,0
1711685768933,1711685763862,1933002,0
1711685768933,1711685763903,1931717,0
1711685768933,1711685763943,1930694,0
1711685768933,1711685763983,1930428,0
1711685768933,1711685764024,1930499,0
1711685768933,1711685764063,1931093,0
1711685768933,1711685764103,1931776,0
1711685768933,1711685764143,1932474,0
1711685768933,1711685764183,1933332,0
1711685768933,1711685764224,1934088,0
1711685768933,1711685764264,1935165,0
1711685768933,1711685764304,1933168,0
1711685768933,1711685764344,1929049,0
1711685768933,1711685764384,1925722,0
1711685768933,1711685764425,1923956,0
1711685768933,1711685764464,1922907,0
1711685768933,1711685764504,1922671,0
1711685768933,1711685764544,1922675,0
1711685768933,1711685764584,1922150,0
1711685768933,1711685764625,1920994,0
1711685768933,1711685764665,1919978,0
1711685768933,1711685764705,1919754,0
1711685768933,1711685764745,1919921,0
1711685768933,1711685764785,1920296,0
1711685768933,1711685764826,1921262,0
1711685768933,1711685764866,1922045,0
1711685768933,1711685764906,1922808,0
1711685768933,1711685764946,1923647,0
1711685768933,1711685764986,1924667,0
1711685768933,1711685765029,1925082,0
1711685768933,1711685765066,1919671,0
1711685768933,1711685765106,1917483,0
1711685768933,1711685765146,1916765,0
1711685768933,1711685765186,1916728,0
1711685768933,1711685765227,1917429,0
1711685768933,1711685765266,1917774,0
1711685768933,1711685765307,1917829,0
1711685768933,1711685765347,1917291,0
1711685768933,1711685765387,1917344,0
1711685768933,1711685765428,1917725,0
1711685768933,1711685765467,1918770,0
1711685768933,1711685765507,1920030,0
1711685768933,1711685765547,1921370,0
1711685768933,1711685765587,1922626,0
1711685768933,1711685765628,1924133,0
1711685768933,1711685765667,1925630,0
1711685768933,1711685765707,1926856,0
1711685768933,1711685765747,1925245,0
1711685768933,1711685765787,1922751,0
1711685768933,1711685765828,1921179,0
1711685768933,1711685765868,1920877,0
1711685768933,1711685765908,1921113,0
1711685768933,1711685765948,1921909,0
1711685768933,1711685765988,1922773,0
1711685768933,1711685766029,1922845,0
1711685768933,1711685766068,1922627,0
1711685768933,1711685766108,1922642,0
1711685768933,1711685766148,1923310,0
1711685768933,1711685766189,1924149,0
1711685768933,1711685766229,1925602,0
1711685768933,1711685766269,1927036,0
1711685768933,1711685766309,1928585,0
1711685768933,1711685766349,1930224,0
1711685768933,1711685766389,1931970,0
1711685768933,1711685766430,1932970,0
1711685768933,1711685766469,1931153,0
1711685768933,1711685766509,1928695,0
1711685768933,1711685766549,1927503,0
1711685768933,1711685766589,1927424,0
1711685768933,1711685766630,1927925,0
1711685768933,1711685766670,1928933,0
1711685768933,1711685766710,1929896,0
1711685768933,1711685766750,1930397,0
1711685768933,1711685766790,1930419,0
1711685768933,1711685766831,1930973,0
1711685768933,1711685766870,1931890,0
1711685768933,1711685766910,1933107,0
1711685768933,1711685766950,1934521,0
1711685768933,1711685766990,1935931,0
1711685768933,1711685767031,1937400,0
1711685768933,1711685767070,1938581,0
1711685768933,1711685767111,1939746,0
1711685768933,1711685767151,1940475,0
1711685768933,1711685767191,1939453,0
1711685768933,1711685767234,1935421,0
1711685768933,1711685767271,1933714,0
1711685768933,1711685767311,1932679,0
1711685768933,1711685767351,1932404,0
1711685768933,1711685767392,1932738,0
1711685768933,1711685767432,1934366,0
1711685768933,1711685767472,1935940,0
1711685768933,1711685767512,1937654,0
1711685768933,1711685767552,1939958,0
1711685768933,1711685767592,1943200,0
1711685768933,1711685767633,1946377,0
1711685768933,1711685767672,1949432,0
1711685768933,1711685767712,1951858,0
1711685768933,1711685767753,1953864,0
1711685768933,1711685767793,1955292,0
1711685768933,1711685767833,1956342,0
1711685768933,1711685767873,1958027,0
1711685768933,1711685767913,1959833,0
1711685768933,1711685767953,1960190,0
1711685768933,1711685767993,1958093,0
1711685768933,1711685768034,1957535,0
1711685768933,1711685768073,1958211,0
1711685768933,1711685768113,1960117,0
1711685768933,1711685768153,1960992,0
1711685768933,1711685768194,1962962,0
1711685768933,1711685768235,1964155,0
1711685768933,1711685768274,1964262,0
1711685768933,1711685768314,1964490,0
1711685768933,1711685768354,1964144,0
1711685768933,1711685768394,1964625,0
1711685768933,1711685768435,1965751,0
1711685768933,1711685768474,1967530,0
1711685768933,1711685768514,1969446,0
1711685768933,1711685768555,1970972,0
1711685768933,1711685768595,1972402,0
1711685768933,1711685768635,1974109,0
1711685768933,1711685768675,1976339,0
1711685768933,1711685768715,1977936,0
1711685768933,1711685768755,1977880,0
1711685768933,1711685768795,1977608,0
1711685768933,1711685768836,1978022,0
1711685780959,1711685768911,1979348,0
1711685780959,1711685768951,1981101,0
1711685780959,1711685768992,1982867,0
1711685780959,1711685769032,1983756,0
1711685780959,1711685769072,1984007,0
1711685780959,1711685769112,1984123,0
1711685780959,1711685769152,1984308,0
1711685780959,1711685769192,1985028,0
1711685780959,1711685769232,1985832,0
1711685780959,1711685769273,1986901,0
1711685780959,1711685769312,1988084,0
1711685780959,1711685769353,1989029,0
1711685780959,1711685769393,1989648,0
1711685780959,1711685769433,1990584,0
1711685780959,1711685769474,1991326,0
1711685780959,1711685769513,1990971,0
1711685780959,1711685769553,1988120,0
1711685780959,1711685769593,1985001,0
1711685780959,1711685769633,1982970,0
1711685780959,1711685769674,1982466,0
1711685780959,1711685769714,1982544,0
1711685780959,1711685769754,1983003,0
1711685780959,1711685769794,1983155,0
1711685780959,1711685769834,1982606,0
1711685780959,1711685769875,1981577,0
1711685780959,1711685769914,1981121,0
1711685780959,1711685769954,1980512,0
1711685780959,1711685769994,1980338,0
1711685780959,1711685770034,1980368,0
1711685780959,1711685770075,1980513,0
1711685780959,1711685770115,1980822,0
1711685780959,1711685770155,1981261,0
1711685780959,1711685770195,1981710,0
1711685780959,1711685770235,1981442,0
1711685780959,1711685770276,1977990,0
1711685780959,1711685770315,1974202,0
1711685780959,1711685770355,1971393,0
1711685780959,1711685770395,1969817,0
1711685780959,1711685770436,1969234,0
1711685780959,1711685770476,1969115,0
1711685780959,1711685770516,1968941,0
1711685780959,1711685770556,1967977,0
1711685780959,1711685770596,1966730,0
1711685780959,1711685770636,1965573,0
1711685780959,1711685770677,1965180,0
1711685780959,1711685770716,1964969,0
1711685780959,1711685770756,1964966,0
1711685780959,1711685770797,1965033,0
1711685780959,1711685770836,1965189,0
1711685780959,1711685770877,1965231,0
1711685780959,1711685770917,1965331,0
1711685780959,1711685770957,1963470,0
1711685780959,1711685770997,1958255,0
1711685780959,1711685771037,1952743,0
1711685780959,1711685771078,1948360,0
1711685780959,1711685771117,1945613,0
1711685780959,1711685771158,1943760,0
1711685780959,1711685771198,1942694,0
1711685780959,1711685771238,1941610,0
1711685780959,1711685771279,1939487,0
1711685780959,1711685771318,1937218,0
1711685780959,1711685771358,1935388,0
1711685780959,1711685771398,1934196,0
1711685780959,1711685771438,1933565,0
1711685780959,1711685771479,1933296,0
1711685780959,1711685771519,1933503,0
1711685780959,1711685771559,1933507,0
1711685780959,1711685771599,1933574,0
1711685780959,1711685771639,1933500,0
1711685780959,1711685771680,1931190,0
1711685780959,1711685771719,1926073,0
1711685780959,1711685771759,1920992,0
1711685780959,1711685771799,1917448,0
1711685780959,1711685771840,1915467,0
1711685780959,1711685771881,1914180,0
1711685780959,1711685771920,1913520,0
1711685780959,1711685771960,1912452,0
1711685780959,1711685772000,1910503,0
1711685780959,1711685772040,1908548,0
1711685780959,1711685772081,1906982,0
1711685780959,1711685772121,1906254,0
1711685780959,1711685772161,1905913,0
1711685780959,1711685772201,1906099,0
1711685780959,1711685772241,1906227,0
1711685780959,1711685772282,1906512,0
1711685780959,1711685772321,1907051,0
1711685780959,1711685772361,1907355,0
1711685780959,1711685772401,1905169,0
1711685780959,1711685772441,1900443,0
1711685780959,1711685772482,1896062,0
1711685780959,1711685772522,1893416,0
1711685780959,1711685772562,1891961,0
1711685780959,1711685772602,1891279,0
1711685780959,1711685772642,1891030,0
1711685780959,1711685772683,1890198,0
1711685780959,1711685772722,1888736,0
1711685780959,1711685772762,1887135,0
1711685780959,1711685772802,1886082,0
1711685780959,1711685772842,1885746,0
1711685780959,1711685772883,1885768,0
1711685780959,1711685772922,1886153,0
1711685780959,1711685772962,1886384,0
1711685780959,1711685773002,1886924,0
1711685780959,1711685773043,1887279,0
1711685780959,1711685773083,1887682,0
1711685780959,1711685773123,1885218,0
1711685780959,1711685773163,1881234,0
1711685780959,1711685773203,1877719,0
1711685780959,1711685773243,1875608,0
1711685780959,1711685773284,1874755,0
1711685780959,1711685773323,1874602,0
1711685780959,1711685773363,1874832,0
1711685780959,1711685773404,1874195,0
1711685780959,1711685773444,1872852,0
1711685780959,1711685773484,1871567,0
1711685780959,1711685773524,1870831,0
1711685780959,1711685773564,1870765,0
1711685780959,1711685773604,1871086,0
1711685780959,1711685773644,1871541,0
1711685780959,1711685773685,1872276,0
1711685780959,1711685773724,1873123,0
1711685780959,1711685773764,1873896,0
1711685780959,1711685773805,1873651,0
1711685780959,1711685773844,1870782,0
1711685780959,1711685773885,1867479,0
1711685780959,1711685773925,1865164,0
1711685780959,1711685773965,1864467,0
1711685780959,1711685774005,1864588,0
1711685780959,1711685774045,1865553,0
1711685780959,1711685774086,1866231,0
1711685780959,1711685774125,1866236,0
1711685780959,1711685774165,1865963,0
1711685780959,1711685774205,1865870,0
1711685780959,1711685774245,1866445,0
1711685780959,1711685774286,1867457,0
1711685780959,1711685774326,1868781,0
1711685780959,1711685774366,1870398,0
1711685780959,1711685774406,1871875,0
1711685780959,1711685774446,1873325,0
1711685780959,1711685774487,1874261,0
1711685780959,1711685774526,1872122,0
1711685780959,1711685774566,1869131,0
1711685780959,1711685774606,1866872,0
1711685780959,1711685774647,1865897,0
1711685780959,1711685774687,1866018,0
1711685780959,1711685774727,1866920,0
1711685780959,1711685774767,1867642,0
1711685780959,1711685774807,1867931,0
1711685780959,1711685774847,1867779,0
1711685780959,1711685774888,1867981,0
1711685780959,1711685774927,1868506,0
1711685780959,1711685774967,1869477,0
1711685780959,1711685775007,1870798,0
1711685780959,1711685775047,1872305,0
1711685780959,1711685775088,1873651,0
1711685780959,1711685775128,1875162,0
1711685780959,1711685775168,1876580,0
