dataReceived,timestamp,ppg,status
1711437352342,1711437340286,2097152,0
1711437352342,1711437340327,2097152,0
1711437352342,1711437340369,2462981,0
1711437352342,1711437340408,2462958,0
1711437352342,1711437340447,2462983,0
1711437352342,1711437340487,2463060,0
1711437352342,1711437340527,2463073,0
1711437352342,1711437340567,2463132,0
1711437352342,1711437340608,2463241,0
1711437352342,1711437340648,2463239,0
1711437352342,1711437340688,2463346,0
1711437352342,1711437340728,2132297,0
1711437352342,1711437340768,2132383,0
1711437352342,1711437340809,2132406,0
1711437352342,1711437340848,2132463,0
1711437352342,1711437340889,2132561,0
1711437352342,1711437340929,2105390,0
1711437352342,1711437340969,2105464,0
1711437352342,1711437341010,2105599,0
1711437352342,1711437341049,2105668,0
1711437352342,1711437341089,2105788,0
1711437352342,1711437341130,2119623,0
1711437352342,1711437341170,2119890,0
1711437352342,1711437341211,2120570,0
1711437352342,1711437341250,2121165,0
1711437352342,1711437341290,2121502,0
1711437352342,1711437341330,2121585,0
1711437352342,1711437341370,2121832,0
1711437352342,1711437341411,2121984,0
1711437352342,1711437341451,2122454,0
1711437352342,1711437341491,2122791,0
1711437352342,1711437341531,2123330,0
1711437352342,1711437341571,2123528,0
1711437352342,1711437341612,2123873,0
1711437352342,1711437341651,2123840,0
1711437352342,1711437341691,2123744,0
1711437352342,1711437341731,2123327,0
1711437352342,1711437341771,2122631,0
1711437352342,1711437341812,2122678,0
1711437352342,1711437341852,2123297,0
1711437352342,1711437341892,2122827,0
1711437352342,1711437341932,2122247,0
1711437352342,1711437341972,2123854,0
1711437352342,1711437342013,2124440,0
1711437352342,1711437342052,2124423,0
1711437352342,1711437342092,2125404,0
1711437352342,1711437342132,2125668,0
1711437352342,1711437342172,2126002,0
1711437352342,1711437342214,2126109,0
1711437352342,1711437342253,2126561,0
1711437352342,1711437342293,2126763,0
1711437352342,1711437342333,2126901,0
1711437352342,1711437342373,2127702,0
1711437352342,1711437342414,2128991,0
1711437352342,1711437342453,2131502,0
1711437352342,1711437342493,2134736,0
1711437352342,1711437342533,2136351,0
1711437352342,1711437342576,2135847,0
1711437352342,1711437342615,2135662,0
1711437352342,1711437342654,2135537,0
1711437352342,1711437342694,2134687,0
1711437352342,1711437342734,2131617,0
1711437352342,1711437342774,2126796,0
1711437352342,1711437342815,2122787,0
1711437352342,1711437342854,2119795,0
1711437352342,1711437342894,2118746,0
1711437352342,1711437342935,2117413,0
1711437352342,1711437342974,2116215,0
1711437352342,1711437343016,2114972,0
1711437352342,1711437343055,2114600,0
1711437352342,1711437343095,2114495,0
1711437352342,1711437343135,2115792,0
1711437352342,1711437343175,2116575,0
1711437352342,1711437343216,2118299,0
1711437352342,1711437343255,2119783,0
1711437352342,1711437343296,2120532,0
1711437352342,1711437343336,2119615,0
1711437352342,1711437343376,2119789,0
1711437352342,1711437343417,2120215,0
1711437352342,1711437343456,2119435,0
1711437352342,1711437343496,2117441,0
1711437352342,1711437343536,2115504,0
1711437352342,1711437343576,2114126,0
1711437352342,1711437343617,2111621,0
1711437352342,1711437343656,2110413,0
1711437352342,1711437343697,2105722,0
1711437352342,1711437343737,2102510,0
1711437352342,1711437343777,2102861,0
1711437352342,1711437343818,2102532,0
1711437352342,1711437343857,2102238,0
1711437352342,1711437343897,2098958,0
1711437352342,1711437343937,2095825,0
1711437352342,1711437343977,2093845,0
1711437352342,1711437344018,2091563,0
1711437352342,1711437344058,2090962,0
1711437352342,1711437344098,2090581,0
1711437352342,1711437344138,2088317,0
1711437352342,1711437344178,2087240,0
1711437352342,1711437344219,2086549,0
1711437352342,1711437344258,2093016,0
1711437352342,1711437344298,2099987,0
1711437352342,1711437344338,2109624,0
1711437352342,1711437344379,2113772,0
1711437352342,1711437344419,2114794,0
1711437352342,1711437344459,2113536,0
1711437352342,1711437344499,2113325,0
1711437352342,1711437344539,2110590,0
1711437352342,1711437344579,2109176,0
1711437352342,1711437344620,2116269,0
1711437352342,1711437344659,2118660,0
1711437352342,1711437344699,2119818,0
1711437352342,1711437344740,2120949,0
1711437352342,1711437344782,2121212,0
1711437352342,1711437344820,2119522,0
1711437352342,1711437344860,2120213,0
1711437352342,1711437344900,2117073,0
1711437352342,1711437344940,2115730,0
1711437352342,1711437344980,2113856,0
1711437352342,1711437345021,2113888,0
1711437352342,1711437345060,2115826,0
1711437352342,1711437345101,2116565,0
1711437352342,1711437345141,2116388,0
1711437352342,1711437345181,2115657,0
1711437352342,1711437345222,2116652,0
1711437352342,1711437345261,2117461,0
1711437352342,1711437345301,2117112,0
1711437352342,1711437345341,2115868,0
1711437352342,1711437345381,2113154,0
1711437352342,1711437345422,2110565,0
1711437352342,1711437345462,2107874,0
1711437352342,1711437345502,2105355,0
1711437352342,1711437345542,2102479,0
1711437352342,1711437345582,2094642,0
1711437352342,1711437345623,2085986,0
1711437352342,1711437345662,2081231,0
1711437352342,1711437345703,2078234,0
1711437352342,1711437345743,2077461,0
1711437352342,1711437345783,2078047,0
1711437352342,1711437345824,2081208,0
1711437352342,1711437345863,2085274,0
1711437352342,1711437345903,2087169,0
1711437352342,1711437345943,2088560,0
1711437352342,1711437345983,2089763,0
1711437352342,1711437346024,2088544,0
1711437352342,1711437346064,2086871,0
1711437352342,1711437346104,2085074,0
1711437352342,1711437346144,2084039,0
1711437352342,1711437346184,2083901,0
1711437352342,1711437346225,2083820,0
1711437352342,1711437346264,2087346,0
1711437352342,1711437346305,2096382,0
1711437352342,1711437346345,2099435,0
1711437352342,1711437346385,2099487,0
1711437352342,1711437346426,2097007,0
1711437352342,1711437346465,2092561,0
1711437352342,1711437346505,2088989,0
1711437352342,1711437346545,2086516,0
1711437352342,1711437346585,2085910,0
1711437352342,1711437346626,2085971,0
1711437352342,1711437346666,2086416,0
1711437352342,1711437346706,2087272,0
1711437352342,1711437346746,2086812,0
1711437352342,1711437346786,2086762,0
1711437352342,1711437346827,2088245,0
1711437352342,1711437346866,2089537,0
1711437352342,1711437346907,2091712,0
1711437352342,1711437346947,2093191,0
1711437352342,1711437346987,2093660,0
1711437352342,1711437347028,2093533,0
1711437352342,1711437347067,2093105,0
1711437352342,1711437347107,2092967,0
1711437352342,1711437347148,2093152,0
1711437352342,1711437347188,2093720,0
1711437352342,1711437347229,2094372,0
1711437352342,1711437347268,2094955,0
1711437352342,1711437347308,2095319,0
1711437352342,1711437347349,2095613,0
1711437352342,1711437347389,2095797,0
1711437352342,1711437347430,2096101,0
1711437352342,1711437347469,2095172,0
1711437352342,1711437347510,2092450,0
1711437352342,1711437347550,2088401,0
1711437352342,1711437347590,2085897,0
1711437352342,1711437347632,2083745,0
1711437352342,1711437347671,2082366,0
1711437352342,1711437347711,2081644,0
1711437352342,1711437347752,2081566,0
1711437352342,1711437347792,2076478,0
1711437352342,1711437347833,2073223,0
1711437352342,1711437347873,2068159,0
1711437352342,1711437347913,2055847,0
1711437352342,1711437347953,2051016,0
1711437352342,1711437347993,2047983,0
1711437352342,1711437348034,2045536,0
1711437352342,1711437348074,2042929,0
1711437352342,1711437348114,2042154,0
1711437352342,1711437348154,2014454,0
1711437352342,1711437348194,1976865,0
1711437352342,1711437348235,1942839,0
1711437352342,1711437348275,1905267,0
1711437352342,1711437348315,1885143,0
1711437352342,1711437348355,1868309,0
1711437352342,1711437348395,1853245,0
1711437352342,1711437348436,1839560,0
1711437352342,1711437348476,1827543,0
1711437352342,1711437348516,1815594,0
1711437352342,1711437348556,1805493,0
1711437352342,1711437348597,1797699,0
1711437352342,1711437348637,1791901,0
1711437352342,1711437348677,1788443,0
1711437352342,1711437348717,1785123,0
1711437352342,1711437348757,1777985,0
1711437352342,1711437348797,1767717,0
1711437352342,1711437348838,1761872,0
1711437352342,1711437348878,1759377,0
1711437352342,1711437348918,1756619,0
1711437352342,1711437348958,1752352,0
1711437352342,1711437348999,1741924,0
1711437352342,1711437349040,1729726,0
1711437352342,1711437349079,1720979,0
1711437352342,1711437349119,1714610,0
1711437352342,1711437349160,1709481,0
1711437352342,1711437349200,1704827,0
1711437352342,1711437349241,1699297,0
1711437352342,1711437349280,1693608,0
1711437352342,1711437349321,1687158,0
1711437352342,1711437349361,1675894,0
1711437352342,1711437349401,1669536,0
1711437352342,1711437349442,1660728,0
1711437352342,1711437349482,1656185,0
1711437352342,1711437349522,1653933,0
1711437352342,1711437349562,1656820,0
1711437352342,1711437349602,1656119,0
1711437352342,1711437349643,1655406,0
1711437352342,1711437349683,1654990,0
1711437352342,1711437349723,1650846,0
1711437352342,1711437349763,1641014,0
1711437352342,1711437349804,1627529,0
1711437352342,1711437349845,1618332,0
1711437352342,1711437349884,1611988,0
1711437352342,1711437349925,1607931,0
1711437352342,1711437349965,1605497,0
1711437352342,1711437350005,1603601,0
1711437352342,1711437350046,1599121,0
1711437352342,1711437350085,1593031,0
1711437352342,1711437350126,1586832,0
1711437352342,1711437350166,1582868,0
1711437352342,1711437350206,1580008,0
1711437352342,1711437350247,1576663,0
1711437352342,1711437350287,1570351,0
1711437352342,1711437350327,1567904,0
1711437352342,1711437350368,1568175,0
1711437352342,1711437350408,1567861,0
1711437352342,1711437350449,1565874,0
1711437352342,1711437350488,1557800,0
1711437352342,1711437350529,1546512,0
1711437352342,1711437350569,1537895,0
1711437352342,1711437350609,1528340,0
1711437352342,1711437350650,1521464,0
1711437352342,1711437350689,1513547,0
1711437352342,1711437350730,1506171,0
1711437352342,1711437350770,1498595,0
1711437352342,1711437350810,1485303,0
1711437352342,1711437350851,1466269,0
1711437352342,1711437350891,1445053,0
1711437352342,1711437350931,1426268,0
1711437352342,1711437350971,1419657,0
1711437352342,1711437351011,1411363,0
1711437352342,1711437351052,1402835,0
1711437352342,1711437351092,1392872,0
1711437352342,1711437351132,1395199,0
1711437352342,1711437351172,1403727,0
1711437352342,1711437351212,1409901,0
1711437352342,1711437351253,1414571,0
1711437352342,1711437351292,1404830,0
1711437352342,1711437351333,1411043,0
1711437352342,1711437351373,1423150,0
1711437352342,1711437351413,1438450,0
1711437352342,1711437351454,1458805,0
1711437352342,1711437351494,1476935,0
1711437352342,1711437351533,1493462,0
1711437352342,1711437351574,1504763,0
1711437352342,1711437351614,1513309,0
1711437352342,1711437351655,1518382,0
1711437352342,1711437351694,1523698,0
1711437352342,1711437351734,1529366,0
1711437352342,1711437351774,1534997,0
1711437352342,1711437351814,1541794,0
1711437352342,1711437351856,1548775,0
1711437352342,1711437351895,1557259,0
1711437352342,1711437351935,1564887,0
1711437352342,1711437351975,1572910,0
1711437352342,1711437352015,1579836,0
1711437352342,1711437352056,1579658,0
1711437352342,1711437352095,1585357,0
1711437352342,1711437352135,1596139,0
1711437352342,1711437352176,1602409,0
1711437352342,1711437352216,1609263,0
1711437352342,1711437352257,1614765,0
1711437352342,1711437352296,1619175,0
1711437364386,1711437352333,1621801,0
1711437364386,1711437352373,1624107,0
1711437364386,1711437352413,1627268,0
1711437364386,1711437352455,1630654,0
1711437364386,1711437352494,1631972,0
1711437364386,1711437352534,1632045,0
1711437364386,1711437352574,1632129,0
1711437364386,1711437352614,1633120,0
1711437364386,1711437352655,1633947,0
1711437364386,1711437352695,1634108,0
1711437364386,1711437352734,1629997,0
1711437364386,1711437352775,1622749,0
1711437364386,1711437352815,1616198,0
1711437364386,1711437352856,1609673,0
1711437364386,1711437352895,1605162,0
1711437364386,1711437352935,1603275,0
1711437364386,1711437352975,1606456,0
1711437364386,1711437353015,1610963,0
1711437364386,1711437353057,1614821,0
1711437364386,1711437353096,1618444,0
1711437364386,1711437353136,1621068,0
1711437364386,1711437353176,1624570,0
1711437364386,1711437353216,1626378,0
1711437364386,1711437353257,1627001,0
1711437364386,1711437353296,1628303,0
1711437364386,1711437353336,1628606,0
1711437364386,1711437353377,1629743,0
1711437364386,1711437353417,1630702,0
1711437364386,1711437353458,1630631,0
1711437364386,1711437353497,1626019,0
1711437364386,1711437353537,1622308,0
1711437364386,1711437353577,1622279,0
1711437364386,1711437353617,1624453,0
1711437364386,1711437353659,1627731,0
1711437364386,1711437353698,1629571,0
1711437364386,1711437353738,1629652,0
1711437364386,1711437353778,1629449,0
1711437364386,1711437353818,1628909,0
1711437364386,1711437353859,1629056,0
1711437364386,1711437353899,1630145,0
1711437364386,1711437353939,1631053,0
1711437364386,1711437353979,1632375,0
1711437364386,1711437354019,1633876,0
1711437364386,1711437354060,1635743,0
1711437364386,1711437354099,1638790,0
1711437364386,1711437354139,1643209,0
1711437364386,1711437354179,1647756,0
1711437364386,1711437354219,1650021,0
1711437364386,1711437354261,1652064,0
1711437364386,1711437354300,1655678,0
1711437364386,1711437354340,1659632,0
1711437364386,1711437354380,1662855,0
1711437364386,1711437354420,1665267,0
1711437364386,1711437354461,1666375,0
1711437364386,1711437354501,1665717,0
1711437364386,1711437354541,1664754,0
1711437364386,1711437354581,1664137,0
1711437364386,1711437354621,1667137,0
1711437364386,1711437354662,1672159,0
1711437364386,1711437354701,1678867,0
1711437364386,1711437354741,1684971,0
1711437364386,1711437354781,1690873,0
1711437364386,1711437354822,1697429,0
1711437364386,1711437354863,1702666,0
1711437364386,1711437354902,1703759,0
1711437364386,1711437354942,1702578,0
1711437364386,1711437354982,1703246,0
1711437364386,1711437355022,1705409,0
1711437364386,1711437355063,1708325,0
1711437364386,1711437355103,1712766,0
1711437364386,1711437355143,1715598,0
1711437364386,1711437355183,1717463,0
1711437364386,1711437355223,1718924,0
1711437364386,1711437355264,1719579,0
1711437364386,1711437355303,1720864,0
1711437364386,1711437355344,1722664,0
1711437364386,1711437355384,1724312,0
1711437364386,1711437355424,1726523,0
1711437364386,1711437355465,1729009,0
1711437364386,1711437355504,1731201,0
1711437364386,1711437355544,1733510,0
1711437364386,1711437355585,1735799,0
1711437364386,1711437355625,1736027,0
1711437364386,1711437355666,1731698,0
1711437364386,1711437355705,1728536,0
1711437364386,1711437355745,1728300,0
1711437364386,1711437355785,1729162,0
1711437364386,1711437355826,1731101,0
1711437364386,1711437355867,1733484,0
1711437364386,1711437355906,1735406,0
1711437364386,1711437355946,1736736,0
1711437364386,1711437355986,1737601,0
1711437364386,1711437356026,1738789,0
1711437364386,1711437356067,1740771,0
1711437364386,1711437356107,1742825,0
1711437364386,1711437356147,1745038,0
1711437364386,1711437356187,1747081,0
1711437364386,1711437356227,1749018,0
1711437364386,1711437356268,1751039,0
1711437364386,1711437356307,1752866,0
1711437364386,1711437356347,1754917,0
1711437364386,1711437356387,1756538,0
1711437364386,1711437356427,1754856,0
1711437364386,1711437356468,1751897,0
1711437364386,1711437356507,1751062,0
1711437364386,1711437356548,1752036,0
1711437364386,1711437356588,1753883,0
1711437364386,1711437356628,1756201,0
1711437364386,1711437356669,1758487,0
1711437364386,1711437356708,1760340,0
1711437364386,1711437356748,1761381,0
1711437364386,1711437356788,1762953,0
1711437364386,1711437356828,1764501,0
1711437364386,1711437356869,1766435,0
1711437364386,1711437356908,1768085,0
1711437364386,1711437356948,1769784,0
1711437364386,1711437356989,1771172,0
1711437364386,1711437357029,1771984,0
1711437364386,1711437357070,1772674,0
1711437364386,1711437357109,1773749,0
1711437364386,1711437357149,1774652,0
1711437364386,1711437357189,1776724,0
1711437364386,1711437357229,1778725,0
1711437364386,1711437357270,1779409,0
1711437364386,1711437357310,1778223,0
1711437364386,1711437357350,1778732,0
1711437364386,1711437357390,1780452,0
1711437364386,1711437357430,1782273,0
1711437364386,1711437357471,1784662,0
1711437364386,1711437357510,1787503,0
1711437364386,1711437357550,1789982,0
1711437364386,1711437357590,1791694,0
1711437364386,1711437357630,1793858,0
1711437364386,1711437357671,1796480,0
1711437364386,1711437357710,1799049,0
1711437364386,1711437357751,1802011,0
1711437364386,1711437357791,1804776,0
1711437364386,1711437357831,1807485,0
1711437364386,1711437357872,1809991,0
1711437364386,1711437357911,1812009,0
1711437364386,1711437357951,1813658,0
1711437364386,1711437357991,1815018,0
1711437364386,1711437358031,1816502,0
1711437364386,1711437358072,1817253,0
1711437364386,1711437358112,1817631,0
1711437364386,1711437358152,1817450,0
1711437364386,1711437358192,1817817,0
1711437364386,1711437358232,1819390,0
1711437364386,1711437358273,1820594,0
1711437364386,1711437358312,1822503,0
1711437364386,1711437358352,1825010,0
1711437364386,1711437358392,1828338,0
1711437364386,1711437358432,1831618,0
1711437364386,1711437358474,1835677,0
1711437364386,1711437358513,1838311,0
1711437364386,1711437358553,1841253,0
1711437364386,1711437358593,1843917,0
1711437364386,1711437358633,1846392,0
1711437364386,1711437358674,1848409,0
1711437364386,1711437358713,1850145,0
1711437364386,1711437358753,1851377,0
1711437364386,1711437358793,1852932,0
1711437364386,1711437358834,1854520,0
1711437364386,1711437358874,1856028,0
1711437364386,1711437358914,1857869,0
1711437364386,1711437358954,1859711,0
1711437364386,1711437358994,1861465,0
1711437364386,1711437359034,1862833,0
1711437364386,1711437359075,1862647,0
1711437364386,1711437359114,1861658,0
1711437364386,1711437359154,1859751,0
1711437364386,1711437359195,1859192,0
1711437364386,1711437359235,1859693,0
1711437364386,1711437359276,1859309,0
1711437364386,1711437359315,1858395,0
1711437364386,1711437359355,1855450,0
1711437364386,1711437359395,1850989,0
1711437364386,1711437359435,1845837,0
1711437364386,1711437359476,1841884,0
1711437364386,1711437359515,1839297,0
1711437364386,1711437359556,1835323,0
1711437364386,1711437359596,1825751,0
1711437364386,1711437359636,1816748,0
1711437364386,1711437359677,1810393,0
1711437364386,1711437359716,1807532,0
1711437364386,1711437359756,1806058,0
1711437364386,1711437359796,1805060,0
1711437364386,1711437359836,1803849,0
1711437364386,1711437359878,1801801,0
1711437364386,1711437359917,1799129,0
1711437364386,1711437359957,1797239,0
1711437364386,1711437359997,1796280,0
1711437364386,1711437360037,1795930,0
1711437364386,1711437360078,1795826,0
1711437364386,1711437360117,1796386,0
1711437364386,1711437360158,1796781,0
1711437364386,1711437360198,1797992,0
1711437364386,1711437360238,1798737,0
1711437364386,1711437360279,1799165,0
1711437364386,1711437360318,1800309,0
1711437364386,1711437360358,1801354,0
1711437364386,1711437360399,1797705,0
1711437364386,1711437360439,1788838,0
1711437364386,1711437360479,1781088,0
1711437364386,1711437360519,1776339,0
1711437364386,1711437360559,1774759,0
1711437364386,1711437360599,1774451,0
1711437364386,1711437360639,1774664,0
1711437364386,1711437360680,1769480,0
1711437364386,1711437360720,1760106,0
1711437364386,1711437360760,1753498,0
1711437364386,1711437360800,1750561,0
1711437364386,1711437360840,1750746,0
1711437364386,1711437360881,1750926,0
1711437364386,1711437360920,1753926,0
1711437364386,1711437360960,1757475,0
1711437364386,1711437361001,1762178,0
1711437364386,1711437361041,1765188,0
1711437364386,1711437361081,1765320,0
1711437364386,1711437361121,1762888,0
1711437364386,1711437361161,1760012,0
1711437364386,1711437361201,1755753,0
1711437364386,1711437361241,1748016,0
1711437364386,1711437361282,1731794,0
1711437364386,1711437361321,1718002,0
1711437364386,1711437361362,1709160,0
1711437364386,1711437361402,1702755,0
1711437364386,1711437361442,1697466,0
1711437364386,1711437361483,1693382,0
1711437364386,1711437361522,1691531,0
1711437364386,1711437361562,1690122,0
1711437364386,1711437361603,1688260,0
1711437364386,1711437361643,1688740,0
1711437364386,1711437361683,1690894,0
1711437364386,1711437361723,1696640,0
1711437364386,1711437361763,1705074,0
1711437364386,1711437361803,1714594,0
1711437364386,1711437361843,1719229,0
1711437364386,1711437361884,1724031,0
1711437364386,1711437361923,1728893,0
1711437364386,1711437361964,1736827,0
1711437364386,1711437362004,1745294,0
1711437364386,1711437362044,1753582,0
1711437364386,1711437362085,1765621,0
1711437364386,1711437362124,1777732,0
1711437364386,1711437362164,1789911,0
1711437364386,1711437362205,1799735,0
1711437364386,1711437362245,1807651,0
1711437364386,1711437362286,1814585,0
1711437364386,1711437362325,1818967,0
1711437364386,1711437362365,1821726,0
1711437364386,1711437362405,1824673,0
1711437364386,1711437362446,1827490,0
1711437364386,1711437362486,1830533,0
1711437364386,1711437362526,1832834,0
1711437364386,1711437362566,1836397,0
1711437364386,1711437362606,1838341,0
1711437364386,1711437362646,1839770,0
1711437364386,1711437362687,1841585,0
1711437364386,1711437362726,1843441,0
1711437364386,1711437362766,1845246,0
1711437364386,1711437362807,1846749,0
1711437364386,1711437362847,1848123,0
1711437364386,1711437362887,1848936,0
1711437364386,1711437362927,1849539,0
1711437364386,1711437362967,1849893,0
1711437364386,1711437363007,1851015,0
1711437364386,1711437363047,1852563,0
1711437364386,1711437363088,1854099,0
1711437364386,1711437363127,1855315,0
1711437364386,1711437363167,1856042,0
1711437364386,1711437363207,1857230,0
1711437364386,1711437363247,1857693,0
1711437364386,1711437363288,1857438,0
1711437364386,1711437363328,1855575,0
1711437364386,1711437363368,1853239,0
1711437364386,1711437363408,1848292,0
1711437364386,1711437363448,1836567,0
1711437364386,1711437363489,1817844,0
1711437364386,1711437363528,1808332,0
1711437364386,1711437363568,1809638,0
1711437364386,1711437363608,1815425,0
1711437364386,1711437363649,1812313,0
1711437364386,1711437363689,1803773,0
1711437364386,1711437363729,1795488,0
1711437364386,1711437363769,1790201,0
1711437364386,1711437363809,1785951,0
1711437364386,1711437363849,1782760,0
1711437364386,1711437363890,1779614,0
1711437364386,1711437363929,1775768,0
1711437364386,1711437363969,1772169,0
1711437364386,1711437364010,1767681,0
1711437364386,1711437364050,1764277,0
1711437364386,1711437364090,1761849,0
1711437364386,1711437364130,1760192,0
1711437364386,1711437364170,1759037,0
1711437364386,1711437364210,1758457,0
1711437364386,1711437364250,1756774,0
1711437364386,1711437364291,1754433,0
1711437364386,1711437364330,1751718,0
1711437376425,1711437364368,1748170,0
1711437376425,1711437364408,1745740,0
1711437376425,1711437364448,1741690,0
1711437376425,1711437364489,1735813,0
1711437376425,1711437364528,1732502,0
1711437376425,1711437364568,1729983,0
1711437376425,1711437364608,1727446,0
1711437376425,1711437364648,1725468,0
1711437376425,1711437364689,1724206,0
1711437376425,1711437364729,1723837,0
1711437376425,1711437364769,1722980,0
1711437376425,1711437364809,1721690,0
1711437376425,1711437364849,1720041,0
1711437376425,1711437364890,1719076,0
1711437376425,1711437364929,1718692,0
1711437376425,1711437364969,1718462,0
1711437376425,1711437365009,1718459,0
1711437376425,1711437365050,1718720,0
1711437376425,1711437365090,1718751,0
1711437376425,1711437365130,1716207,0
1711437376425,1711437365170,1706644,0
1711437376425,1711437365210,1697969,0
1711437376425,1711437365250,1691673,0
1711437376425,1711437365291,1688700,0
1711437376425,1711437365330,1688013,0
1711437376425,1711437365370,1688805,0
1711437376425,1711437365411,1689453,0
1711437376425,1711437365451,1688289,0
1711437376425,1711437365492,1687046,0
1711437376425,1711437365531,1686372,0
1711437376425,1711437365571,1685935,0
1711437376425,1711437365611,1685506,0
1711437376425,1711437365651,1685746,0
1711437376425,1711437365692,1686905,0
1711437376425,1711437365732,1689842,0
1711437376425,1711437365772,1691127,0
1711437376425,1711437365812,1686152,0
1711437376425,1711437365852,1681915,0
1711437376425,1711437365893,1680312,0
1711437376425,1711437365932,1680251,0
1711437376425,1711437365972,1681440,0
1711437376425,1711437366013,1683457,0
1711437376425,1711437366053,1685503,0
1711437376425,1711437366094,1686746,0
1711437376425,1711437366133,1687941,0
1711437376425,1711437366173,1689632,0
1711437376425,1711437366213,1691631,0
1711437376425,1711437366253,1693774,0
1711437376425,1711437366294,1696135,0
1711437376425,1711437366334,1698390,0
1711437376425,1711437366374,1700719,0
1711437376425,1711437366414,1702954,0
1711437376425,1711437366454,1704916,0
1711437376425,1711437366495,1700474,0
1711437376425,1711437366534,1692655,0
1711437376425,1711437366574,1687318,0
1711437376425,1711437366614,1685080,0
1711437376425,1711437366655,1684534,0
1711437376425,1711437366695,1684826,0
1711437376425,1711437366735,1685729,0
1711437376425,1711437366775,1686139,0
1711437376425,1711437366815,1686005,0
1711437376425,1711437366855,1685865,0
1711437376425,1711437366896,1686164,0
1711437376425,1711437366935,1687052,0
1711437376425,1711437366975,1688517,0
1711437376425,1711437367016,1690349,0
1711437376425,1711437367056,1692373,0
1711437376425,1711437367096,1694153,0
1711437376425,1711437367136,1695734,0
1711437376425,1711437367176,1697492,0
1711437376425,1711437367216,1699264,0
1711437376425,1711437367257,1693518,0
1711437376425,1711437367297,1686251,0
1711437376425,1711437367337,1681713,0
1711437376425,1711437367377,1680480,0
1711437376425,1711437367417,1680862,0
1711437376425,1711437367457,1682446,0
1711437376425,1711437367498,1684728,0
1711437376425,1711437367537,1686535,0
1711437376425,1711437367577,1687882,0
1711437376425,1711437367618,1689556,0
1711437376425,1711437367658,1692004,0
1711437376425,1711437367698,1694786,0
1711437376425,1711437367738,1697795,0
1711437376425,1711437367778,1701525,0
1711437376425,1711437367818,1705376,0
1711437376425,1711437367858,1710067,0
1711437376425,1711437367899,1716190,0
1711437376425,1711437367939,1722446,0
1711437376425,1711437367979,1728539,0
1711437376425,1711437368019,1734827,0
1711437376425,1711437368059,1734975,0
1711437376425,1711437368100,1730159,0
1711437376425,1711437368139,1728470,0
1711437376425,1711437368179,1729851,0
1711437376425,1711437368220,1733654,0
1711437376425,1711437368260,1737109,0
1711437376425,1711437368300,1740802,0
1711437376425,1711437368340,1742317,0
1711437376425,1711437368380,1743479,0
1711437376425,1711437368420,1743956,0
1711437376425,1711437368460,1744245,0
1711437376425,1711437368501,1745849,0
1711437376425,1711437368541,1748152,0
1711437376425,1711437368581,1749990,0
1711437376425,1711437368621,1750982,0
1711437376425,1711437368661,1752551,0
1711437376425,1711437368702,1755481,0
1711437376425,1711437368741,1759828,0
1711437376425,1711437368781,1764800,0
1711437376425,1711437368822,1771433,0
1711437376425,1711437368862,1776484,0
1711437376425,1711437368902,1778164,0
1711437376425,1711437368942,1773959,0
1711437376425,1711437368982,1764052,0
1711437376425,1711437369022,1755792,0
1711437376425,1711437369062,1746585,0
1711437376425,1711437369103,1744098,0
1711437376425,1711437369142,1743084,0
1711437376425,1711437369182,1751056,0
1711437376425,1711437369222,1763089,0
1711437376425,1711437369262,1780802,0
1711437376425,1711437369303,1790229,0
1711437376425,1711437369343,1781188,0
1711437376425,1711437369383,1781881,0
1711437376425,1711437369423,1781631,0
1711437376425,1711437369463,1774702,0
1711437376425,1711437369504,1782880,0
1711437376425,1711437369543,1792049,0
1711437376425,1711437369583,1798355,0
1711437376425,1711437369623,1802992,0
1711437376425,1711437369663,1802843,0
1711437376425,1711437369704,1795718,0
1711437376425,1711437369743,1790662,0
1711437376425,1711437369784,1788915,0
1711437376425,1711437369824,1790054,0
1711437376425,1711437369864,1793308,0
1711437376425,1711437369905,1791854,0
1711437376425,1711437369944,1788743,0
1711437376425,1711437369984,1791644,0
1711437376425,1711437370024,1797099,0
1711437376425,1711437370064,1797825,0
1711437376425,1711437370105,1807451,0
1711437376425,1711437370145,1807203,0
1711437376425,1711437370186,1805902,0
1711437376425,1711437370226,1803222,0
1711437376425,1711437370266,1809101,0
1711437376425,1711437370307,1816061,0
1711437376425,1711437370346,1823633,0
1711437376425,1711437370386,1831528,0
1711437376425,1711437370426,1837867,0
1711437376425,1711437370466,1841630,0
1711437376425,1711437370507,1848667,0
1711437376425,1711437370546,1858533,0
1711437376425,1711437370587,1866990,0
1711437376425,1711437370627,1858738,0
1711437376425,1711437370667,1857886,0
1711437376425,1711437370708,1836051,0
1711437376425,1711437370747,1807815,0
1711437376425,1711437370787,1798656,0
1711437376425,1711437370827,1798236,0
1711437376425,1711437370868,1796287,0
1711437376425,1711437370908,1792945,0
1711437376425,1711437370948,1789923,0
1711437376425,1711437370988,1792847,0
1711437376425,1711437371028,1801979,0
1711437376425,1711437371068,1807019,0
1711437376425,1711437371109,1811013,0
1711437376425,1711437371148,1812458,0
1711437376425,1711437371188,1812768,0
1711437376425,1711437371229,1812205,0
1711437376425,1711437371269,1811182,0
1711437376425,1711437371310,1810259,0
1711437376425,1711437371349,1810228,0
1711437376425,1711437371389,1808265,0
1711437376425,1711437371429,1806513,0
1711437376425,1711437371469,1808482,0
1711437376425,1711437371510,1814924,0
1711437376425,1711437371549,1822354,0
1711437376425,1711437371590,1827658,0
1711437376425,1711437371630,1831750,0
1711437376425,1711437371670,1836313,0
1711437376425,1711437371711,1844052,0
1711437376425,1711437371750,1849960,0
1711437376425,1711437371790,1857897,0
1711437376425,1711437371831,1865554,0
1711437376425,1711437371870,1860517,0
1711437376425,1711437371911,1855454,0
1711437376425,1711437371951,1851246,0
1711437376425,1711437371991,1848804,0
1711437376425,1711437372031,1848058,0
1711437376425,1711437372071,1846350,0
1711437376425,1711437372112,1845040,0
1711437376425,1711437372151,1843670,0
1711437376425,1711437372192,1843054,0
1711437376425,1711437372232,1842966,0
1711437376425,1711437372272,1841983,0
1711437376425,1711437372313,1845317,0
1711437376425,1711437372352,1846632,0
1711437376425,1711437372392,1848606,0
1711437376425,1711437372432,1850568,0
1711437376425,1711437372472,1852641,0
1711437376425,1711437372514,1854475,0
1711437376425,1711437372553,1854183,0
1711437376425,1711437372593,1852904,0
1711437376425,1711437372633,1851241,0
1711437376425,1711437372673,1849595,0
1711437376425,1711437372714,1851602,0
1711437376425,1711437372753,1854089,0
1711437376425,1711437372794,1856971,0
1711437376425,1711437372834,1860195,0
1711437376425,1711437372874,1862457,0
1711437376425,1711437372915,1864667,0
1711437376425,1711437372954,1866205,0
1711437376425,1711437372994,1866820,0
1711437376425,1711437373035,1867496,0
1711437376425,1711437373075,1868066,0
1711437376425,1711437373116,1868485,0
1711437376425,1711437373155,1869378,0
1711437376425,1711437373195,1870170,0
1711437376425,1711437373235,1870907,0
1711437376425,1711437373275,1871405,0
1711437376425,1711437373316,1871482,0
1711437376425,1711437373355,1872434,0
1711437376425,1711437373396,1872776,0
1711437376425,1711437373436,1873658,0
1711437376425,1711437373476,1875287,0
1711437376425,1711437373517,1877394,0
1711437376425,1711437373556,1879399,0
1711437376425,1711437373596,1880558,0
1711437376425,1711437373637,1880546,0
1711437376425,1711437373677,1880061,0
1711437376425,1711437373718,1880705,0
1711437376425,1711437373757,1882250,0
1711437376425,1711437373797,1881817,0
1711437376425,1711437373837,1881532,0
1711437376425,1711437373878,1881902,0
1711437376425,1711437373919,1882735,0
1711437376425,1711437373958,1884371,0
1711437376425,1711437373998,1886705,0
1711437376425,1711437374038,1890662,0
1711437376425,1711437374078,1894595,0
1711437376425,1711437374120,1898896,0
1711437376425,1711437374159,1903693,0
1711437376425,1711437374199,1908471,0
1711437376425,1711437374239,1913682,0
1711437376425,1711437374279,1918850,0
1711437376425,1711437374320,1923690,0
1711437376425,1711437374360,1927914,0
1711437376425,1711437374400,1931573,0
1711437376425,1711437374440,1935259,0
1711437376425,1711437374480,1938201,0
1711437376425,1711437374521,1941240,0
1711437376425,1711437374560,1943782,0
1711437376425,1711437374601,1945856,0
1711437376425,1711437374641,1947734,0
1711437376425,1711437374681,1949236,0
1711437376425,1711437374722,1951003,0
1711437376425,1711437374761,1952579,0
1711437376425,1711437374801,1953973,0
1711437376425,1711437374841,1957107,0
1711437376425,1711437374881,1958358,0
1711437376425,1711437374922,1959683,0
1711437376425,1711437374962,1960701,0
1711437376425,1711437375002,1961895,0
1711437376425,1711437375042,1962523,0
1711437376425,1711437375082,1963500,0
1711437376425,1711437375123,1964310,0
1711437376425,1711437375162,1965328,0
1711437376425,1711437375202,1966100,0
1711437376425,1711437375242,1967063,0
1711437376425,1711437375282,1967791,0
1711437376425,1711437375324,1968767,0
1711437376425,1711437375363,1969594,0
1711437376425,1711437375403,1970407,0
1711437376425,1711437375443,1971138,0
1711437376425,1711437375483,1971882,0
1711437376425,1711437375524,1972494,0
1711437376425,1711437375563,1973060,0
1711437376425,1711437375603,1973657,0
1711437376425,1711437375643,1974003,0
1711437376425,1711437375684,1974528,0
1711437376425,1711437375725,1975065,0
1711437376425,1711437375764,1975325,0
1711437376425,1711437375804,1975250,0
1711437376425,1711437375844,1975072,0
1711437376425,1711437375884,1974733,0
1711437376425,1711437375925,1974737,0
1711437376425,1711437375964,1973887,0
1711437376425,1711437376004,1972933,0
1711437376425,1711437376045,1971673,0
1711437376425,1711437376085,1970353,0
1711437376425,1711437376126,1969663,0
1711437376425,1711437376165,1969468,0
1711437376425,1711437376205,1969413,0
1711437376425,1711437376245,1969644,0
1711437376425,1711437376285,1969550,0
1711437376425,1711437376326,1969690,0
1711437376425,1711437376365,1969791,0
1711437388506,1711437376458,1969955,0
1711437388506,1711437376498,1970182,0
1711437388506,1711437376538,1970536,0
1711437388506,1711437376579,1970708,0
1711437388506,1711437376618,1971058,0
1711437388506,1711437376658,1971592,0
1711437388506,1711437376698,1972038,0
1711437388506,1711437376738,1972457,0
1711437388506,1711437376779,1972670,0
1711437388506,1711437376819,1972581,0
1711437388506,1711437376858,1972730,0
1711437388506,1711437376899,1971737,0
1711437388506,1711437376939,1969469,0
1711437388506,1711437376980,1968069,0
1711437388506,1711437377019,1966729,0
1711437388506,1711437377059,1966627,0
1711437388506,1711437377099,1966760,0
1711437388506,1711437377139,1967417,0
1711437388506,1711437377181,1968036,0
1711437388506,1711437377220,1968612,0
1711437388506,1711437377260,1969102,0
1711437388506,1711437377300,1969478,0
1711437388506,1711437377340,1969654,0
1711437388506,1711437377381,1969852,0
1711437388506,1711437377420,1969913,0
1711437388506,1711437377460,1970081,0
1711437388506,1711437377500,1970362,0
1711437388506,1711437377541,1970339,0
1711437388506,1711437377582,1970385,0
1711437388506,1711437377621,1970643,0
1711437388506,1711437377661,1970725,0
1711437388506,1711437377701,1971097,0
1711437388506,1711437377741,1971115,0
1711437388506,1711437377782,1971223,0
1711437388506,1711437377821,1971444,0
1711437388506,1711437377861,1971796,0
1711437388506,1711437377902,1972062,0
1711437388506,1711437377942,1972303,0
1711437388506,1711437377983,1972547,0
1711437388506,1711437378022,1972761,0
1711437388506,1711437378062,1973210,0
1711437388506,1711437378102,1973383,0
1711437388506,1711437378142,1973651,0
1711437388506,1711437378183,1974143,0
1711437388506,1711437378223,1974469,0
1711437388506,1711437378263,1974778,0
1711437388506,1711437378303,1975046,0
1711437388506,1711437378343,1975469,0
1711437388506,1711437378384,1975769,0
1711437388506,1711437378423,1975897,0
1711437388506,1711437378463,1975256,0
1711437388506,1711437378504,1974434,0
1711437388506,1711437378544,1974232,0
1711437388506,1711437378585,1974779,0
1711437388506,1711437378624,1976581,0
1711437388506,1711437378664,1979039,0
1711437388506,1711437378704,1981262,0
1711437388506,1711437378744,1983110,0
1711437388506,1711437378785,1984655,0
1711437388506,1711437378824,1985958,0
1711437388506,1711437378865,1986981,0
1711437388506,1711437378905,1987462,0
1711437388506,1711437378945,1987945,0
1711437388506,1711437378986,1988463,0
1711437388506,1711437379025,1988740,0
1711437388506,1711437379065,1989172,0
1711437388506,1711437379105,1989356,0
1711437388506,1711437379145,1989646,0
1711437388506,1711437379186,1990011,0
1711437388506,1711437379226,1990239,0
1711437388506,1711437379266,1990762,0
1711437388506,1711437379306,1991005,0
1711437388506,1711437379346,1991260,0
1711437388506,1711437379387,1991524,0
1711437388506,1711437379426,1991706,0
1711437388506,1711437379467,1991990,0
1711437388506,1711437379507,1992446,0
1711437388506,1711437379547,1992558,0
1711437388506,1711437379588,1992846,0
1711437388506,1711437379627,1993072,0
1711437388506,1711437379667,1993401,0
1711437388506,1711437379707,1993541,0
1711437388506,1711437379747,1993739,0
1711437388506,1711437379788,1993720,0
1711437388506,1711437379828,1993823,0
1711437388506,1711437379868,1993923,0
1711437388506,1711437379908,1993777,0
1711437388506,1711437379948,1993644,0
1711437388506,1711437379989,1993641,0
1711437388506,1711437380028,1993621,0
1711437388506,1711437380069,1993771,0
1711437388506,1711437380109,1993942,0
1711437388506,1711437380149,1993994,0
1711437388506,1711437380190,1994140,0
1711437388506,1711437380229,1994192,0
1711437388506,1711437380269,1994433,0
1711437388506,1711437380310,1994703,0
1711437388506,1711437380350,1994844,0
1711437388506,1711437380390,1995001,0
1711437388506,1711437380430,1995186,0
1711437388506,1711437380470,1995492,0
1711437388506,1711437380510,1995624,0
1711437388506,1711437380551,1995719,0
1711437388506,1711437380591,1995669,0
1711437388506,1711437380631,1995828,0
1711437388506,1711437380671,1995859,0
1711437388506,1711437380711,1996000,0
1711437388506,1711437380751,1996126,0
1711437388506,1711437380792,1996208,0
1711437388506,1711437380831,1996337,0
1711437388506,1711437380872,1996603,0
1711437388506,1711437380912,1996827,0
1711437388506,1711437380952,1996985,0
1711437388506,1711437380993,1997034,0
1711437388506,1711437381032,1997035,0
1711437388506,1711437381072,1997001,0
1711437388506,1711437381113,1996997,0
1711437388506,1711437381153,1996902,0
1711437388506,1711437381193,1996803,0
1711437388506,1711437381233,1996795,0
1711437388506,1711437381273,1996235,0
1711437388506,1711437381313,1995641,0
1711437388506,1711437381353,1994721,0
1711437388506,1711437381394,1993941,0
1711437388506,1711437381433,1993229,0
1711437388506,1711437381473,1992828,0
1711437388506,1711437381514,1992488,0
1711437388506,1711437381554,1992056,0
1711437388506,1711437381594,1991747,0
1711437388506,1711437381634,1991390,0
1711437388506,1711437381674,1991239,0
1711437388506,1711437381714,1991057,0
1711437388506,1711437381754,1990743,0
1711437388506,1711437381795,1990681,0
1711437388506,1711437381834,1990503,0
1711437388506,1711437381875,1990334,0
1711437388506,1711437381915,1990150,0
1711437388506,1711437381955,1990033,0
1711437388506,1711437381996,1989818,0
1711437388506,1711437382035,1989672,0
1711437388506,1711437382075,1989534,0
1711437388506,1711437382115,1989600,0
1711437388506,1711437382155,1989567,0
1711437388506,1711437382196,1989799,0
1711437388506,1711437382236,1989739,0
1711437388506,1711437382276,1989909,0
1711437388506,1711437382316,1989859,0
1711437388506,1711437382356,1989683,0
1711437388506,1711437382397,1989743,0
1711437388506,1711437382436,1989596,0
1711437388506,1711437382476,1989602,0
1711437388506,1711437382516,1989540,0
1711437388506,1711437382556,1989756,0
1711437388506,1711437382597,1989890,0
1711437388506,1711437382637,1989870,0
1711437388506,1711437382677,1990041,0
1711437388506,1711437382717,1990239,0
1711437388506,1711437382757,1990530,0
1711437388506,1711437382798,1990616,0
1711437388506,1711437382837,1990868,0
1711437388506,1711437382877,1991019,0
1711437388506,1711437382917,1991180,0
1711437388506,1711437382957,1991357,0
1711437388506,1711437382998,1991596,0
1711437388506,1711437383037,1991725,0
1711437388506,1711437383078,1992110,0
1711437388506,1711437383118,1992156,0
1711437388506,1711437383158,1992433,0
1711437388506,1711437383199,1992404,0
1711437388506,1711437383238,1992297,0
1711437388506,1711437383278,1992350,0
1711437388506,1711437383318,1992570,0
1711437388506,1711437383358,1992653,0
1711437388506,1711437383399,1992797,0
1711437388506,1711437383439,1992999,0
1711437388506,1711437383479,1992976,0
1711437388506,1711437383519,1993053,0
1711437388506,1711437383559,1993160,0
1711437388506,1711437383600,1993354,0
1711437388506,1711437383639,1993418,0
1711437388506,1711437383679,1993645,0
1711437388506,1711437383719,1993720,0
1711437388506,1711437383759,1994018,0
1711437388506,1711437383800,1994029,0
1711437388506,1711437383840,1994341,0
1711437388506,1711437383880,1994539,0
1711437388506,1711437383920,1994750,0
1711437388506,1711437383960,1994824,0
1711437388506,1711437384001,1994684,0
1711437388506,1711437384040,1994688,0
1711437388506,1711437384080,1994665,0
1711437388506,1711437384120,1994856,0
1711437388506,1711437384161,1995052,0
1711437388506,1711437384201,1995151,0
1711437388506,1711437384241,1995312,0
1711437388506,1711437384281,1995435,0
1711437388506,1711437384321,1995538,0
1711437388506,1711437384361,1995584,0
1711437388506,1711437384402,1995598,0
1711437388506,1711437384441,1995800,0
1711437388506,1711437384482,1995992,0
1711437388506,1711437384522,1996190,0
1711437388506,1711437384562,1996483,0
1711437388506,1711437384603,1996606,0
1711437388506,1711437384642,1996888,0
1711437388506,1711437384682,1996980,0
1711437388506,1711437384722,1997130,0
1711437388506,1711437384763,1997228,0
1711437388506,1711437384803,1996985,0
1711437388506,1711437384843,1996982,0
1711437388506,1711437384883,1996956,0
1711437388506,1711437384923,1996870,0
1711437388506,1711437384963,1996870,0
1711437388506,1711437385004,1997030,0
1711437388506,1711437385043,1997076,0
1711437388506,1711437385083,1997169,0
1711437388506,1711437385123,1997202,0
1711437388506,1711437385163,1997320,0
1711437388506,1711437385204,1997436,0
1711437388506,1711437385244,1997493,0
1711437388506,1711437385284,1997706,0
1711437388506,1711437385324,1997774,0
1711437388506,1711437385364,1997765,0
1711437388506,1711437385405,1997970,0
1711437388506,1711437385444,1998009,0
1711437388506,1711437385485,1998119,0
1711437388506,1711437385525,1998128,0
1711437388506,1711437385565,1998120,0
1711437388506,1711437385606,1998111,0
1711437388506,1711437385645,1997931,0
1711437388506,1711437385685,1997512,0
1711437388506,1711437385725,1997357,0
1711437388506,1711437385765,1997218,0
1711437388506,1711437385806,1997261,0
1711437388506,1711437385846,1997345,0
1711437388506,1711437385886,1997386,0
1711437388506,1711437385926,1997129,0
1711437388506,1711437385966,1997050,0
1711437388506,1711437386007,1997087,0
1711437388506,1711437386046,1996849,0
1711437388506,1711437386087,1996781,0
1711437388506,1711437386127,1996918,0
1711437388506,1711437386167,1996837,0
1711437388506,1711437386208,1996749,0
1711437388506,1711437386247,1996600,0
1711437388506,1711437386287,1996525,0
1711437388506,1711437386327,1996408,0
1711437388506,1711437386367,1996550,0
1711437388506,1711437386408,1996474,0
1711437388506,1711437386448,1996640,0
1711437388506,1711437386488,1996441,0
1711437388506,1711437386528,1995915,0
1711437388506,1711437386568,1995138,0
1711437388506,1711437386609,1994742,0
1711437388506,1711437386648,1994355,0
1711437388506,1711437386688,1993917,0
1711437388506,1711437386728,1993582,0
1711437388506,1711437386769,1993321,0
1711437388506,1711437386810,1992969,0
1711437388506,1711437386849,1992535,0
1711437388506,1711437386889,1992378,0
1711437388506,1711437386929,1991969,0
1711437388506,1711437386969,1991664,0
1711437388506,1711437387010,1991577,0
1711437388506,1711437387050,1991196,0
1711437388506,1711437387090,1990967,0
1711437388506,1711437387130,1990766,0
1711437388506,1711437387170,1990554,0
1711437388506,1711437387211,1990101,0
1711437388506,1711437387251,1989951,0
1711437388506,1711437387291,1989649,0
1711437388506,1711437387331,1989470,0
1711437388506,1711437387371,1988580,0
1711437388506,1711437387412,1987298,0
1711437388506,1711437387451,1985633,0
1711437388506,1711437387492,1984723,0
1711437388506,1711437387532,1984306,0
1711437388506,1711437387572,1984257,0
1711437388506,1711437387613,1984172,0
1711437388506,1711437387652,1983919,0
1711437388506,1711437387692,1984062,0
1711437388506,1711437387733,1983900,0
1711437388506,1711437387773,1984011,0
1711437388506,1711437387814,1983962,0
1711437388506,1711437387853,1984058,0
1711437388506,1711437387894,1984421,0
1711437388506,1711437387934,1984881,0
1711437388506,1711437387974,1985612,0
1711437388506,1711437388015,1987055,0
1711437388506,1711437388054,1988035,0
1711437388506,1711437388094,1988993,0
1711437388506,1711437388135,1990111,0
1711437388506,1711437388174,1990668,0
1711437388506,1711437388215,1990561,0
1711437388506,1711437388255,1989249,0
1711437388506,1711437388295,1987927,0
1711437388506,1711437388335,1987197,0
1711437388506,1711437388376,1987308,0
1711437388506,1711437388416,1987888,0
1711437388506,1711437388456,1988539,0
1711437400521,1711437388495,1989217,0
1711437400521,1711437388534,1990232,0
1711437400521,1711437388573,1990696,0
1711437400521,1711437388612,1991045,0
1711437400521,1711437388651,1991642,0
1711437400521,1711437388690,1991929,0
1711437400521,1711437388729,1992568,0
1711437400521,1711437388768,1993258,0
1711437400521,1711437388807,1993702,0
1711437400521,1711437388846,1994480,0
1711437400521,1711437388885,1995023,0
1711437400521,1711437388924,1995663,0
1711437400521,1711437388963,1996289,0
1711437400521,1711437389002,1996708,0
1711437400521,1711437389041,1997372,0
1711437400521,1711437389080,1997450,0
1711437400521,1711437389119,1996201,0
1711437400521,1711437389158,1993869,0
1711437400521,1711437389198,1991931,0
1711437400521,1711437389238,1991169,0
1711437400521,1711437389278,1991019,0
1711437400521,1711437389318,1990971,0
1711437400521,1711437389358,1991165,0
1711437400521,1711437389398,1991339,0
1711437400521,1711437389438,1991363,0
1711437400521,1711437389478,1991615,0
1711437400521,1711437389518,1991774,0
1711437400521,1711437389558,1992023,0
1711437400521,1711437389598,1992683,0
1711437400521,1711437389638,1993384,0
1711437400521,1711437389678,1994001,0
1711437400521,1711437389718,1994741,0
1711437400521,1711437389758,1995327,0
1711437400521,1711437389798,1995992,0
1711437400521,1711437389838,1996791,0
1711437400521,1711437389878,1997359,0
1711437400521,1711437389918,1998245,0
1711437400521,1711437389958,1998886,0
1711437400521,1711437389998,1999018,0
1711437400521,1711437390038,1997810,0
1711437400521,1711437390078,1995415,0
1711437400521,1711437390118,1994107,0
1711437400521,1711437390158,1993731,0
1711437400521,1711437390198,1993732,0
1711437400521,1711437390238,1994073,0
1711437400521,1711437390278,1994445,0
1711437400521,1711437390318,1994590,0
1711437400521,1711437390358,1994782,0
1711437400521,1711437390398,1994973,0
1711437400521,1711437390438,1995262,0
1711437400521,1711437390478,1995697,0
1711437400521,1711437390518,1996322,0
1711437400521,1711437390558,1996969,0
1711437400521,1711437390598,1997589,0
1711437400521,1711437390638,1998122,0
1711437400521,1711437390678,1998849,0
1711437400521,1711437390718,1999379,0
1711437400521,1711437390758,2000125,0
1711437400521,1711437390798,2000847,0
1711437400521,1711437390838,2000777,0
1711437400521,1711437390878,1999431,0
1711437400521,1711437390918,1996986,0
1711437400521,1711437390958,1995484,0
1711437400521,1711437390998,1994895,0
1711437400521,1711437391038,1994875,0
1711437400521,1711437391078,1995443,0
1711437400521,1711437391118,1995602,0
1711437400521,1711437391158,1995791,0
1711437400521,1711437391198,1996050,0
1711437400521,1711437391238,1996330,0
1711437400521,1711437391278,1996872,0
1711437400521,1711437391318,1997435,0
1711437400521,1711437391358,1998077,0
1711437400521,1711437391398,1998848,0
1711437400521,1711437391438,1999514,0
1711437400521,1711437391478,2000420,0
1711437400521,1711437391518,2001213,0
1711437400521,1711437391558,2001862,0
1711437400521,1711437391598,2002795,0
1711437400521,1711437391638,2003539,0
1711437400521,1711437391678,2004301,0
1711437400521,1711437391718,2004600,0
1711437400521,1711437391758,2004464,0
1711437400521,1711437391798,2003119,0
1711437400521,1711437391838,2001883,0
1711437400521,1711437391878,2001360,0
1711437400521,1711437391918,2001536,0
1711437400521,1711437391958,2001996,0
1711437400521,1711437391998,2002441,0
1711437400521,1711437392038,2002743,0
1711437400521,1711437392078,2003026,0
1711437400521,1711437392118,2003459,0
1711437400521,1711437392158,2003876,0
1711437400521,1711437392198,2004419,0
1711437400521,1711437392238,2005025,0
1711437400521,1711437392278,2005625,0
1711437400521,1711437392318,2006254,0
1711437400521,1711437392358,2006761,0
1711437400521,1711437392398,2007435,0
1711437400521,1711437392438,2008058,0
1711437400521,1711437392478,2008542,0
1711437400521,1711437392518,2009230,0
1711437400521,1711437392558,2009801,0
1711437400521,1711437392598,2010374,0
1711437400521,1711437392638,2010047,0
1711437400521,1711437392678,2009534,0
1711437400521,1711437392718,2008189,0
1711437400521,1711437392758,2007322,0
1711437400521,1711437392798,2006861,0
1711437400521,1711437392838,2006815,0
1711437400521,1711437392878,2007092,0
1711437400521,1711437392918,2007312,0
1711437400521,1711437392958,2007509,0
1711437400521,1711437392998,2007664,0
1711437400521,1711437393038,2008156,0
1711437400521,1711437393078,2008760,0
1711437400521,1711437393118,2009279,0
1711437400521,1711437393158,2009920,0
1711437400521,1711437393198,2010522,0
1711437400521,1711437393238,2011166,0
1711437400521,1711437393278,2011864,0
1711437400521,1711437393318,2012283,0
1711437400521,1711437393358,2012887,0
1711437400521,1711437393398,2013383,0
1711437400521,1711437393438,2013958,0
1711437400521,1711437393478,2014617,0
1711437400521,1711437393518,2014633,0
1711437400521,1711437393558,2014152,0
1711437400521,1711437393598,2014076,0
1711437400521,1711437393638,2014175,0
1711437400521,1711437393678,2014376,0
1711437400521,1711437393718,2014561,0
1711437400521,1711437393758,2014927,0
1711437400521,1711437393798,2015028,0
1711437400521,1711437393838,2015396,0
1711437400521,1711437393878,2015335,0
1711437400521,1711437393918,2015469,0
1711437400521,1711437393958,2015705,0
1711437400521,1711437393998,2015816,0
1711437400521,1711437394038,2016245,0
1711437400521,1711437394078,2016557,0
1711437400521,1711437394118,2016894,0
1711437400521,1711437394158,2017291,0
1711437400521,1711437394198,2017575,0
1711437400521,1711437394238,2017992,0
1711437400521,1711437394278,2018236,0
1711437400521,1711437394318,2018717,0
1711437400521,1711437394358,2018376,0
1711437400521,1711437394398,2017770,0
1711437400521,1711437394438,2017653,0
1711437400521,1711437394478,2017661,0
1711437400521,1711437394518,2017921,0
1711437400521,1711437394558,2018206,0
1711437400521,1711437394598,2018434,0
1711437400521,1711437394638,2018496,0
1711437400521,1711437394678,2018655,0
1711437400521,1711437394718,2018702,0
1711437400521,1711437394758,2018815,0
1711437400521,1711437394798,2018980,0
1711437400521,1711437394838,2018983,0
1711437400521,1711437394878,2018411,0
1711437400521,1711437394918,2017996,0
1711437400521,1711437394958,2016770,0
1711437400521,1711437394998,2014780,0
1711437400521,1711437395038,2010494,0
1711437400521,1711437395078,2005615,0
1711437400521,1711437395118,1999834,0
1711437400521,1711437395158,1996159,0
1711437400521,1711437395198,1993063,0
1711437400521,1711437395238,1986576,0
1711437400521,1711437395278,1975211,0
1711437400521,1711437395318,1966443,0
1711437400521,1711437395358,1961052,0
1711437400521,1711437395398,1954928,0
1711437400521,1711437395438,1946532,0
1711437400521,1711437395478,1933848,0
1711437400521,1711437395518,1924326,0
1711437400521,1711437395558,1913509,0
1711437400521,1711437395598,1899980,0
1711437400521,1711437395638,1884960,0
1711437400521,1711437395678,1872217,0
1711437400521,1711437395718,1869112,0
1711437400521,1711437395758,1872175,0
1711437400521,1711437395798,1873840,0
1711437400521,1711437395838,1873265,0
1711437400521,1711437395878,1870578,0
1711437400521,1711437395918,1867645,0
1711437400521,1711437395958,1863909,0
1711437400521,1711437395998,1860018,0
1711437400521,1711437396038,1855353,0
1711437400521,1711437396078,1850278,0
1711437400521,1711437396118,1838846,0
1711437400521,1711437396158,1822059,0
1711437400521,1711437396198,1809609,0
1711437400521,1711437396238,1800609,0
1711437400521,1711437396278,1791812,0
1711437400521,1711437396318,1784788,0
1711437400521,1711437396358,1789811,0
1711437400521,1711437396398,1799106,0
1711437400521,1711437396438,1806261,0
1711437400521,1711437396478,1814323,0
1711437400521,1711437396518,1820091,0
1711437400521,1711437396558,1826345,0
1711437400521,1711437396598,1830184,0
1711437400521,1711437396638,1834566,0
1711437400521,1711437396678,1838838,0
1711437400521,1711437396718,1843150,0
1711437400521,1711437396758,1847115,0
1711437400521,1711437396798,1850735,0
1711437400521,1711437396838,1854139,0
1711437400521,1711437396878,1857075,0
1711437400521,1711437396918,1859340,0
1711437400521,1711437396958,1861432,0
1711437400521,1711437396998,1863269,0
1711437400521,1711437397038,1865419,0
1711437400521,1711437397078,1867614,0
1711437400521,1711437397118,1869675,0
1711437400521,1711437397158,1871832,0
1711437400521,1711437397198,1873608,0
1711437400521,1711437397238,1875604,0
1711437400521,1711437397278,1877744,0
1711437400521,1711437397318,1879764,0
1711437400521,1711437397358,1881785,0
1711437400521,1711437397398,1883720,0
1711437400521,1711437397438,1885339,0
1711437400521,1711437397478,1887175,0
1711437400521,1711437397518,1888940,0
1711437400521,1711437397558,1890373,0
1711437400521,1711437397598,1891904,0
1711437400521,1711437397638,1893383,0
1711437400521,1711437397678,1894682,0
1711437400521,1711437397718,1895598,0
1711437400521,1711437397758,1895448,0
1711437400521,1711437397798,1895105,0
1711437400521,1711437397838,1895174,0
1711437400521,1711437397878,1895833,0
1711437400521,1711437397918,1896799,0
1711437400521,1711437397958,1898007,0
1711437400521,1711437397998,1899051,0
1711437400521,1711437398038,1900093,0
1711437400521,1711437398078,1900882,0
1711437400521,1711437398118,1901689,0
1711437400521,1711437398158,1902635,0
1711437400521,1711437398198,1903565,0
1711437400521,1711437398238,1904451,0
1711437400521,1711437398278,1905150,0
1711437400521,1711437398318,1905879,0
1711437400521,1711437398358,1906711,0
1711437400521,1711437398398,1907485,0
1711437400521,1711437398438,1908213,0
1711437400521,1711437398478,1909198,0
1711437400521,1711437398518,1909589,0
1711437400521,1711437398558,1906583,0
1711437400521,1711437398598,1900626,0
1711437400521,1711437398638,1897051,0
1711437400521,1711437398678,1895749,0
1711437400521,1711437398718,1895277,0
1711437400521,1711437398758,1894941,0
1711437400521,1711437398798,1894130,0
1711437400521,1711437398838,1891952,0
1711437400521,1711437398878,1889886,0
1711437400521,1711437398918,1888623,0
1711437400521,1711437398958,1887939,0
1711437400521,1711437398998,1887907,0
1711437400521,1711437399038,1888606,0
1711437400521,1711437399078,1889433,0
1711437400521,1711437399118,1891193,0
1711437400521,1711437399158,1892128,0
1711437400521,1711437399198,1892125,0
1711437400521,1711437399238,1887726,0
1711437400521,1711437399278,1876250,0
1711437400521,1711437399318,1866692,0
1711437400521,1711437399358,1860775,0
1711437400521,1711437399398,1857517,0
1711437400521,1711437399438,1855580,0
1711437400521,1711437399478,1853187,0
1711437400521,1711437399518,1848103,0
1711437400521,1711437399558,1841742,0
1711437400521,1711437399598,1835754,0
1711437400521,1711437399638,1832293,0
1711437400521,1711437399678,1832982,0
1711437400521,1711437399718,1835816,0
1711437400521,1711437399758,1838600,0
1711437400521,1711437399798,1842297,0
1711437400521,1711437399838,1845702,0
1711437400521,1711437399878,1841090,0
1711437400521,1711437399918,1833921,0
1711437400521,1711437399958,1830528,0
1711437400521,1711437399998,1830541,0
1711437400521,1711437400038,1832114,0
1711437400521,1711437400078,1834663,0
1711437400521,1711437400118,1837484,0
1711437400521,1711437400158,1839695,0
1711437400521,1711437400198,1841229,0
1711437400521,1711437400238,1843748,0
1711437400521,1711437400278,1846863,0
1711437400521,1711437400318,1850462,0
1711437400521,1711437400358,1854190,0
1711437400521,1711437400398,1858201,0
1711437400521,1711437400438,1861907,0
1711437412560,1711437400479,1865199,0
1711437412560,1711437400519,1868518,0
1711437412560,1711437400559,1870061,0
1711437412560,1711437400600,1864562,0
1711437412560,1711437400639,1858230,0
1711437412560,1711437400679,1855815,0
1711437412560,1711437400719,1856443,0
1711437412560,1711437400759,1857874,0
1711437412560,1711437400800,1860055,0
1711437412560,1711437400840,1862166,0
1711437412560,1711437400880,1863376,0
1711437412560,1711437400920,1863878,0
1711437412560,1711437400960,1865027,0
1711437412560,1711437401001,1866891,0
1711437412560,1711437401040,1869292,0
1711437412560,1711437401080,1872190,0
1711437412560,1711437401120,1875026,0
1711437412560,1711437401160,1877606,0
1711437412560,1711437401201,1879956,0
1711437412560,1711437401241,1882071,0
1711437412560,1711437401281,1884085,0
1711437412560,1711437401321,1882192,0
1711437412560,1711437401361,1874355,0
1711437412560,1711437401402,1869237,0
1711437412560,1711437401441,1868288,0
1711437412560,1711437401481,1869190,0
1711437412560,1711437401521,1870919,0
1711437412560,1711437401562,1873303,0
1711437412560,1711437401602,1874776,0
1711437412560,1711437401642,1874977,0
1711437412560,1711437401682,1875030,0
1711437412560,1711437401722,1876239,0
1711437412560,1711437401762,1878401,0
1711437412560,1711437401803,1881149,0
1711437412560,1711437401842,1883751,0
1711437412560,1711437401882,1886213,0
1711437412560,1711437401923,1888620,0
1711437412560,1711437401963,1890662,0
1711437412560,1711437402003,1888344,0
1711437412560,1711437402043,1880469,0
1711437412560,1711437402083,1875612,0
1711437412560,1711437402123,1874678,0
1711437412560,1711437402163,1875696,0
1711437412560,1711437402204,1877749,0
1711437412560,1711437402243,1880619,0
1711437412560,1711437402284,1883750,0
1711437412560,1711437402324,1886224,0
1711437412560,1711437402364,1887862,0
1711437412560,1711437402405,1890095,0
1711437412560,1711437402444,1892533,0
1711437412560,1711437402484,1895106,0
1711437412560,1711437402524,1897874,0
1711437412560,1711437402564,1900890,0
1711437412560,1711437402605,1903696,0
1711437412560,1711437402645,1905964,0
1711437412560,1711437402685,1908104,0
1711437412560,1711437402725,1909556,0
1711437412560,1711437402765,1906850,0
1711437412560,1711437402806,1900864,0
1711437412560,1711437402845,1898339,0
1711437412560,1711437402886,1898255,0
1711437412560,1711437402926,1899070,0
1711437412560,1711437402966,1900128,0
1711437412560,1711437403007,1901036,0
1711437412560,1711437403046,1901187,0
1711437412560,1711437403086,1900314,0
1711437412560,1711437403126,1899475,0
1711437412560,1711437403166,1898875,0
1711437412560,1711437403207,1899027,0
1711437412560,1711437403247,1899410,0
1711437412560,1711437403287,1899889,0
1711437412560,1711437403327,1900189,0
1711437412560,1711437403367,1899388,0
1711437412560,1711437403408,1901442,0
1711437412560,1711437403447,1902323,0
1711437412560,1711437403487,1903653,0
1711437412560,1711437403527,1901589,0
1711437412560,1711437403567,1880093,0
1711437412560,1711437403608,1862565,0
1711437412560,1711437403648,1843233,0
1711437412560,1711437403688,1829072,0
1711437412560,1711437403728,1820840,0
1711437412560,1711437403768,1816962,0
1711437412560,1711437403809,1817622,0
1711437412560,1711437403849,1817308,0
1711437412560,1711437403889,1814362,0
1711437412560,1711437403929,1810576,0
1711437412560,1711437403969,1807731,0
1711437412560,1711437404010,1807140,0
1711437412560,1711437404049,1809061,0
1711437412560,1711437404090,1812493,0
1711437412560,1711437404130,1814941,0
1711437412560,1711437404170,1817459,0
1711437412560,1711437404211,1820206,0
1711437412560,1711437404250,1825012,0
1711437412560,1711437404290,1831603,0
1711437412560,1711437404331,1836376,0
1711437412560,1711437404371,1838813,0
1711437412560,1711437404411,1839886,0
1711437412560,1711437404451,1839085,0
1711437412560,1711437404491,1836498,0
1711437412560,1711437404531,1834167,0
1711437412560,1711437404571,1832789,0
1711437412560,1711437404612,1830992,0
1711437412560,1711437404652,1831034,0
1711437412560,1711437404692,1833617,0
1711437412560,1711437404732,1836632,0
1711437412560,1711437404772,1840099,0
1711437412560,1711437404813,1842954,0
1711437412560,1711437404852,1845355,0
1711437412560,1711437404893,1847733,0
1711437412560,1711437404933,1850081,0
1711437412560,1711437404973,1852288,0
1711437412560,1711437405014,1855201,0
1711437412560,1711437405053,1858171,0
1711437412560,1711437405093,1860870,0
1711437412560,1711437405133,1863867,0
1711437412560,1711437405174,1868182,0
1711437412560,1711437405214,1872663,0
1711437412560,1711437405254,1877369,0
1711437412560,1711437405294,1882984,0
1711437412560,1711437405334,1888247,0
1711437412560,1711437405374,1893473,0
1711437412560,1711437405415,1897419,0
1711437412560,1711437405455,1901554,0
1711437412560,1711437405495,1905353,0
1711437412560,1711437405535,1908904,0
1711437412560,1711437405575,1912713,0
1711437412560,1711437405616,1915839,0
1711437412560,1711437405656,1916469,0
1711437412560,1711437405695,1915609,0
1711437412560,1711437405736,1913915,0
1711437412560,1711437405776,1910559,0
1711437412560,1711437405817,1905901,0
1711437412560,1711437405856,1903869,0
1711437412560,1711437405896,1906521,0
1711437412560,1711437405936,1915155,0
1711437412560,1711437405977,1925808,0
1711437412560,1711437406017,1936237,0
1711437412560,1711437406057,1944539,0
1711437412560,1711437406097,1952238,0
1711437412560,1711437406137,1956558,0
1711437412560,1711437406177,1961390,0
1711437412560,1711437406218,1961333,0
1711437412560,1711437406257,1963159,0
1711437412560,1711437406297,1966881,0
1711437412560,1711437406337,1969816,0
1711437412560,1711437406377,1972814,0
1711437412560,1711437406418,1975341,0
1711437412560,1711437406458,1981558,0
1711437412560,1711437406498,1990072,0
1711437412560,1711437406538,1997863,0
1711437412560,1711437406578,2006932,0
1711437412560,1711437406619,2015391,0
1711437412560,1711437406658,2020096,0
1711437412560,1711437406698,2023436,0
1711437412560,1711437406738,2025924,0
1711437412560,1711437406778,2026121,0
1711437412560,1711437406819,2024211,0
1711437412560,1711437406859,2024184,0
1711437412560,1711437406899,2025247,0
1711437412560,1711437406939,2025801,0
1711437412560,1711437406979,2026270,0
1711437412560,1711437407020,2033970,0
1711437412560,1711437407059,2043593,0
1711437412560,1711437407099,2042592,0
1711437412560,1711437407139,2032942,0
1711437412560,1711437407179,2025701,0
1711437412560,1711437407220,2023656,0
1711437412560,1711437407260,2026784,0
1711437412560,1711437407300,2027939,0
1711437412560,1711437407340,2029296,0
1711437412560,1711437407380,2029902,0
1711437412560,1711437407421,2028907,0
1711437412560,1711437407460,2028902,0
1711437412560,1711437407500,2026112,0
1711437412560,1711437407540,2026857,0
1711437412560,1711437407581,2031609,0
1711437412560,1711437407621,2034548,0
1711437412560,1711437407661,2027720,0
1711437412560,1711437407701,2021968,0
1711437412560,1711437407741,2019767,0
1711437412560,1711437407781,2019985,0
1711437412560,1711437407822,2017714,0
1711437412560,1711437407861,2008698,0
1711437412560,1711437407901,2005100,0
1711437412560,1711437407941,2004467,0
1711437412560,1711437407981,2004547,0
1711437412560,1711437408022,2005456,0
1711437412560,1711437408062,2006523,0
1711437412560,1711437408102,2009068,0
1711437412560,1711437408142,2015695,0
1711437412560,1711437408182,2016093,0
1711437412560,1711437408223,2013179,0
1711437412560,1711437408262,2012190,0
1711437412560,1711437408302,2011260,0
1711437412560,1711437408342,2009812,0
1711437412560,1711437408382,2010185,0
1711437412560,1711437408423,2012359,0
1711437412560,1711437408463,2014391,0
1711437412560,1711437408503,2013461,0
1711437412560,1711437408543,2010957,0
1711437412560,1711437408583,2009848,0
1711437412560,1711437408624,2008520,0
1711437412560,1711437408663,2007555,0
1711437412560,1711437408703,2006161,0
1711437412560,1711437408743,2005045,0
1711437412560,1711437408784,2003764,0
1711437412560,1711437408824,2001909,0
1711437412560,1711437408864,1999848,0
1711437412560,1711437408904,1997974,0
1711437412560,1711437408944,1995988,0
1711437412560,1711437408984,1994362,0
1711437412560,1711437409025,1992630,0
1711437412560,1711437409064,1991431,0
1711437412560,1711437409105,1990626,0
1711437412560,1711437409145,1989622,0
1711437412560,1711437409185,1988724,0
1711437412560,1711437409226,1987743,0
1711437412560,1711437409265,1986721,0
1711437412560,1711437409305,1985916,0
1711437412560,1711437409345,1985201,0
1711437412560,1711437409385,1984691,0
1711437412560,1711437409426,1984502,0
1711437412560,1711437409466,1984076,0
1711437412560,1711437409506,1982785,0
1711437412560,1711437409546,1981592,0
1711437412560,1711437409586,1980051,0
1711437412560,1711437409627,1978981,0
1711437412560,1711437409666,1978109,0
1711437412560,1711437409706,1977471,0
1711437412560,1711437409747,1976684,0
1711437412560,1711437409786,1975972,0
1711437412560,1711437409827,1975396,0
1711437412560,1711437409867,1974501,0
1711437412560,1711437409907,1973535,0
1711437412560,1711437409947,1972752,0
1711437412560,1711437409987,1972254,0
1711437412560,1711437410028,1971704,0
1711437412560,1711437410067,1971607,0
1711437412560,1711437410108,1971426,0
1711437412560,1711437410148,1970781,0
1711437412560,1711437410188,1969839,0
1711437412560,1711437410229,1968450,0
1711437412560,1711437410268,1967082,0
1711437412560,1711437410308,1965861,0
1711437412560,1711437410348,1964831,0
1711437412560,1711437410388,1963964,0
1711437412560,1711437410429,1963240,0
1711437412560,1711437410469,1962397,0
1711437412560,1711437410509,1961563,0
1711437412560,1711437410549,1960622,0
1711437412560,1711437410589,1959914,0
1711437412560,1711437410630,1959302,0
1711437412560,1711437410669,1958662,0
1711437412560,1711437410710,1958105,0
1711437412560,1711437410750,1957626,0
1711437412560,1711437410790,1956913,0
1711437412560,1711437410831,1955493,0
1711437412560,1711437410870,1953871,0
1711437412560,1711437410910,1952347,0
1711437412560,1711437410951,1951142,0
1711437412560,1711437410991,1950181,0
1711437412560,1711437411031,1949275,0
1711437412560,1711437411071,1948473,0
1711437412560,1711437411111,1947729,0
1711437412560,1711437411151,1947115,0
1711437412560,1711437411191,1944317,0
1711437412560,1711437411232,1938179,0
1711437412560,1711437411271,1932491,0
1711437412560,1711437411312,1930061,0
1711437412560,1711437411352,1928748,0
1711437412560,1711437411392,1929330,0
1711437412560,1711437411433,1931590,0
1711437412560,1711437411472,1932129,0
1711437412560,1711437411512,1938903,0
1711437412560,1711437411552,1951871,0
1711437412560,1711437411592,1968142,0
1711437412560,1711437411633,1985346,0
1711437412560,1711437411673,1994749,0
1711437412560,1711437411713,1999396,0
1711437412560,1711437411753,2001926,0
1711437412560,1711437411793,2008287,0
1711437412560,1711437411834,2012845,0
1711437412560,1711437411873,2013730,0
1711437412560,1711437411914,2018622,0
1711437412560,1711437411954,2027159,0
1711437412560,1711437411994,2034532,0
1711437412560,1711437412035,2041736,0
1711437412560,1711437412074,2053407,0
1711437412560,1711437412114,2059574,0
1711437412560,1711437412155,2066017,0
1711437412560,1711437412195,2070682,0
1711437412560,1711437412236,2075319,0
1711437412560,1711437412275,2076416,0
1711437412560,1711437412315,2079147,0
1711437412560,1711437412355,2082427,0
1711437412560,1711437412396,2083544,0
1711437412560,1711437412436,2083399,0
1711437412560,1711437412476,2089541,0
1711437424565,1711437412514,2094597,0
1711437424565,1711437412554,2098708,0
1711437424565,1711437412594,2095339,0
1711437424565,1711437412635,2083433,0
1711437424565,1711437412674,2074350,0
1711437424565,1711437412714,2072137,0
1711437424565,1711437412755,2066087,0
1711437424565,1711437412794,2052555,0
1711437424565,1711437412835,2037346,0
1711437424565,1711437412875,2024252,0
1711437424565,1711437412915,2012875,0
1711437424565,1711437412955,2006763,0
1711437424565,1711437412995,2006334,0
1711437424565,1711437413036,2012002,0
1711437424565,1711437413075,2018466,0
1711437424565,1711437413115,2021219,0
1711437424565,1711437413155,2023296,0
1711437424565,1711437413195,2022295,0
1711437424565,1711437413236,2018608,0
1711437424565,1711437413276,2013632,0
1711437424565,1711437413316,2009661,0
1711437424565,1711437413356,2007610,0
1711437424565,1711437413396,2005552,0
1711437424565,1711437413437,2004208,0
1711437424565,1711437413476,2003249,0
1711437424565,1711437413516,2002760,0
1711437424565,1711437413556,2002505,0
1711437424565,1711437413597,2001882,0
1711437424565,1711437413637,2001973,0
1711437424565,1711437413677,1998923,0
1711437424565,1711437413717,1997813,0
1711437424565,1711437413757,1996145,0
1711437424565,1711437413797,1994247,0
1711437424565,1711437413838,1990864,0
1711437424565,1711437413877,1987570,0
1711437424565,1711437413917,1985335,0
1711437424565,1711437413958,1983887,0
1711437424565,1711437413998,1982372,0
1711437424565,1711437414038,1980641,0
1711437424565,1711437414078,1978584,0
1711437424565,1711437414118,1976932,0
1711437424565,1711437414158,1975588,0
1711437424565,1711437414198,1974301,0
1711437424565,1711437414239,1973176,0
1711437424565,1711437414278,1972142,0
1711437424565,1711437414319,1971449,0
1711437424565,1711437414359,1970862,0
1711437424565,1711437414399,1969584,0
1711437424565,1711437414440,1965578,0
1711437424565,1711437414479,1959796,0
1711437424565,1711437414519,1954106,0
1711437424565,1711437414559,1950380,0
1711437424565,1711437414599,1947723,0
1711437424565,1711437414640,1945863,0
1711437424565,1711437414680,1944028,0
1711437424565,1711437414720,1941846,0
1711437424565,1711437414760,1939742,0
1711437424565,1711437414800,1938091,0
1711437424565,1711437414841,1936014,0
1711437424565,1711437414880,1934645,0
1711437424565,1711437414920,1933505,0
1711437424565,1711437414960,1932283,0
1711437424565,1711437415000,1930438,0
1711437424565,1711437415041,1925013,0
1711437424565,1711437415081,1916242,0
1711437424565,1711437415121,1909677,0
1711437424565,1711437415161,1905210,0
1711437424565,1711437415201,1901905,0
1711437424565,1711437415242,1899716,0
1711437424565,1711437415281,1898326,0
1711437424565,1711437415321,1897112,0
1711437424565,1711437415361,1896215,0
1711437424565,1711437415402,1895950,0
1711437424565,1711437415442,1896298,0
1711437424565,1711437415482,1896839,0
1711437424565,1711437415522,1897431,0
1711437424565,1711437415562,1897928,0
1711437424565,1711437415602,1898490,0
1711437424565,1711437415643,1896968,0
1711437424565,1711437415682,1889060,0
1711437424565,1711437415722,1880075,0
1711437424565,1711437415763,1873904,0
1711437424565,1711437415803,1869575,0
1711437424565,1711437415844,1866691,0
1711437424565,1711437415883,1864742,0
1711437424565,1711437415923,1861986,0
1711437424565,1711437415963,1858545,0
1711437424565,1711437416004,1854634,0
1711437424565,1711437416044,1851737,0
1711437424565,1711437416084,1850222,0
1711437424565,1711437416124,1849340,0
1711437424565,1711437416164,1848783,0
1711437424565,1711437416204,1848411,0
1711437424565,1711437416245,1848240,0
1711437424565,1711437416284,1848176,0
1711437424565,1711437416324,1843433,0
1711437424565,1711437416365,1833785,0
1711437424565,1711437416405,1826546,0
1711437424565,1711437416445,1822844,0
1711437424565,1711437416485,1821072,0
1711437424565,1711437416525,1820699,0
1711437424565,1711437416565,1820423,0
1711437424565,1711437416605,1820091,0
1711437424565,1711437416646,1819706,0
1711437424565,1711437416685,1819253,0
1711437424565,1711437416726,1819036,0
1711437424565,1711437416766,1819267,0
1711437424565,1711437416806,1819580,0
1711437424565,1711437416847,1820413,0
1711437424565,1711437416886,1821307,0
1711437424565,1711437416926,1822479,0
1711437424565,1711437416966,1823074,0
1711437424565,1711437417006,1819607,0
1711437424565,1711437417047,1811372,0
1711437424565,1711437417087,1805354,0
1711437424565,1711437417127,1802416,0
1711437424565,1711437417167,1801431,0
1711437424565,1711437417207,1801265,0
1711437424565,1711437417248,1801393,0
1711437424565,1711437417287,1801185,0
1711437424565,1711437417328,1800852,0
1711437424565,1711437417368,1800394,0
1711437424565,1711437417408,1800620,0
1711437424565,1711437417449,1801145,0
1711437424565,1711437417488,1802138,0
1711437424565,1711437417528,1803425,0
1711437424565,1711437417568,1804714,0
1711437424565,1711437417608,1806077,0
1711437424565,1711437417649,1804020,0
1711437424565,1711437417689,1794361,0
1711437424565,1711437417729,1784617,0
1711437424565,1711437417769,1776603,0
1711437424565,1711437417809,1768664,0
1711437424565,1711437417850,1774562,0
1711437424565,1711437417890,1779069,0
1711437424565,1711437417930,1778662,0
1711437424565,1711437417970,1773367,0
1711437424565,1711437418010,1764635,0
1711437424565,1711437418051,1759444,0
1711437424565,1711437418090,1751708,0
1711437424565,1711437418131,1745151,0
1711437424565,1711437418171,1739676,0
1711437424565,1711437418211,1733270,0
1711437424565,1711437418252,1736086,0
1711437424565,1711437418291,1740934,0
1711437424565,1711437418331,1732784,0
1711437424565,1711437418371,1719308,0
1711437424565,1711437418412,1714419,0
1711437424565,1711437418452,1711804,0
1711437424565,1711437418492,1711308,0
1711437424565,1711437418532,1715617,0
1711437424565,1711437418572,1715562,0
1711437424565,1711437418612,1710384,0
1711437424565,1711437418654,1703083,0
1711437424565,1711437418693,1695725,0
1711437424565,1711437418733,1688715,0
1711437424565,1711437418773,1684221,0
1711437424565,1711437418813,1681483,0
1711437424565,1711437418854,1679584,0
1711437424565,1711437418893,1677536,0
1711437424565,1711437418933,1675749,0
1711437424565,1711437418973,1674270,0
1711437424565,1711437419014,1669052,0
1711437424565,1711437419054,1648735,0
1711437424565,1711437419094,1626286,0
1711437424565,1711437419134,1610375,0
1711437424565,1711437419174,1600574,0
1711437424565,1711437419214,1594437,0
1711437424565,1711437419255,1590052,0
1711437424565,1711437419294,1585038,0
1711437424565,1711437419334,1577728,0
1711437424565,1711437419375,1570297,0
1711437424565,1711437419414,1563754,0
1711437424565,1711437419455,1559560,0
1711437424565,1711437419495,1556845,0
1711437424565,1711437419535,1555769,0
1711437424565,1711437419575,1554867,0
1711437424565,1711437419615,1554342,0
1711437424565,1711437419656,1554747,0
1711437424565,1711437419695,1553464,0
1711437424565,1711437419735,1538285,0
1711437424565,1711437419775,1519849,0
1711437424565,1711437419816,1507152,0
1711437424565,1711437419856,1499523,0
1711437424565,1711437419896,1494347,0
1711437424565,1711437419936,1488166,0
1711437424565,1711437419976,1484119,0
1711437424565,1711437420016,1481333,0
1711437424565,1711437420057,1482478,0
1711437424565,1711437420096,1478892,0
1711437424565,1711437420136,1491264,0
1711437424565,1711437420176,1516880,0
1711437424565,1711437420217,1535138,0
1711437424565,1711437420257,1548455,0
1711437424565,1711437420297,1572643,0
1711437424565,1711437420337,1587985,0
1711437424565,1711437420377,1596847,0
1711437424565,1711437420417,1606447,0
1711437424565,1711437420458,1616022,0
1711437424565,1711437420497,1624798,0
1711437424565,1711437420537,1632883,0
1711437424565,1711437420578,1640621,0
1711437424565,1711437420618,1647712,0
1711437424565,1711437420659,1654722,0
1711437424565,1711437420698,1661097,0
1711437424565,1711437420738,1666287,0
1711437424565,1711437420778,1670359,0
1711437424565,1711437420818,1673845,0
1711437424565,1711437420859,1677769,0
1711437424565,1711437420899,1681400,0
1711437424565,1711437420939,1684956,0
1711437424565,1711437420979,1688232,0
1711437424565,1711437421019,1690172,0
1711437424565,1711437421060,1691513,0
1711437424565,1711437421099,1692567,0
1711437424565,1711437421139,1691974,0
1711437424565,1711437421180,1678534,0
1711437424565,1711437421220,1661814,0
1711437424565,1711437421260,1654166,0
1711437424565,1711437421300,1654045,0
1711437424565,1711437421340,1655961,0
1711437424565,1711437421380,1658035,0
1711437424565,1711437421420,1660380,0
1711437424565,1711437421461,1661564,0
1711437424565,1711437421501,1661632,0
1711437424565,1711437421541,1661937,0
1711437424565,1711437421581,1662937,0
1711437424565,1711437421621,1664607,0
1711437424565,1711437421662,1666853,0
1711437424565,1711437421701,1669448,0
1711437424565,1711437421741,1672106,0
1711437424565,1711437421781,1674949,0
1711437424565,1711437421821,1677890,0
1711437424565,1711437421862,1680854,0
1711437424565,1711437421902,1683754,0
1711437424565,1711437421942,1681547,0
1711437424565,1711437421982,1673153,0
1711437424565,1711437422022,1667197,0
1711437424565,1711437422063,1665942,0
1711437424565,1711437422102,1667046,0
1711437424565,1711437422142,1669413,0
1711437424565,1711437422183,1672072,0
1711437424565,1711437422223,1673376,0
1711437424565,1711437422264,1673971,0
1711437424565,1711437422303,1674471,0
1711437424565,1711437422343,1675474,0
1711437424565,1711437422383,1677112,0
1711437424565,1711437422423,1679164,0
1711437424565,1711437422464,1681825,0
1711437424565,1711437422504,1684597,0
1711437424565,1711437422544,1687344,0
1711437424565,1711437422584,1689968,0
1711437424565,1711437422624,1692760,0
1711437424565,1711437422665,1695561,0
1711437424565,1711437422704,1696141,0
1711437424565,1711437422744,1688239,0
1711437424565,1711437422784,1680704,0
1711437424565,1711437422825,1677481,0
1711437424565,1711437422866,1677979,0
1711437424565,1711437422905,1679869,0
1711437424565,1711437422945,1682670,0
1711437424565,1711437422985,1684828,0
1711437424565,1711437423025,1685455,0
1711437424565,1711437423066,1685504,0
1711437424565,1711437423106,1686090,0
1711437424565,1711437423146,1687435,0
1711437424565,1711437423186,1689794,0
1711437424565,1711437423226,1692751,0
1711437424565,1711437423267,1695653,0
1711437424565,1711437423306,1698740,0
1711437424565,1711437423347,1701757,0
1711437424565,1711437423387,1704882,0
1711437424565,1711437423427,1703003,0
1711437424565,1711437423468,1694021,0
1711437424565,1711437423507,1687639,0
1711437424565,1711437423547,1686007,0
1711437424565,1711437423587,1687222,0
1711437424565,1711437423627,1689621,0
1711437424565,1711437423668,1692399,0
1711437424565,1711437423708,1694262,0
1711437424565,1711437423748,1694483,0
1711437424565,1711437423788,1694489,0
1711437424565,1711437423828,1695459,0
1711437424565,1711437423869,1697402,0
1711437424565,1711437423908,1699833,0
1711437424565,1711437423949,1702604,0
1711437424565,1711437423989,1705502,0
1711437424565,1711437424029,1708364,0
1711437424565,1711437424070,1711236,0
1711437424565,1711437424109,1713973,0
1711437424565,1711437424149,1708607,0
1711437424565,1711437424190,1696686,0
1711437424565,1711437424229,1689221,0
1711437424565,1711437424270,1687219,0
1711437424565,1711437424310,1688021,0
1711437424565,1711437424350,1689966,0
1711437424565,1711437424390,1691628,0
1711437424565,1711437424430,1691462,0
1711437424565,1711437424471,1690124,0
1711437424565,1711437424510,1689294,0
1711437436623,1711437424553,1689634,0
1711437436623,1711437424593,1690715,0
1711437436623,1711437424633,1692723,0
1711437436623,1711437424674,1695122,0
1711437436623,1711437424713,1697617,0
1711437436623,1711437424753,1700218,0
1711437436623,1711437424794,1702746,0
1711437436623,1711437424834,1705278,0
1711437436623,1711437424874,1706494,0
1711437436623,1711437424914,1696605,0
1711437436623,1711437424954,1684867,0
1711437436623,1711437424994,1678381,0
1711437436623,1711437425034,1679519,0
1711437436623,1711437425075,1681420,0
1711437436623,1711437425114,1682522,0
1711437436623,1711437425155,1681638,0
1711437436623,1711437425194,1680302,0
1711437436623,1711437425235,1679801,0
1711437436623,1711437425275,1680656,0
1711437436623,1711437425315,1682365,0
1711437436623,1711437425355,1684461,0
1711437436623,1711437425395,1686739,0
1711437436623,1711437425435,1689400,0
1711437436623,1711437425476,1691769,0
1711437436623,1711437425515,1694093,0
1711437436623,1711437425555,1696445,0
1711437436623,1711437425595,1698747,0
1711437436623,1711437425636,1693483,0
1711437436623,1711437425676,1680530,0
1711437436623,1711437425716,1672348,0
1711437436623,1711437425756,1669958,0
1711437436623,1711437425796,1670403,0
1711437436623,1711437425836,1672053,0
1711437436623,1711437425877,1673536,0
1711437436623,1711437425916,1672837,0
1711437436623,1711437425956,1670982,0
1711437436623,1711437425997,1669900,0
1711437436623,1711437426036,1670214,0
1711437436623,1711437426077,1671467,0
1711437436623,1711437426117,1673310,0
1711437436623,1711437426157,1675670,0
1711437436623,1711437426197,1678042,0
1711437436623,1711437426237,1680292,0
1711437436623,1711437426278,1682343,0
1711437436623,1711437426317,1684697,0
1711437436623,1711437426357,1686686,0
1711437436623,1711437426397,1686641,0
1711437436623,1711437426437,1675002,0
1711437436623,1711437426478,1663087,0
1711437436623,1711437426518,1657564,0
1711437436623,1711437426558,1656338,0
1711437436623,1711437426598,1657108,0
1711437436623,1711437426638,1658290,0
1711437436623,1711437426679,1657451,0
1711437436623,1711437426718,1654466,0
1711437436623,1711437426758,1651595,0
1711437436623,1711437426798,1650333,0
1711437436623,1711437426839,1650269,0
1711437436623,1711437426879,1651183,0
1711437436623,1711437426919,1652591,0
1711437436623,1711437426959,1654134,0
1711437436623,1711437426999,1655440,0
1711437436623,1711437427039,1656660,0
1711437436623,1711437427080,1658063,0
1711437436623,1711437427119,1659283,0
1711437436623,1711437427159,1654405,0
1711437436623,1711437427200,1640283,0
1711437436623,1711437427240,1630356,0
1711437436623,1711437427281,1626694,0
1711437436623,1711437427320,1626346,0
1711437436623,1711437427360,1628069,0
1711437436623,1711437427400,1629442,0
1711437436623,1711437427441,1628059,0
1711437436623,1711437427481,1625163,0
1711437436623,1711437427521,1623390,0
1711437436623,1711437427561,1623482,0
1711437436623,1711437427601,1625161,0
1711437436623,1711437427641,1627457,0
1711437436623,1711437427682,1630276,0
1711437436623,1711437427721,1633156,0
1711437436623,1711437427761,1636061,0
1711437436623,1711437427802,1638432,0
1711437436623,1711437427842,1630020,0
1711437436623,1711437427882,1618319,0
1711437436623,1711437427922,1612806,0
1711437436623,1711437427962,1612078,0
1711437436623,1711437428002,1613840,0
1711437436623,1711437428042,1616581,0
1711437436623,1711437428083,1618353,0
1711437436623,1711437428122,1617703,0
1711437436623,1711437428163,1616417,0
1711437436623,1711437428203,1616896,0
1711437436623,1711437428243,1618520,0
1711437436623,1711437428284,1621311,0
1711437436623,1711437428323,1624280,0
1711437436623,1711437428363,1627748,0
1711437436623,1711437428403,1631067,0
1711437436623,1711437428443,1634489,0
1711437436623,1711437428484,1637394,0
1711437436623,1711437428524,1633102,0
1711437436623,1711437428564,1616728,0
1711437436623,1711437428604,1605210,0
1711437436623,1711437428644,1600600,0
1711437436623,1711437428685,1600009,0
1711437436623,1711437428724,1600797,0
1711437436623,1711437428764,1601838,0
1711437436623,1711437428804,1601219,0
1711437436623,1711437428845,1599310,0
1711437436623,1711437428886,1598141,0
1711437436623,1711437428925,1598482,0
1711437436623,1711437428965,1600022,0
1711437436623,1711437429005,1602198,0
1711437436623,1711437429045,1604752,0
1711437436623,1711437429086,1607567,0
1711437436623,1711437429126,1610353,0
1711437436623,1711437429166,1612997,0
1711437436623,1711437429206,1615647,0
1711437436623,1711437429246,1618430,0
1711437436623,1711437429287,1617126,0
1711437436623,1711437429326,1602333,0
1711437436623,1711437429366,1590441,0
1711437436623,1711437429406,1585302,0
1711437436623,1711437429446,1584277,0
1711437436623,1711437429488,1584775,0
1711437436623,1711437429527,1585500,0
1711437436623,1711437429567,1584965,0
1711437436623,1711437429607,1583264,0
1711437436623,1711437429647,1582308,0
1711437436623,1711437429688,1582876,0
1711437436623,1711437429727,1584730,0
1711437436623,1711437429768,1587497,0
1711437436623,1711437429808,1590674,0
1711437436623,1711437429848,1593999,0
1711437436623,1711437429888,1597395,0
1711437436623,1711437429928,1600731,0
1711437436623,1711437429968,1603912,0
1711437436623,1711437430008,1607431,0
1711437436623,1711437430048,1611059,0
1711437436623,1711437430089,1614700,0
1711437436623,1711437430128,1610764,0
1711437436623,1711437430169,1597203,0
1711437436623,1711437430209,1588710,0
1711437436623,1711437430249,1586448,0
1711437436623,1711437430290,1587158,0
1711437436623,1711437430329,1589087,0
1711437436623,1711437430369,1590418,0
1711437436623,1711437430409,1590196,0
1711437436623,1711437430450,1589179,0
1711437436623,1711437430490,1589120,0
1711437436623,1711437430530,1590697,0
1711437436623,1711437430570,1593233,0
1711437436623,1711437430610,1596433,0
1711437436623,1711437430650,1600069,0
1711437436623,1711437430691,1603608,0
1711437436623,1711437430730,1607269,0
1711437436623,1711437430771,1610713,0
1711437436623,1711437430811,1614091,0
1711437436623,1711437430851,1617507,0
1711437436623,1711437430892,1621041,0
1711437436623,1711437430931,1624572,0
1711437436623,1711437430971,1620875,0
1711437436623,1711437431012,1608939,0
1711437436623,1711437431052,1601723,0
1711437436623,1711437431092,1600075,0
1711437436623,1711437431132,1601073,0
1711437436623,1711437431172,1603212,0
1711437436623,1711437431212,1604806,0
1711437436623,1711437431252,1604281,0
1711437436623,1711437431293,1603267,0
1711437436623,1711437431332,1603102,0
1711437436623,1711437431373,1604085,0
1711437436623,1711437431413,1605771,0
1711437436623,1711437431453,1607829,0
1711437436623,1711437431494,1610374,0
1711437436623,1711437431533,1613489,0
1711437436623,1711437431573,1616692,0
1711437436623,1711437431613,1619616,0
1711437436623,1711437431653,1622120,0
1711437436623,1711437431694,1624732,0
1711437436623,1711437431733,1627357,0
1711437436623,1711437431774,1624579,0
1711437436623,1711437431814,1613357,0
1711437436623,1711437431854,1605750,0
1711437436623,1711437431895,1603652,0
1711437436623,1711437431934,1604703,0
1711437436623,1711437431974,1607196,0
1711437436623,1711437432014,1609695,0
1711437436623,1711437432054,1610592,0
1711437436623,1711437432095,1609540,0
1711437436623,1711437432134,1609232,0
1711437436623,1711437432174,1610237,0
1711437436623,1711437432214,1612379,0
1711437436623,1711437432255,1615413,0
1711437436623,1711437432295,1618666,0
1711437436623,1711437432335,1622374,0
1711437436623,1711437432375,1626396,0
1711437436623,1711437432415,1630414,0
1711437436623,1711437432455,1633326,0
1711437436623,1711437432496,1626711,0
1711437436623,1711437432535,1616273,0
1711437436623,1711437432575,1611411,0
1711437436623,1711437432616,1612270,0
1711437436623,1711437432656,1616339,0
1711437436623,1711437432696,1621205,0
1711437436623,1711437432736,1624382,0
1711437436623,1711437432776,1625314,0
1711437436623,1711437432816,1624936,0
1711437436623,1711437432856,1625548,0
1711437436623,1711437432897,1627889,0
1711437436623,1711437432936,1631201,0
1711437436623,1711437432976,1635054,0
1711437436623,1711437433016,1638963,0
1711437436623,1711437433056,1642929,0
1711437436623,1711437433097,1646702,0
1711437436623,1711437433137,1650501,0
1711437436623,1711437433177,1650959,0
1711437436623,1711437433217,1641406,0
1711437436623,1711437433257,1634080,0
1711437436623,1711437433298,1632275,0
1711437436623,1711437433337,1633494,0
1711437436623,1711437433377,1636099,0
1711437436623,1711437433417,1638863,0
1711437436623,1711437433458,1640392,0
1711437436623,1711437433498,1640641,0
1711437436623,1711437433538,1640911,0
1711437436623,1711437433578,1642236,0
1711437436623,1711437433618,1644670,0
1711437436623,1711437433658,1647645,0
1711437436623,1711437433699,1651023,0
1711437436623,1711437433738,1654491,0
1711437436623,1711437433778,1657865,0
1711437436623,1711437433818,1660947,0
1711437436623,1711437433858,1664223,0
1711437436623,1711437433899,1665789,0
1711437436623,1711437433939,1656518,0
1711437436623,1711437433979,1646291,0
1711437436623,1711437434019,1642093,0
1711437436623,1711437434059,1641637,0
1711437436623,1711437434100,1642817,0
1711437436623,1711437434139,1644312,0
1711437436623,1711437434179,1645158,0
1711437436623,1711437434219,1644748,0
1711437436623,1711437434259,1644282,0
1711437436623,1711437434300,1644400,0
1711437436623,1711437434340,1645085,0
1711437436623,1711437434380,1646404,0
1711437436623,1711437434420,1647575,0
1711437436623,1711437434460,1649217,0
1711437436623,1711437434501,1651040,0
1711437436623,1711437434540,1653339,0
1711437436623,1711437434580,1655705,0
1711437436623,1711437434620,1658177,0
1711437436623,1711437434661,1660550,0
1711437436623,1711437434701,1661628,0
1711437436623,1711437434741,1653236,0
1711437436623,1711437434781,1642696,0
1711437436623,1711437434821,1636895,0
1711437436623,1711437434861,1635327,0
1711437436623,1711437434902,1635459,0
1711437436623,1711437434941,1636269,0
1711437436623,1711437434981,1636802,0
1711437436623,1711437435022,1636050,0
1711437436623,1711437435061,1634885,0
1711437436623,1711437435102,1634316,0
1711437436623,1711437435142,1634738,0
1711437436623,1711437435182,1635784,0
1711437436623,1711437435222,1637410,0
1711437436623,1711437435262,1639278,0
1711437436623,1711437435303,1641376,0
1711437436623,1711437435342,1643391,0
1711437436623,1711437435382,1645350,0
1711437436623,1711437435422,1647182,0
1711437436623,1711437435463,1649227,0
1711437436623,1711437435503,1651211,0
1711437436623,1711437435543,1645292,0
1711437436623,1711437435583,1634668,0
1711437436623,1711437435623,1627543,0
1711437436623,1711437435663,1625115,0
1711437436623,1711437435704,1625400,0
1711437436623,1711437435743,1626843,0
1711437436623,1711437435783,1627741,0
1711437436623,1711437435823,1626659,0
1711437436623,1711437435864,1624675,0
1711437436623,1711437435904,1623852,0
1711437436623,1711437435944,1624279,0
1711437436623,1711437435984,1625804,0
1711437436623,1711437436024,1627978,0
1711437436623,1711437436064,1630372,0
1711437436623,1711437436105,1633025,0
1711437436623,1711437436144,1635562,0
1711437436623,1711437436185,1637935,0
1711437436623,1711437436225,1639292,0
1711437436623,1711437436265,1631403,0
1711437436623,1711437436306,1621408,0
1711437436623,1711437436345,1616099,0
1711437436623,1711437436385,1615084,0
1711437436623,1711437436425,1616441,0
1711437436623,1711437436466,1618731,0
1711437436623,1711437436506,1620431,0
1711437436623,1711437436546,1620256,0
1711437448667,1711437436586,1619386,0
1711437448667,1711437436626,1619523,0
1711437448667,1711437436666,1621203,0
1711437448667,1711437436707,1623592,0
1711437448667,1711437436746,1626775,0
1711437448667,1711437436787,1629904,0
1711437448667,1711437436827,1633165,0
1711437448667,1711437436867,1636625,0
1711437448667,1711437436908,1639404,0
1711437448667,1711437436947,1633831,0
1711437448667,1711437436987,1623762,0
1711437448667,1711437437027,1617922,0
1711437448667,1711437437068,1616803,0
1711437448667,1711437437108,1618172,0
1711437448667,1711437437148,1620630,0
1711437448667,1711437437188,1622794,0
1711437448667,1711437437228,1623624,0
1711437448667,1711437437268,1623472,0
1711437448667,1711437437309,1623988,0
1711437448667,1711437437348,1625338,0
1711437448667,1711437437388,1627669,0
1711437448667,1711437437429,1630536,0
1711437448667,1711437437469,1633569,0
1711437448667,1711437437510,1636660,0
1711437448667,1711437437549,1639766,0
1711437448667,1711437437589,1642985,0
1711437448667,1711437437629,1645770,0
1711437448667,1711437437669,1641299,0
1711437448667,1711437437710,1629685,0
1711437448667,1711437437750,1621764,0
1711437448667,1711437437790,1619263,0
1711437448667,1711437437830,1619639,0
1711437448667,1711437437870,1620827,0
1711437448667,1711437437911,1622196,0
1711437448667,1711437437950,1622391,0
1711437448667,1711437437990,1621468,0
1711437448667,1711437438031,1621103,0
1711437448667,1711437438071,1621908,0
1711437448667,1711437438111,1623432,0
1711437448667,1711437438151,1625711,0
1711437448667,1711437438191,1628401,0
1711437448667,1711437438231,1631153,0
1711437448667,1711437438271,1634025,0
1711437448667,1711437438312,1636906,0
1711437448667,1711437438351,1639612,0
1711437448667,1711437438392,1642633,0
1711437448667,1711437438432,1643725,0
1711437448667,1711437438472,1634397,0
1711437448667,1711437438513,1624174,0
1711437448667,1711437438552,1618410,0
1711437448667,1711437438592,1619454,0
1711437448667,1711437438632,1621154,0
1711437448667,1711437438672,1622234,0
1711437448667,1711437438713,1621689,0
1711437448667,1711437438753,1621108,0
1711437448667,1711437438793,1621469,0
1711437448667,1711437438833,1622623,0
1711437448667,1711437438873,1624785,0
1711437448667,1711437438914,1627341,0
1711437448667,1711437438953,1630186,0
1711437448667,1711437438993,1633023,0
1711437448667,1711437439033,1636136,0
1711437448667,1711437439073,1638921,0
1711437448667,1711437439114,1641801,0
1711437448667,1711437439153,1644762,0
1711437448667,1711437439193,1647815,0
1711437448667,1711437439234,1648408,0
1711437448667,1711437439274,1639764,0
1711437448667,1711437439314,1631419,0
1711437448667,1711437439354,1627929,0
1711437448667,1711437439394,1627854,0
1711437448667,1711437439434,1629443,0
1711437448667,1711437439474,1631518,0
1711437448667,1711437439515,1632815,0
1711437448667,1711437439554,1632613,0
1711437448667,1711437439594,1632288,0
1711437448667,1711437439634,1632752,0
1711437448667,1711437439674,1634342,0
1711437448667,1711437439715,1636548,0
1711437448667,1711437439755,1639214,0
1711437448667,1711437439795,1641875,0
1711437448667,1711437439835,1644843,0
1711437448667,1711437439875,1647736,0
1711437448667,1711437439916,1650496,0
1711437448667,1711437439955,1653358,0
1711437448667,1711437439995,1656260,0
1711437448667,1711437440035,1659386,0
1711437448667,1711437440075,1660704,0
1711437448667,1711437440116,1653925,0
1711437448667,1711437440155,1646441,0
1711437448667,1711437440196,1643350,0
1711437448667,1711437440236,1643609,0
1711437448667,1711437440276,1645243,0
1711437448667,1711437440317,1647329,0
1711437448667,1711437440356,1648993,0
1711437448667,1711437440396,1649019,0
1711437448667,1711437440436,1648503,0
1711437448667,1711437440476,1648775,0
1711437448667,1711437440517,1649864,0
1711437448667,1711437440556,1651713,0
1711437448667,1711437440596,1653789,0
1711437448667,1711437440636,1656075,0
1711437448667,1711437440677,1658546,0
1711437448667,1711437440717,1661175,0
1711437448667,1711437440757,1663473,0
1711437448667,1711437440797,1665766,0
1711437448667,1711437440837,1668144,0
1711437448667,1711437440877,1670576,0
1711437448667,1711437440918,1672047,0
1711437448667,1711437440957,1666249,0
1711437448667,1711437440997,1659493,0
1711437448667,1711437441037,1656261,0
1711437448667,1711437441077,1656183,0
1711437448667,1711437441118,1657883,0
1711437448667,1711437441158,1660239,0
1711437448667,1711437441198,1662195,0
1711437448667,1711437441238,1662546,0
1711437448667,1711437441278,1662246,0
1711437448667,1711437441319,1662587,0
1711437448667,1711437441358,1663625,0
1711437448667,1711437441398,1665612,0
1711437448667,1711437441438,1668203,0
1711437448667,1711437441478,1671009,0
1711437448667,1711437441519,1673926,0
1711437448667,1711437441559,1676574,0
1711437448667,1711437441599,1679063,0
1711437448667,1711437441639,1681749,0
1711437448667,1711437441679,1681689,0
1711437448667,1711437441720,1675560,0
1711437448667,1711437441759,1670566,0
1711437448667,1711437441799,1669140,0
1711437448667,1711437441839,1670055,0
1711437448667,1711437441880,1671979,0
1711437448667,1711437441920,1674269,0
1711437448667,1711437441960,1675809,0
1711437448667,1711437442000,1676294,0
1711437448667,1711437442040,1676709,0
1711437448667,1711437442080,1677691,0
1711437448667,1711437442121,1679442,0
1711437448667,1711437442160,1681731,0
1711437448667,1711437442200,1684229,0
1711437448667,1711437442240,1686895,0
1711437448667,1711437442280,1689660,0
1711437448667,1711437442321,1692388,0
1711437448667,1711437442361,1694894,0
1711437448667,1711437442401,1697399,0
1711437448667,1711437442441,1694198,0
1711437448667,1711437442481,1685932,0
1711437448667,1711437442522,1680494,0
1711437448667,1711437442561,1679074,0
1711437448667,1711437442601,1679512,0
1711437448667,1711437442641,1680844,0
1711437448667,1711437442681,1682148,0
1711437448667,1711437442722,1682501,0
1711437448667,1711437442762,1681893,0
1711437448667,1711437442802,1681641,0
1711437448667,1711437442842,1682172,0
1711437448667,1711437442882,1683520,0
1711437448667,1711437442923,1685154,0
1711437448667,1711437442962,1687172,0
1711437448667,1711437443002,1689454,0
1711437448667,1711437443042,1691829,0
1711437448667,1711437443083,1693966,0
1711437448667,1711437443123,1696347,0
1711437448667,1711437443163,1698576,0
1711437448667,1711437443203,1699451,0
1711437448667,1711437443243,1692482,0
1711437448667,1711437443283,1684321,0
1711437448667,1711437443324,1680150,0
1711437448667,1711437443363,1679131,0
1711437448667,1711437443403,1679682,0
1711437448667,1711437443444,1680716,0
1711437448667,1711437443484,1681120,0
1711437448667,1711437443524,1680295,0
1711437448667,1711437443564,1679202,0
1711437448667,1711437443604,1679036,0
1711437448667,1711437443644,1679500,0
1711437448667,1711437443684,1680852,0
1711437448667,1711437443725,1682599,0
1711437448667,1711437443765,1684649,0
1711437448667,1711437443805,1686752,0
1711437448667,1711437443845,1688907,0
1711437448667,1711437443885,1691044,0
1711437448667,1711437443926,1692951,0
1711437448667,1711437443965,1695122,0
1711437448667,1711437444005,1696456,0
1711437448667,1711437444046,1690117,0
1711437448667,1711437444085,1681425,0
1711437448667,1711437444126,1676604,0
1711437448667,1711437444166,1675457,0
1711437448667,1711437444206,1675761,0
1711437448667,1711437444246,1676908,0
1711437448667,1711437444286,1677422,0
1711437448667,1711437444327,1676516,0
1711437448667,1711437444366,1675263,0
1711437448667,1711437444407,1674641,0
1711437448667,1711437444447,1675009,0
1711437448667,1711437444487,1676157,0
1711437448667,1711437444528,1677864,0
1711437448667,1711437444567,1679938,0
1711437448667,1711437444607,1682993,0
1711437448667,1711437444648,1684686,0
1711437448667,1711437444687,1686153,0
1711437448667,1711437444728,1687597,0
1711437448667,1711437444768,1689432,0
1711437448667,1711437444808,1691383,0
1711437448667,1711437444848,1689034,0
1711437448667,1711437444888,1680004,0
1711437448667,1711437444929,1672446,0
1711437448667,1711437444968,1669388,0
1711437448667,1711437445009,1669114,0
1711437448667,1711437445049,1669995,0
1711437448667,1711437445089,1671008,0
1711437448667,1711437445130,1670624,0
1711437448667,1711437445169,1668988,0
1711437448667,1711437445209,1667758,0
1711437448667,1711437445249,1667361,0
1711437448667,1711437445289,1667936,0
1711437448667,1711437445330,1669306,0
1711437448667,1711437445370,1670935,0
1711437448667,1711437445410,1672763,0
1711437448667,1711437445450,1674731,0
1711437448667,1711437445490,1676467,0
1711437448667,1711437445531,1678346,0
1711437448667,1711437445570,1680358,0
1711437448667,1711437445610,1682207,0
1711437448667,1711437445651,1682414,0
1711437448667,1711437445691,1672364,0
1711437448667,1711437445732,1660982,0
1711437448667,1711437445771,1655301,0
1711437448667,1711437445811,1654096,0
1711437448667,1711437445851,1654779,0
1711437448667,1711437445891,1656187,0
1711437448667,1711437445932,1656636,0
1711437448667,1711437445972,1655290,0
1711437448667,1711437446011,1653487,0
1711437448667,1711437446052,1652835,0
1711437448667,1711437446092,1653317,0
1711437448667,1711437446132,1654626,0
1711437448667,1711437446172,1656409,0
1711437448667,1711437446212,1658423,0
1711437448667,1711437446252,1660539,0
1711437448667,1711437446292,1662501,0
1711437448667,1711437446333,1664453,0
1711437448667,1711437446372,1666448,0
1711437448667,1711437446412,1668462,0
1711437448667,1711437446452,1669311,0
1711437448667,1711437446492,1661772,0
1711437448667,1711437446533,1651568,0
1711437448667,1711437446573,1645777,0
1711437448667,1711437446613,1644138,0
1711437448667,1711437446653,1644623,0
1711437448667,1711437446693,1645663,0
1711437448667,1711437446734,1645919,0
1711437448667,1711437446773,1644220,0
1711437448667,1711437446813,1641929,0
1711437448667,1711437446853,1640562,0
1711437448667,1711437446893,1640484,0
1711437448667,1711437446934,1641338,0
1711437448667,1711437446974,1642813,0
1711437448667,1711437447014,1644517,0
1711437448667,1711437447054,1646018,0
1711437448667,1711437447094,1647727,0
1711437448667,1711437447135,1649035,0
1711437448667,1711437447174,1650547,0
1711437448667,1711437447214,1652285,0
1711437448667,1711437447254,1648729,0
1711437448667,1711437447294,1638244,0
1711437448667,1711437447335,1630160,0
1711437448667,1711437447374,1627165,0
1711437448667,1711437447415,1627013,0
1711437448667,1711437447455,1628279,0
1711437448667,1711437447495,1629437,0
1711437448667,1711437447536,1628829,0
1711437448667,1711437447575,1626667,0
1711437448667,1711437447615,1625111,0
1711437448667,1711437447655,1625137,0
1711437448667,1711437447695,1626264,0
1711437448667,1711437447736,1628343,0
1711437448667,1711437447776,1630578,0
1711437448667,1711437447816,1632793,0
1711437448667,1711437447856,1634971,0
1711437448667,1711437447896,1637238,0
1711437448667,1711437447937,1638150,0
1711437448667,1711437447976,1630099,0
1711437448667,1711437448016,1620722,0
1711437448667,1711437448056,1616194,0
1711437448667,1711437448096,1615465,0
1711437448667,1711437448137,1616534,0
1711437448667,1711437448177,1618381,0
1711437448667,1711437448217,1619128,0
1711437448667,1711437448257,1618110,0
1711437448667,1711437448297,1616857,0
1711437448667,1711437448338,1616578,0
1711437448667,1711437448377,1617370,0
1711437448667,1711437448417,1619121,0
1711437448667,1711437448457,1621378,0
1711437448667,1711437448498,1623703,0
1711437448667,1711437448538,1626052,0
1711437448667,1711437448578,1628267,0
1711437460699,1711437448618,1630542,0
1711437460699,1711437448658,1630679,0
1711437460699,1711437448698,1620463,0
1711437460699,1711437448739,1609903,0
1711437460699,1711437448778,1604811,0
1711437460699,1711437448818,1603617,0
1711437460699,1711437448859,1603826,0
1711437460699,1711437448899,1604692,0
1711437460699,1711437448939,1604468,0
1711437460699,1711437448979,1603064,0
1711437460699,1711437449019,1601665,0
1711437460699,1711437449059,1601444,0
1711437460699,1711437449099,1602461,0
1711437460699,1711437449140,1604394,0
1711437460699,1711437449180,1606802,0
1711437460699,1711437449220,1609441,0
1711437460699,1711437449260,1612156,0
1711437460699,1711437449300,1614902,0
1711437460699,1711437449341,1617464,0
1711437460699,1711437449380,1620066,0
1711437460699,1711437449420,1622586,0
1711437460699,1711437449461,1616794,0
1711437460699,1711437449500,1605696,0
1711437460699,1711437449541,1599044,0
1711437460699,1711437449581,1597371,0
1711437460699,1711437449621,1597388,0
1711437460699,1711437449661,1598348,0
1711437460699,1711437449701,1598902,0
1711437460699,1711437449742,1598104,0
1711437460699,1711437449781,1596863,0
1711437460699,1711437449821,1596917,0
1711437460699,1711437449862,1597987,0
1711437460699,1711437449902,1600088,0
1711437460699,1711437449943,1602692,0
1711437460699,1711437449982,1605395,0
1711437460699,1711437450022,1608348,0
1711437460699,1711437450062,1611235,0
1711437460699,1711437450102,1613965,0
1711437460699,1711437450143,1616968,0
1711437460699,1711437450183,1619967,0
1711437460699,1711437450223,1623145,0
1711437460699,1711437450263,1623509,0
1711437460699,1711437450303,1614429,0
1711437460699,1711437450344,1606359,0
1711437460699,1711437450383,1603620,0
1711437460699,1711437450423,1603998,0
1711437460699,1711437450463,1605372,0
1711437460699,1711437450503,1606999,0
1711437460699,1711437450544,1607519,0
1711437460699,1711437450584,1607104,0
1711437460699,1711437450624,1606804,0
1711437460699,1711437450664,1607922,0
1711437460699,1711437450704,1609894,0
1711437460699,1711437450745,1612549,0
1711437460699,1711437450784,1615504,0
1711437460699,1711437450824,1618674,0
1711437460699,1711437450864,1621871,0
1711437460699,1711437450905,1624916,0
1711437460699,1711437450945,1627839,0
1711437460699,1711437450985,1630875,0
1711437460699,1711437451025,1634116,0
1711437460699,1711437451065,1637396,0
1711437460699,1711437451105,1640012,0
1711437460699,1711437451146,1635146,0
1711437460699,1711437451185,1627316,0
1711437460699,1711437451226,1623546,0
1711437460699,1711437451266,1623633,0
1711437460699,1711437451306,1625325,0
1711437460699,1711437451347,1627618,0
1711437460699,1711437451386,1629101,0
1711437460699,1711437451426,1629066,0
1711437460699,1711437451466,1628629,0
1711437460699,1711437451507,1629095,0
1711437460699,1711437451547,1630703,0
1711437460699,1711437451587,1632970,0
1711437460699,1711437451627,1635614,0
1711437460699,1711437451667,1638420,0
1711437460699,1711437451707,1641402,0
1711437460699,1711437451748,1644152,0
1711437460699,1711437451787,1646856,0
1711437460699,1711437451828,1649455,0
1711437460699,1711437451868,1652089,0
1711437460699,1711437451908,1655110,0
1711437460699,1711437451949,1657386,0
1711437460699,1711437451988,1653193,0
1711437460699,1711437452028,1646210,0
1711437460699,1711437452068,1642720,0
1711437460699,1711437452108,1642937,0
1711437460699,1711437452149,1644888,0
1711437460699,1711437452189,1647293,0
1711437460699,1711437452229,1648993,0
1711437460699,1711437452269,1649282,0
1711437460699,1711437452309,1648758,0
1711437460699,1711437452350,1649140,0
1711437460699,1711437452389,1650496,0
1711437460699,1711437452429,1652800,0
1711437460699,1711437452470,1655394,0
1711437460699,1711437452510,1658289,0
1711437460699,1711437452551,1660920,0
1711437460699,1711437452590,1663530,0
1711437460699,1711437452630,1666237,0
1711437460699,1711437452670,1670734,0
1711437460699,1711437452711,1666103,0
1711437460699,1711437452751,1659977,0
1711437460699,1711437452790,1657327,0
1711437460699,1711437452831,1657958,0
1711437460699,1711437452871,1659943,0
1711437460699,1711437452911,1662530,0
1711437460699,1711437452952,1664475,0
1711437460699,1711437452991,1665127,0
1711437460699,1711437453031,1665286,0
1711437460699,1711437453071,1665895,0
1711437460699,1711437453111,1667516,0
1711437460699,1711437453152,1669870,0
1711437460699,1711437453192,1672524,0
1711437460699,1711437453231,1675471,0
1711437460699,1711437453272,1678356,0
1711437460699,1711437453312,1681119,0
1711437460699,1711437453352,1683858,0
1711437460699,1711437453392,1686619,0
1711437460699,1711437453432,1687383,0
1711437460699,1711437453472,1680568,0
1711437460699,1711437453512,1672900,0
1711437460699,1711437453553,1669719,0
1711437460699,1711437453592,1669986,0
1711437460699,1711437453633,1671694,0
1711437460699,1711437453673,1673695,0
1711437460699,1711437453713,1675012,0
1711437460699,1711437453753,1675159,0
1711437460699,1711437453793,1674902,0
1711437460699,1711437453833,1675390,0
1711437460699,1711437453873,1676584,0
1711437460699,1711437453913,1678492,0
1711437460699,1711437453954,1680800,0
1711437460699,1711437453993,1682968,0
1711437460699,1711437454034,1685662,0
1711437460699,1711437454074,1688007,0
1711437460699,1711437454114,1690306,0
1711437460699,1711437454155,1692612,0
1711437460699,1711437454194,1694790,0
1711437460699,1711437454234,1690930,0
1711437460699,1711437454274,1680952,0
1711437460699,1711437454314,1673881,0
1711437460699,1711437454355,1672035,0
1711437460699,1711437454395,1672371,0
1711437460699,1711437454434,1673485,0
1711437460699,1711437454475,1674490,0
1711437460699,1711437454515,1674475,0
1711437460699,1711437454555,1673670,0
1711437460699,1711437454595,1672914,0
1711437460699,1711437454635,1673021,0
1711437460699,1711437454675,1674070,0
1711437460699,1711437454715,1675551,0
1711437460699,1711437454756,1677504,0
1711437460699,1711437454795,1679487,0
1711437460699,1711437454835,1681646,0
1711437460699,1711437454876,1683896,0
1711437460699,1711437454916,1686158,0
1711437460699,1711437454956,1688328,0
1711437460699,1711437454996,1690542,0
1711437460699,1711437455036,1690493,0
1711437460699,1711437455076,1682166,0
1711437460699,1711437455116,1672617,0
1711437460699,1711437455157,1667845,0
1711437460699,1711437455196,1666887,0
1711437460699,1711437455237,1667323,0
1711437460699,1711437455277,1668321,0
1711437460699,1711437455317,1668280,0
1711437460699,1711437455358,1666614,0
1711437460699,1711437455397,1664694,0
1711437460699,1711437455437,1663521,0
1711437460699,1711437455477,1663181,0
1711437460699,1711437455517,1663763,0
1711437460699,1711437455558,1664638,0
1711437460699,1711437455598,1665450,0
1711437460699,1711437455638,1666410,0
1711437460699,1711437455678,1667164,0
1711437460699,1711437455721,1667708,0
1711437460699,1711437455759,1668250,0
1711437460699,1711437455798,1669118,0
1711437460699,1711437455838,1670545,0
1711437460699,1711437455878,1666881,0
1711437460699,1711437455919,1655251,0
1711437460699,1711437455960,1645169,0
1711437460699,1711437455999,1639224,0
1711437460699,1711437456039,1637280,0
1711437460699,1711437456079,1637613,0
1711437460699,1711437456119,1638248,0
1711437460699,1711437456160,1637537,0
1711437460699,1711437456199,1634849,0
1711437460699,1711437456239,1632024,0
1711437460699,1711437456280,1630709,0
1711437460699,1711437456320,1630859,0
1711437460699,1711437456360,1631620,0
1711437460699,1711437456400,1632614,0
1711437460699,1711437456440,1634172,0
1711437460699,1711437456480,1636149,0
1711437460699,1711437456520,1637994,0
1711437460699,1711437456561,1639856,0
1711437460699,1711437456600,1641859,0
1711437460699,1711437456640,1644425,0
1711437460699,1711437456681,1644072,0
1711437460699,1711437456721,1635546,0
1711437460699,1711437456761,1628074,0
1711437460699,1711437456801,1624784,0
1711437460699,1711437456841,1625219,0
1711437460699,1711437456881,1627204,0
1711437460699,1711437456921,1630055,0
1711437460699,1711437456962,1632140,0
1711437460699,1711437457001,1632506,0
1711437460699,1711437457042,1631768,0
1711437460699,1711437457082,1631611,0
1711437460699,1711437457122,1632750,0
1711437460699,1711437457163,1634494,0
1711437460699,1711437457202,1636854,0
1711437460699,1711437457242,1639449,0
1711437460699,1711437457283,1642140,0
1711437460699,1711437457323,1644632,0
1711437460699,1711437457363,1647184,0
1711437460699,1711437457403,1649428,0
1711437460699,1711437457443,1651897,0
1711437460699,1711437457483,1653908,0
1711437460699,1711437457523,1648782,0
1711437460699,1711437457564,1640440,0
1711437460699,1711437457603,1635441,0
1711437460699,1711437457644,1634138,0
1711437460699,1711437457684,1635086,0
1711437460699,1711437457724,1637037,0
1711437460699,1711437457765,1639197,0
1711437460699,1711437457804,1639880,0
1711437460699,1711437457844,1638674,0
1711437460699,1711437457884,1637674,0
1711437460699,1711437457927,1637856,0
1711437460699,1711437457965,1639153,0
1711437460699,1711437458005,1641175,0
1711437460699,1711437458045,1643706,0
1711437460699,1711437458085,1646449,0
1711437460699,1711437458125,1649108,0
1711437460699,1711437458166,1651810,0
1711437460699,1711437458205,1654582,0
1711437460699,1711437458246,1653785,0
1711437460699,1711437458286,1645964,0
1711437460699,1711437458326,1639083,0
1711437460699,1711437458367,1635865,0
1711437460699,1711437458406,1635976,0
1711437460699,1711437458446,1637762,0
1711437460699,1711437458486,1640318,0
1711437460699,1711437458526,1641983,0
1711437460699,1711437458567,1642112,0
1711437460699,1711437458607,1641608,0
1711437460699,1711437458647,1641834,0
1711437460699,1711437458687,1643191,0
1711437460699,1711437458727,1645364,0
1711437460699,1711437458768,1648066,0
1711437460699,1711437458807,1650887,0
1711437460699,1711437458848,1653487,0
1711437460699,1711437458888,1655889,0
1711437460699,1711437458928,1658424,0
1711437460699,1711437458969,1658955,0
1711437460699,1711437459008,1651292,0
1711437460699,1711437459048,1642937,0
1711437460699,1711437459089,1638517,0
1711437460699,1711437459129,1637859,0
1711437460699,1711437459169,1639148,0
1711437460699,1711437459209,1641369,0
1711437460699,1711437459249,1642984,0
1711437460699,1711437459289,1642980,0
1711437460699,1711437459329,1642317,0
1711437460699,1711437459370,1642068,0
1711437460699,1711437459409,1642890,0
1711437460699,1711437459450,1644669,0
1711437460699,1711437459490,1646868,0
1711437460699,1711437459530,1649366,0
1711437460699,1711437459571,1652113,0
1711437460699,1711437459610,1654792,0
1711437460699,1711437459650,1657225,0
1711437460699,1711437459690,1660018,0
1711437460699,1711437459730,1659528,0
1711437460699,1711437459771,1651104,0
1711437460699,1711437459810,1643128,0
1711437460699,1711437459850,1639518,0
1711437460699,1711437459891,1639383,0
1711437460699,1711437459931,1640608,0
1711437460699,1711437459971,1642312,0
1711437460699,1711437460011,1642981,0
1711437460699,1711437460051,1642111,0
1711437460699,1711437460091,1641039,0
1711437460699,1711437460134,1640789,0
1711437460699,1711437460172,1641782,0
1711437460699,1711437460211,1643444,0
1711437460699,1711437460251,1645828,0
1711437460699,1711437460292,1648387,0
1711437460699,1711437460331,1650785,0
1711437460699,1711437460372,1653030,0
1711437460699,1711437460412,1655164,0
1711437460699,1711437460452,1657462,0
1711437460699,1711437460492,1658821,0
1711437460699,1711437460532,1652476,0
1711437460699,1711437460573,1643943,0
1711437460699,1711437460612,1639444,0
1711437472728,1711437460652,1639058,0
1711437472728,1711437460692,1640638,0
1711437472728,1711437460733,1643196,0
1711437472728,1711437460773,1645105,0
1711437472728,1711437460813,1645511,0
1711437472728,1711437460853,1644802,0
1711437472728,1711437460893,1644683,0
1711437472728,1711437460933,1645609,0
1711437472728,1711437460974,1647150,0
1711437472728,1711437461013,1649357,0
1711437472728,1711437461053,1651597,0
1711437472728,1711437461093,1654084,0
1711437472728,1711437461134,1656709,0
1711437472728,1711437461174,1659196,0
1711437472728,1711437461214,1661592,0
1711437472728,1711437461254,1664082,0
1711437472728,1711437461294,1665081,0
1711437472728,1711437461334,1658661,0
1711437472728,1711437461375,1651480,0
1711437472728,1711437461414,1648457,0
1711437472728,1711437461454,1648902,0
1711437472728,1711437461495,1650678,0
1711437472728,1711437461535,1653211,0
1711437472728,1711437461575,1654745,0
1711437472728,1711437461615,1654555,0
1711437472728,1711437461655,1653609,0
1711437472728,1711437461695,1653198,0
1711437472728,1711437461735,1653957,0
1711437472728,1711437461776,1655637,0
1711437472728,1711437461815,1657657,0
1711437472728,1711437461856,1660029,0
1711437472728,1711437461896,1662271,0
1711437472728,1711437461936,1664392,0
1711437472728,1711437461977,1666558,0
1711437472728,1711437462016,1668696,0
1711437472728,1711437462056,1667384,0
1711437472728,1711437462096,1659996,0
1711437472728,1711437462136,1654445,0
1711437472728,1711437462177,1652898,0
1711437472728,1711437462216,1654003,0
1711437472728,1711437462256,1656253,0
1711437472728,1711437462297,1658727,0
1711437472728,1711437462337,1659982,0
1711437472728,1711437462377,1659672,0
1711437472728,1711437462417,1658916,0
1711437472728,1711437462457,1659239,0
1711437472728,1711437462497,1660527,0
1711437472728,1711437462537,1662553,0
1711437472728,1711437462578,1664795,0
1711437472728,1711437462617,1667067,0
1711437472728,1711437462657,1669388,0
1711437472728,1711437462698,1671661,0
1711437472728,1711437462738,1673732,0
1711437472728,1711437462779,1669570,0
1711437472728,1711437462818,1661318,0
1711437472728,1711437462858,1656433,0
1711437472728,1711437462898,1655557,0
1711437472728,1711437462938,1656800,0
1711437472728,1711437462979,1659275,0
1711437472728,1711437463018,1661276,0
1711437472728,1711437463059,1661718,0
1711437472728,1711437463099,1660830,0
1711437472728,1711437463139,1660383,0
1711437472728,1711437463180,1660884,0
1711437472728,1711437463219,1662511,0
1711437472728,1711437463259,1664781,0
1711437472728,1711437463299,1667157,0
1711437472728,1711437463339,1669406,0
1711437472728,1711437463380,1671568,0
1711437472728,1711437463420,1673785,0
1711437472728,1711437463460,1675263,0
1711437472728,1711437463500,1669059,0
1711437472728,1711437463540,1659666,0
1711437472728,1711437463581,1654543,0
1711437472728,1711437463620,1653795,0
1711437472728,1711437463660,1655087,0
1711437472728,1711437463700,1657046,0
1711437472728,1711437463741,1658359,0
1711437472728,1711437463782,1657971,0
1711437472728,1711437463821,1656751,0
1711437472728,1711437463861,1656037,0
1711437472728,1711437463901,1656507,0
1711437472728,1711437463941,1657876,0
1711437472728,1711437463982,1659724,0
1711437472728,1711437464022,1661786,0
1711437472728,1711437464062,1663931,0
1711437472728,1711437464102,1665966,0
1711437472728,1711437464142,1667970,0
1711437472728,1711437464183,1669868,0
1711437472728,1711437464222,1670324,0
1711437472728,1711437464262,1661488,0
1711437472728,1711437464302,1651687,0
1711437472728,1711437464342,1647140,0
1711437472728,1711437464383,1646616,0
1711437472728,1711437464423,1647461,0
1711437472728,1711437464463,1648882,0
1711437472728,1711437464503,1649166,0
1711437472728,1711437464543,1647669,0
1711437472728,1711437464584,1645607,0
1711437472728,1711437464623,1644742,0
1711437472728,1711437464663,1645186,0
1711437472728,1711437464704,1646341,0
1711437472728,1711437464744,1648056,0
1711437472728,1711437464785,1649931,0
1711437472728,1711437464824,1651875,0
1711437472728,1711437464864,1653538,0
1711437472728,1711437464904,1655250,0
1711437472728,1711437464944,1656897,0
1711437472728,1711437464985,1658819,0
1711437472728,1711437465025,1658260,0
1711437472728,1711437465065,1648400,0
1711437472728,1711437465105,1638954,0
1711437472728,1711437465145,1634877,0
1711437472728,1711437465186,1634647,0
1711437472728,1711437465225,1635754,0
1711437472728,1711437465265,1637009,0
1711437472728,1711437465305,1637055,0
1711437472728,1711437465346,1635382,0
1711437472728,1711437465386,1633716,0
1711437472728,1711437465426,1633299,0
1711437472728,1711437465466,1634132,0
1711437472728,1711437465506,1635627,0
1711437472728,1711437465546,1637835,0
1711437472728,1711437465587,1640012,0
1711437472728,1711437465626,1642171,0
1711437472728,1711437465666,1644317,0
1711437472728,1711437465707,1646374,0
1711437472728,1711437465747,1648553,0
1711437472728,1711437465788,1650637,0
1711437472728,1711437465827,1652353,0
1711437472728,1711437465867,1646395,0
1711437472728,1711437465907,1636824,0
1711437472728,1711437465948,1631744,0
1711437472728,1711437465988,1631174,0
1711437472728,1711437466028,1632725,0
1711437472728,1711437466068,1634930,0
1711437472728,1711437466108,1636292,0
1711437472728,1711437466148,1635744,0
1711437472728,1711437466189,1634324,0
1711437472728,1711437466228,1633448,0
1711437472728,1711437466268,1635983,0
1711437472728,1711437466309,1638362,0
1711437472728,1711437466349,1640799,0
1711437472728,1711437466389,1643500,0
1711437472728,1711437466429,1645950,0
1711437472728,1711437466469,1648337,0
1711437472728,1711437466509,1650692,0
1711437472728,1711437466549,1653261,0
1711437472728,1711437466590,1655099,0
1711437472728,1711437466629,1648957,0
1711437472728,1711437466670,1640272,0
1711437472728,1711437466710,1635865,0
1711437472728,1711437466750,1635488,0
1711437472728,1711437466791,1637523,0
1711437472728,1711437466830,1640341,0
1711437472728,1711437466870,1642487,0
1711437472728,1711437466910,1642603,0
