Timestamp,Cleaned_PPG
1712021978258,0.0
1712021978296,0.0
1712021978336,0.0
1712021978376,0.0
1712021978416,0.0
1712021978456,0.0
1712021978497,0.0
1712021978536,0.0
1712021978576,0.0
1712021978616,0.0
1712021978657,0.0
1712021978698,0.0
1712021978737,0.0
1712021978777,0.0
1712021978817,0.0
1712021978857,0.0
1712021978899,0.0
1712021978938,0.0
1712021978978,0.0
1712021979018,0.0
1712021979058,0.0
1712021979099,0.0
1712021979138,0.0
1712021979178,0.0
1712021979218,0.0
1712021979258,0.0
1712021979300,0.0
1712021979339,0.0
1712021979379,0.0
1712021979419,0.0
1712021979459,0.0
1712021979500,0.0
1712021979539,2086957.0
1712021979579,1958651.6951655787
1712021979619,1838537.920337487
1712021979659,1723603.5568188126
1712021979700,1616714.5366988129
1712021979739,1517169.2910610829
1712021979780,1427296.0945534038
1712021979820,1350410.0172461534
1712021979860,1273641.5951583935
1712021979901,1197209.5969016387
1712021979940,1123491.5024930118
1712021979980,1055263.2798366863
1712021980020,991731.6301865587
1712021980060,931344.8514084574
1712021980101,872973.8015118483
1712021980141,820764.0278664399
1712021980181,775286.18527751
1712021980221,726948.3404501774
1712021980261,675784.9247670483
1712021980302,625366.622737552
1712021980341,581486.9188011996
1712021980381,542987.9025789548
1712021980421,506932.33167108614
1712021980464,474538.2878531213
1712021980503,444641.9815753228
1712021980542,416584.4326425693
1712021980582,393180.99437021604
1712021980622,369191.4247429501
1712021980662,344111.7636484052
1712021980703,320142.33669012063
1712021980742,302551.8587131188
1712021980782,286490.00889197737
1712021980822,272107.81535218377
1712021980863,257208.6215880788
1712021980904,245844.71590265282
1712021980943,235356.4953274883
1712021980983,219529.14305540477
1712021981023,203711.41912005888
1712021981063,191167.3842041823
1712021981104,175632.7669036663
1712021981143,151482.9449648806
1712021981183,127114.47127438802
1712021981224,108418.67612960073
1712021981264,93839.12066500727
1712021981305,81123.05785566894
1712021981344,69813.30304436106
1712021981384,58462.7392607932
1712021981424,43343.9117078064
1712021981464,31383.051090497058
1712021981505,25774.48874235479
1712021981544,25270.006928982446
1712021981585,11623.236572673544
1712021981625,-6246.911840447225
1712021981665,-37651.834481408354
1712021981706,-61094.492069654865
1712021981745,-68726.85294387583
1712021981785,-51112.04613595549
1712021981825,-27924.140308397822
1712021981865,-1951.7758190780878
1712021981906,23628.761798268883
1712021981946,42968.427021550015
1712021981986,46636.7525895983
1712021982026,49371.623033200856
1712021982066,46498.99847350363
1712021982107,48288.84511823859
1712021982146,50988.95872726315
1712021982187,55946.61853384948
1712021982227,71766.03545407695
1712021982267,91044.28929875791
1712021982308,99691.4414093038
1712021982347,110361.12594339764
1712021982387,121449.41439405829
1712021982427,133983.5910678208
1712021982468,144543.90234573442
1712021982509,152516.52842267323
1712021982548,157006.47257341258
1712021982588,160692.83403690858
1712021982628,161471.5787738897
1712021982671,158332.63284024317
1712021982709,156267.61969798943
1712021982749,147254.75565176178
1712021982789,142958.1970014386
1712021982829,135939.01095280144
1712021982869,133150.54432590585
1712021982910,135433.7065579528
1712021982949,155154.02840699768
1712021982989,169962.88436795864
1712021983029,173730.97604752705
1712021983069,152357.7269549491
1712021983110,130356.04489134252
1712021983150,96974.59742460214
1712021983190,73869.13317177026
1712021983230,56512.17532492848
1712021983270,60848.66126762051
1712021983311,69953.20487338491
1712021983350,80264.59815186635
1712021983391,87716.59194422606
1712021983431,96826.88488272065
1712021983471,98737.8751432579
1712021983512,90292.81853087572
1712021983551,79624.71637746319
1712021983591,74702.36069128476
1712021983632,68683.60463272687
1712021983672,65087.332799458876
1712021983712,59410.246742663905
1712021983752,50773.269456272945
1712021983792,50967.813364947215
1712021983832,52562.163539359346
1712021983872,54276.32506061811
1712021983913,52586.39069607621
1712021983952,49191.157950695604
1712021983993,48218.12742123008
1712021984033,46729.34677198809
1712021984073,44136.487309768796
1712021984114,41372.03411711007
1712021984153,41284.937394186854
1712021984193,43442.75762855355
1712021984233,44708.00085930992
1712021984274,41042.985294500366
1712021984314,34600.30087134242
1712021984354,36421.88886129577
1712021984394,29759.920358113013
1712021984434,31200.458952417597
1712021984474,18697.058589391876
1712021984515,12823.870242862962
1712021984554,999.0559180621058
1712021984595,-306.6386178173125
1712021984635,4016.084146470763
1712021984675,6330.084509847686
1712021984716,2197.2271492904983
1712021984755,-4365.168387170881
1712021984795,-13191.355067738332
1712021984836,-23775.590410870034
1712021984876,-27101.406730234623
1712021984916,-38019.9334805361
1712021984956,-54150.03407518845
1712021984996,-68511.78747249022
1712021985036,-73191.21686992189
1712021985076,-78478.83710926771
1712021985117,-81411.30730012339
1712021985156,-86105.78169057332
1712021985197,-84385.63005959243
1712021985237,-79085.17471514456
1712021985277,-77507.51827534335
1712021985318,-73543.0424860036
1712021985357,-62223.7841258198
1712021985397,-53669.443610135466
1712021985437,-47872.16955649899
1712021985477,-42846.687473519705
1712021985518,-41992.82621373236
1712021985557,-40928.41827888321
1712021985597,-39543.24488500366
1712021985637,-52904.3671139935
1712021985678,-60330.91175914975
1712021985718,-56267.77440505428
1712021985758,-48035.86945082527
1712021985798,-41351.52735737432
1712021985838,-39842.73766012164
1712021985878,-39933.86892738566
1712021985919,-41650.17426972836
1712021985958,-41012.38207997009
1712021985998,-39284.817189766094
1712021986039,-36354.039070151746
1712021986079,-26674.643934946973
1712021986119,-16163.623377728742
1712021986159,-15111.777675852645
1712021986199,-5930.879239825532
1712021986239,-1599.1294547114521
1712021986279,-1313.9176005898044
1712021986320,-15680.785046387464
1712021986359,-34849.16863474995
1712021986400,-51682.21226951759
1712021986440,-58996.61643418716
1712021986480,-61269.73483082326
1712021986521,-62435.51396292681
1712021986560,-61547.344621468335
1712021986600,-61302.68634004891
1712021986640,-58451.43063534703
1712021986680,-52180.004215026274
1712021986721,-46523.85892976867
1712021986761,-44295.29214654397
1712021986800,-41148.97060635267
1712021986840,-36316.756482811645
1712021986881,-36786.68012277782
1712021986921,-31639.80799802672
1712021986961,-20853.691953547765
1712021987001,-14841.047912953887
1712021987041,-11526.442780565936
1712021987081,-23320.951250039507
1712021987122,-36233.86745631602
1712021987161,-45229.29731267225
1712021987201,-51149.77509340923
1712021987242,-52104.097416421864
1712021987282,-48407.649034001864
1712021987322,-47526.943882386666
1712021987362,-50600.38784883078
1712021987402,-57610.808772303164
1712021987442,-58843.14259028854
1712021987482,-57395.09096765425
1712021987523,-53361.51734721847
1712021987562,-50941.17060807953
1712021987603,-41942.71579013672
1712021987643,-42592.58482477022
1712021987683,-36552.88422989193
1712021987724,-38619.80608432973
1712021987763,-41664.19395216461
1712021987803,-40802.96445041429
1712021987843,-35124.851420527324
1712021987883,-38447.04453547904
1712021987924,-45110.59316323511
1712021987964,-45121.5656289435
1712021988004,-45475.159018705366
1712021988044,-46441.08073025569
1712021988084,-44820.68802640075
1712021988125,-44192.95714099193
1712021988164,-42469.05165031273
1712021988204,-39674.89144498366
1712021988244,-34929.66448790184
1712021988285,-30935.392887780443
1712021988326,-21712.388174636988
1712021988365,-14095.105280792806
1712021988405,-6488.708312725648
1712021988445,3070.8895144285634
1712021988485,10918.233338847756
1712021988526,17652.4448220348
1712021988566,24146.945230894722
1712021988606,28177.7234752425
1712021988646,28813.396719081793
1712021988686,37768.2698421441
1712021988727,50561.46049301699
1712021988766,62424.09171814192
1712021988806,67456.76646399754
1712021988847,75280.2783595305
1712021988887,74294.37831496727
1712021988928,75429.85090763634
1712021988967,73923.55900377082
1712021989007,76373.92448696122
1712021989047,76839.06358575914
1712021989087,80826.88780792896
1712021989128,79573.03551843064
1712021989168,78049.49346278096
1712021989208,80105.5334253693
1712021989248,79735.05733426008
1712021989288,78067.84436500678
1712021989329,77132.57486909069
1712021989368,65927.7468688055
1712021989408,55521.740429012105
1712021989448,54504.63595019467
1712021989489,51465.38891312806
1712021989530,52329.85519516468
1712021989569,55653.58388287015
1712021989609,55975.417874041945
1712021989649,58395.04286131216
1712021989689,57164.98637255374
1712021989730,56360.79523399193
1712021989770,52294.14198410418
1712021989810,50454.79381415341
1712021989850,52609.55796936201
1712021989890,52892.07173631061
1712021989931,54477.24239069689
1712021989970,57657.23074336164
1712021990010,63889.76170561928
1712021990050,64386.131070686504
1712021990091,58651.76254609693
1712021990132,49275.15500918031
1712021990171,48438.015603660606
1712021990211,53453.18585950136
1712021990251,56985.37395499926
1712021990291,57719.67165186303
1712021990332,58898.92876275256
1712021990372,58807.258000085596
1712021990412,58407.247338930145
1712021990452,57400.37382786721
1712021990492,58070.44148649322
1712021990533,57392.02082398534
1712021990572,61321.46253861999
1712021990613,61936.04632408451
1712021990653,66911.14359595766
1712021990693,69543.04839696968
1712021990734,70512.20080167148
1712021990773,71654.60479602544
1712021990813,65760.1232965067
1712021990853,54279.0843388536
1712021990893,48134.18332596682
1712021990934,46301.16477161506
1712021990974,50894.708733129315
1712021991014,50840.86551531544
1712021991054,55119.32641023863
1712021991094,48737.764086742885
1712021991135,50351.61494372459
1712021991175,56069.51725733187
1712021991215,55226.467244163156
1712021991255,57668.3279725695
1712021991295,54699.84842609987
1712021991336,55650.93843565509
1712021991375,56162.21329053957
1712021991415,55824.84091284219
1712021991455,56630.45049913414
1712021991495,49678.36554339435
1712021991536,39811.08295024745
1712021991576,33486.91247287486
1712021991616,33836.69691710221
1712021991656,34590.37819900457
1712021991696,33096.37076283293
1712021991737,32718.492991408333
1712021991776,29422.49619989842
1712021991816,31739.67178706359
1712021991856,35648.58495151717
1712021991896,34487.998365060426
1712021991937,29006.265073137358
1712021991977,21740.803172319662
1712021992017,18882.769345547073
1712021992057,13386.521418439224
1712021992097,9840.55807693163
1712021992138,5737.647909886204
1712021992177,6441.619490467943
1712021992217,264.37084942124784
1712021992257,-14577.56993987877
1712021992298,-33068.47861455381
1712021992338,-40239.589974631555
1712021992378,-33925.60118592437
1712021992418,-34144.213763396256
1712021992458,-33276.26532327244
1712021992498,-28612.58453634102
1712021992539,-32121.80630517332
1712021992578,-31660.673280328047
1712021992618,-32759.89818947902
1712021992659,-24669.94440872036
1712021992699,-20361.394772548694
1712021992739,-18064.49983734032
1712021992779,-12913.86099799443
1712021992819,-13790.776701380499
1712021992859,-10845.089129221626
1712021992899,-8935.931667705067
1712021992940,-15618.381707071327
1712021992979,-26604.86262278864
1712021993019,-35856.88889409043
1712021993059,-38860.156023424584
1712021993100,-38845.196448222734
1712021993140,-38858.687766230665
1712021993180,-39076.43079674337
1712021993220,-38426.6607466694
1712021993260,-31841.4467168767
1712021993300,-28042.983323269524
1712021993341,-17579.0686279824
1712021993380,-11874.939879826736
1712021993420,-8325.532937899232
1712021993461,-6616.1516148634255
1712021993501,-5030.564413215034
1712021993541,-1365.0182164353319
1712021993581,4932.010200708173
1712021993621,3985.2689039818943
1712021993661,1646.883045849856
1712021993701,-10135.464233852923
1712021993742,-16782.084325846285
1712021993782,-22696.2373246965
1712021993822,-17196.63371293107
1712021993862,-7382.39412853308
1712021993902,-5294.858222691808
1712021993943,-9934.514936653897
1712021993982,-10963.804584216326
1712021994022,-14846.369949839078
1712021994062,-14197.540943867527
1712021994103,-7087.103159595747
1712021994143,3311.8254541270435
1712021994183,9846.033899796195
1712021994223,18079.578802195843
1712021994263,10783.560271745548
1712021994303,11085.913434467278
1712021994344,12391.611854908988
1712021994383,6928.6715769143775
1712021994424,-9878.222138354555
1712021994464,-18839.843372032046
1712021994504,-22882.38546953257
1712021994545,-22879.732159757987
1712021994584,-23869.0397829921
1712021994624,-27209.607983326074
1712021994664,-29292.605632606428
1712021994705,-31614.47041958105
1712021994745,-30101.782959637698
1712021994785,-33924.86316723749
1712021994825,-37025.12209091615
1712021994865,-38755.01664526062
1712021994905,-40407.46858918015
1712021994946,-47682.22432700638
1712021994985,-50031.49852316361
1712021995025,-56063.25955480477
1712021995066,-49260.6735958606
1712021995106,-53819.78216891177
1712021995146,-73015.94904194027
1712021995186,-80155.01959135011
1712021995226,-89571.89859635755
1712021995266,-95927.31596315838
1712021995307,-86274.36946161417
1712021995347,-83700.41826327471
1712021995387,-79961.70885739196
1712021995427,-82806.6621722253
1712021995467,-82456.786165406
1712021995507,-78594.5241123559
1712021995548,-74428.95254041068
1712021995587,-70915.41988033056
1712021995627,-71583.29029945377
1712021995668,-77505.21822235966
1712021995708,-62065.37267883681
1712021995748,-45776.700481598265
1712021995788,-34419.082411503885
1712021995828,-30025.459120186046
1712021995868,-32805.1180421887
1712021995909,-33903.884743767325
1712021995949,-30649.94602777902
1712021995989,-27204.729825771414
1712021996029,-30411.653932350688
1712021996069,-33646.14218437206
1712021996109,-40306.835503259674
1712021996150,-37013.67622988019
1712021996189,-34998.050534334034
1712021996229,-29439.97272914322
1712021996270,-22652.23900436703
1712021996310,-10945.41556333378
1712021996351,-4073.037928916514
1712021996390,2038.8090985016897
1712021996430,6738.849792941008
1712021996470,9100.750209124759
1712021996511,20606.73600168526
1712021996551,29541.13492950797
1712021996591,25114.977581292856
1712021996631,22758.732436480466
1712021996671,21790.206354787108
1712021996712,24930.208523530047
1712021996753,32509.245620880276
1712021996792,35045.17966061644
1712021996832,38449.22013887903
1712021996872,38792.92325652484
1712021996912,43347.93281130539
1712021996953,52836.843476434704
1712021996993,51855.25062802341
1712021997033,53985.72152267117
1712021997073,58723.26951765269
1712021997113,63817.59099029144
1712021997154,70417.808658781
1712021997193,83043.30464226566
1712021997234,77594.72710166546
1712021997274,83191.42223182833
1712021997314,80962.27200800739
1712021997355,85390.35997824464
1712021997394,93977.17208741978
1712021997434,91806.92929148022
1712021997474,96175.0859382134
1712021997514,92864.93892850401
1712021997555,93528.14954447374
1712021997595,93573.5442605326
1712021997635,85489.13078372926
1712021997675,68499.03707385436
1712021997715,93523.43496443518
1712021997756,101843.0610613795
1712021997795,97011.94994155597
1712021997835,93172.52361017
1712021997875,95263.22810746916
1712021997915,91940.37139969878
1712021997956,78287.9580101422
1712021997996,58484.85470081493
1712021998036,44307.9050959833
1712021998076,31796.91558504617
1712021998116,17670.571675354615
1712021998157,-7900.525095290039
1712021998196,-32054.142532909755
1712021998236,-52440.30109071359
1712021998276,-54803.73714060336
1712021998317,-38280.21095391177
1712021998357,-21867.908925873227
1712021998397,-43507.11551265791
1712021998437,-20277.663040535524
1712021998477,-9285.400975720957
1712021998517,3293.90353026893
1712021998558,-6397.86723721493
1712021998597,13728.393799359445
1712021998637,20550.68380075507
1712021998678,15098.628385086544
1712021998718,16836.91466411855
1712021998758,14930.000264810398
1712021998798,16428.951773904264
1712021998838,23211.215530350804
1712021998878,40281.30218097335
1712021998918,61624.82528959401
1712021998959,89380.35821439233
1712021998998,82260.0934226145
1712021999039,88096.73958931537
1712021999079,103771.23636470176
1712021999119,113103.40972576011
1712021999160,111509.9928881051
1712021999199,100220.22324142884
1712021999239,93141.35861297697
1712021999279,86912.63219461963
1712021999319,59679.38999864273
1712021999360,33876.69809510093
1712021999400,-7567.867021719925
1712021999440,-40894.174476595595
1712021999480,-58760.921788570005
1712021999520,-57313.90063815797
1712021999561,-66405.7490918506
1712021999600,-96407.18074837327
1712021999640,-107729.00197695196
1712021999680,-70850.98748578131
1712021999721,-57631.95812598895
1712021999762,-61601.88441842422
1712021999801,-41068.391710917
1712021999841,10707.077447407879
1712021999881,18486.71592222154
1712021999921,-12263.9116221359
1712021999962,11179.775199694093
1712022000002,-20439.369949088898
1712022000042,-62734.464662529994
1712022000082,-95700.02810071222
1712022000122,-132150.66242299182
1712022000163,-168022.74076312035
1712022000202,-187587.07600557338
1712022000242,-212465.41763529275
1712022000282,-228298.9793754327
1712022000323,-254609.66198640643
1712022000364,-256386.1827389067
1712022000403,-261574.39097507158
1712022000443,-254157.0225542793
1712022000483,-248388.18818629812
1712022000523,-250015.73979369225
1712022000564,-232197.67374301516
1712022000604,-192871.92349852063
1712022000644,-165504.95314091304
1712022000684,-135226.0811079
1712022000724,-121476.56324916892
1712022000765,-115695.95359908417
1712022000804,-111789.69492919045
1712022000844,-113172.38370705443
1712022000885,-111457.29871865269
1712022000925,-111052.6616453277
1712022000966,-103903.30951404478
1712022001005,-99292.06110734167
1712022001045,-83604.68580730213
1712022001085,-90351.333148479
1712022001125,-103161.55178001523
1712022001166,-101413.8399690059
1712022001206,-89386.80092814215
1712022001246,-114897.37942091841
1712022001286,-94710.21473878715
1712022001326,-101867.22571172006
1712022001367,-109630.1914693662
1712022001406,-118018.99663658766
1712022001447,-121482.05761748645
1712022001487,-131847.4778326992
1712022001527,-129231.66412282595
1712022001568,-125069.46444161399
1712022001607,-106867.38111764984
1712022001647,-107304.77259852644
1712022001688,-101403.15913129994
1712022001728,-102049.83922849526
1712022001769,-98296.59769927477
1712022001808,-86012.24507513037
1712022001848,-83493.10455233301
1712022001888,-76306.0100594447
1712022001928,-67285.42317309394
1712022001969,-68582.07552515762
1712022002009,-67391.55851973174
1712022002049,-69615.64156732429
1712022002089,-72505.0226642047
1712022002129,-71785.13879123656
1712022002170,-66773.8624347297
1712022002209,-59504.04698792542
1712022002249,-58949.54901708895
1712022002290,-59624.312074855436
1712022002327,-53612.87640846288
1712022002367,-50667.511600671336
1712022002407,-45004.68619726738
1712022002447,-34817.024147163145
1712022002487,-15010.942410259042
1712022002528,-5570.891258113785
1712022002568,2232.3470827515703
1712022002608,3487.3424413187895
1712022002648,-5723.288964014035
1712022002688,-14594.845333062345
1712022002728,-24464.94694274105
1712022002769,-16420.69248177111
1712022002809,-11560.914005858358
1712022002849,-17257.82179303933
1712022002889,-12618.606978786876
1712022002929,-3408.0903895604424
1712022002970,-4048.113182708854
1712022003009,-1206.516142184846
1712022003049,8497.605248579988
1712022003089,12565.233744672034
1712022003130,14519.33779634512
1712022003170,20552.78734831093
1712022003210,23268.85159462667
1712022003250,25639.077951201703
1712022003290,26328.201266588178
1712022003330,21020.365884962957
1712022003371,14938.52091345773
1712022003410,9155.313006427139
1712022003450,6102.8418781715445
1712022003490,6572.356516777072
1712022003530,11178.763910446782
1712022003571,17936.61006976245
1712022003611,19906.524721665075
1712022003651,20061.624859435484
1712022003691,19170.82414765819
1712022003731,20709.627267627744
1712022003772,26107.618114091456
1712022003811,32464.35349168745
1712022003851,43009.80685478402
1712022003891,45302.99382767826
1712022003931,51648.72120336327
1712022003972,48548.765721020056
1712022004012,51572.52833831357
1712022004052,53340.15626170626
1712022004092,49967.217737325
1712022004132,57795.09826810425
1712022004173,64811.33686445467
1712022004212,63470.688109750394
1712022004252,72487.42736989213
1712022004292,80844.33355743671
1712022004333,79349.46694697486
1712022004373,84305.07648813119
1712022004413,91751.96373282373
1712022004453,93255.5038360646
1712022004493,98466.38761009835
1712022004533,104363.19160597771
1712022004574,108179.69263277575
1712022004613,108307.64121313533
1712022004653,111366.11557723023
1712022004694,116297.38763786457
1712022004734,117822.22992286249
1712022004774,115822.96592280013
1712022004814,110999.87164592557
1712022004854,102132.42042330652
1712022004894,103474.52593880706
1712022004934,102310.47248146543
1712022004975,103790.80020477343
1712022005014,106415.45549901482
1712022005055,113870.89949136297
1712022005095,122643.38036411814
1712022005135,115838.96015811432
1712022005176,123967.45519992989
1712022005215,132912.946571026
1712022005255,154513.34218874108
1712022005295,166285.3407219192
1712022005335,155095.28621618915
1712022005376,162393.13006103178
1712022005416,178638.85578057077
1712022005456,190499.7178353062
1712022005496,205182.00778429583
1712022005537,213323.48644082807
1712022005578,220048.68803240173
1712022005617,232275.86836082628
1712022005658,236260.91275651008
1712022005700,239057.3456242308
1712022005740,238493.07746569905
1712022005781,234386.83286825102
1712022005821,227618.2596721216
1712022005861,221310.33922686893
1712022005901,213763.4912990816
1712022005942,208615.6190114594
1712022005982,201875.1866270462
1712022006022,196902.4133569859
1712022006062,191678.22129315697
1712022006102,187169.73186410824
1712022006143,185557.04059233004
1712022006184,171910.57343757432
1712022006223,165200.65175964218
1712022006264,162920.68358914414
1712022006304,158250.33565712022
1712022006344,147490.86413463484
1712022006385,132975.83982858248
1712022006424,132944.3451483799
1712022006465,128105.64426527172
1712022006505,119205.20343331154
1712022006545,109799.48791129421
1712022006586,108286.21903066663
1712022006626,107453.69625394838
1712022006666,99482.48616079753
1712022006706,87392.55127130123
1712022006747,79076.08598880377
1712022006788,72577.40106971283
1712022006827,73582.07424606662
1712022006867,75282.87586207874
1712022006908,68163.48955577658
1712022006948,64892.722771988716
1712022006989,59327.44205425307
1712022007028,53986.54867828172
1712022007069,51783.79210733622
1712022007109,51141.61757952534
1712022007149,48545.47122253198
1712022007190,47638.02856250899
1712022007229,44473.20759602962
1712022007269,40117.08272703737
1712022007309,31021.1893801298
1712022007350,22073.33073765319
1712022007391,15552.651405748446
1712022007430,11718.970360874198
1712022007470,10012.895016671158
1712022007510,8438.596942310221
1712022007550,4108.020566472318
1712022007592,3138.380066772457
1712022007631,2553.606873131357
1712022007671,2759.996412730776
1712022007711,3014.6480238060467
1712022007751,4780.75257001631
1712022007792,5063.221651918255
1712022007832,5191.835968678817
1712022007872,5427.934802163858
1712022007912,4489.188240508549
1712022007952,5523.17834964674
1712022007993,6740.609387894161
1712022008033,7204.662258810364
1712022008073,2395.209152206313
1712022008113,-8627.885152157396
1712022008153,-19239.7342322194
1712022008194,-24331.642665763386
1712022008234,-27362.543702621944
1712022008274,-27346.188690994866
1712022008314,-27259.418449254707
1712022008354,-27594.32191081252
1712022008395,-27077.064006565604
1712022008435,-26410.788067757152
1712022008475,-25972.35906495154
1712022008515,-23291.892184021883
1712022008556,-21017.605482935905
1712022008596,-19027.96804669313
1712022008636,-15243.503460528329
1712022008677,-13587.16322634276
1712022008717,-13953.701153320726
1712022008757,-12004.078264518641
1712022008798,-6978.738506195135
1712022008838,-3442.2582256449386
1712022008878,-2789.12482812535
1712022008918,-4631.204272360075
1712022008959,-18156.914186064154
1712022009000,-26449.444496442564
1712022009039,-30792.67621719744
1712022009079,-32274.59152058931
1712022009120,-32014.53912574891
1712022009160,-30322.609426372685
1712022009201,-30509.88862256473
1712022009240,-31236.44704409875
1712022009281,-29762.897114114836
1712022009321,-27209.014507347718
1712022009361,-24843.704806745984
1712022009402,-21302.89536045678
1712022009442,-19437.214854880236
1712022009482,-15907.12060831394
1712022009522,-17046.80768793216
1712022009562,-18632.35762787517
1712022009604,-17079.76881033415
1712022009643,-16826.299331956077
1712022009683,-20724.507358971983
1712022009724,-34209.24735997012
1712022009764,-53899.88473009365
1712022009805,-73550.43170852866
1712022009844,-87195.09523346229
1712022009885,-95237.71776703
1712022009925,-98798.02452786267
1712022009965,-96980.31085205404
1712022010006,-95129.6066099666
1712022010045,-95052.45840299781
1712022010086,-96295.47509325296
1712022010126,-93680.71492466005
1712022010166,-87420.69958776748
1712022010207,-82386.01588350907
1712022010247,-74090.27242638683
1712022010287,-67019.20939207589
1712022010327,-59463.97926393198
1712022010368,-54679.53268628288
1712022010408,-53901.856920204125
1712022010448,-65200.031399698
1712022010488,-76305.15985858068
1712022010528,-80559.24363195943
1712022010568,-81472.46175943315
1712022010609,-83225.13723421097
1712022010649,-83114.73054883722
1712022010689,-77240.6717812512
1712022010729,-73109.88420140697
1712022010769,-68296.49104965571
1712022010810,-58060.917240305804
1712022010850,-50729.68465865636
1712022010890,-44678.308858142234
1712022010930,-37850.13933070842
1712022010970,-29758.01336746849
1712022011011,-24122.488604222424
1712022011050,-21173.180852228776
1712022011091,-14804.709856502246
1712022011131,-6867.126676814631
1712022011171,-10950.518287372775
1712022011212,-28264.84861060325
1712022011251,-40784.90652691852
1712022011291,-46967.714617530815
1712022011332,-52553.34079815028
1712022011372,-56103.53286143951
1712022011413,-54707.17198413191
1712022011452,-53655.55549624236
1712022011492,-53770.38316513784
1712022011533,-51627.55393832363
1712022011573,-48840.152721640654
1712022011614,-47181.29012119211
1712022011653,-41382.5982585242
1712022011694,-37390.54800843261
1712022011734,-32799.2970927069
1712022011774,-28364.719674278982
1712022011815,-24756.983065756038
1712022011855,-20982.924961450975
1712022011895,-14489.88635673374
1712022011935,-18574.0887272479
1712022011975,-37939.90449591819
1712022012016,-48114.38141805632
1712022012057,-56966.98466324061
1712022012097,-63456.01461379556
1712022012137,-64561.91608941648
1712022012177,-64859.78996015433
1712022012218,-63786.86440136377
1712022012258,-61895.15887913108
1712022012298,-57829.11905058846
1712022012338,-50850.1086066328
1712022012379,-46948.62594718952
1712022012420,-42348.65924992645
1712022012459,-34692.32899109973
1712022012499,-27835.502830569632
1712022012540,-22199.40027627442
1712022012580,-17537.999798385892
1712022012621,-11357.098356154282
1712022012661,-4572.835711044725
1712022012701,330.7033699695021
1712022012741,2587.25618094299
1712022012781,-7664.214611709118
1712022012822,-20763.02456054371
1712022012862,-27742.12486116402
1712022012902,-31450.527541063726
1712022012942,-33607.960118545685
1712022012982,-32114.43860233482
1712022013024,-29861.414719162043
1712022013063,-26566.758693594486
1712022013103,-23869.567366052885
1712022013144,-20597.01560140634
1712022013184,-17455.326850253157
1712022013225,-12756.906112628523
1712022013264,-7107.207138603553
1712022013304,-3055.680403644219
1712022013345,2781.5061759557575
1712022013385,7686.299463104457
1712022013426,11412.409123068675
1712022013465,16588.43817865476
1712022013506,21581.28257726133
1712022013546,23998.87818994932
1712022013586,13719.547208977863
1712022013627,406.92313281679526
1712022013667,-6326.43344409205
1712022013707,-11123.049727560021
1712022013747,-13041.428420288488
1712022013787,-14655.1125476202
1712022013828,-14547.659330745228
1712022013868,-13313.88782933075
1712022013908,-11835.235693166032
1712022013948,-9168.339963507839
1712022013988,-5481.959984278306
1712022014029,-1468.2819629693404
1712022014068,2461.1450588442385
1712022014108,6127.154580299277
1712022014148,10097.851723951288
1712022014188,14589.34265938215
1712022014229,17686.15933786705
1712022014269,21154.523588955402
1712022014309,14448.42410261184
1712022014349,1279.811684396118
1712022014389,-5157.9998810999095
1712022014430,-7563.1010062261485
1712022014469,-8713.094839654863
1712022014509,-7266.3693453934975
1712022014549,-5652.676016740501
1712022014590,-4970.23722522473
1712022014630,-5136.086448413786
1712022014670,-3032.4913870301098
1712022014710,57.293359444011
1712022014750,3906.4866201919504
1712022014790,8021.899282039143
1712022014831,10623.522322484292
1712022014870,15134.16557462234
1712022014910,19364.045899586286
1712022014951,22677.114552550018
1712022014991,18306.661167786457
1712022015032,6497.011601104401
1712022015071,957.6996931657195
1712022015111,-189.21720140008256
1712022015151,-1432.1078491779044
1712022015191,-3747.579167765565
1712022015232,-2520.7735921554267
1712022015272,-5967.012412946671
1712022015312,-6241.582377465442
1712022015352,3154.792383287102
1712022015392,13834.546094041318
1712022015433,24328.43078745203
1712022015472,25060.707894744817
1712022015512,22811.836888661608
1712022015553,22437.466512737796
1712022015593,24994.109558375087
1712022015633,25613.845438148826
1712022015673,26082.117105863523
1712022015713,19797.074453343637
1712022015753,5317.997581376694
1712022015793,-6946.122123423964
1712022015834,-15466.698159018066
1712022015874,-25639.759040778503
1712022015914,-32557.554335536435
1712022015954,-37466.83773988392
1712022015994,-41614.28145457804
1712022016035,-44600.24728653813
1712022016074,-44314.518751366995
1712022016114,-37940.45579191344
1712022016154,-32811.42031612573
1712022016194,-25203.60070202779
1712022016235,-8283.989819159266
1712022016275,150.6415481250733
1712022016315,11880.815038322471
1712022016355,28744.42050583707
1712022016395,37889.26474667061
1712022016436,39237.954510026146
1712022016475,40159.02633309923
1712022016516,49637.4056961718
1712022016556,65052.05917362729
1712022016596,76930.79465237446
1712022016637,79668.77804807667
1712022016676,76725.79154055938
1712022016716,77306.83096802514
1712022016757,88558.54175045714
1712022016797,102196.11362823425
1712022016837,112806.99739678483
1712022016877,122574.20654746564
1712022016917,131505.17304468248
1712022016957,135572.05343716592
1712022016998,138076.12623955682
1712022017038,138408.6051187627
1712022017078,137665.98404802615
1712022017118,133143.48902080674
1712022017158,130992.86933492636
1712022017198,125220.73597498052
1712022017239,119332.8983747433
1712022017278,115765.2378444639
1712022017318,112685.0707801953
1712022017359,110740.07779053971
1712022017399,106738.06720286421
1712022017440,105485.64558957098
1712022017479,103739.62856484205
1712022017519,95048.57195903407
1712022017559,98847.80360105867
1712022017600,99862.82463604584
1712022017640,96004.20495397784
1712022017680,94867.44515734818
1712022017720,94749.9035014552
1712022017760,95860.07744992571
1712022017800,93305.651260796
1712022017841,91920.39415688906
1712022017881,90139.13419898227
1712022017921,87946.52027578652
1712022017961,87503.74044157751
1712022018001,85262.2342359433
1712022018042,79450.03908362426
1712022018082,76389.88356532808
1712022018122,75944.82608230785
1712022018162,73330.52425111458
1712022018202,71400.78908015741
1712022018243,71460.34152885526
1712022018282,70075.20465714019
1712022018323,68866.59678810276
1712022018363,67302.24606534932
1712022018403,66709.17520056479
1712022018444,65627.86897919932
1712022018483,64789.264305212535
1712022018523,63710.60259539075
1712022018564,62436.037269050255
1712022018604,61663.29368552193
1712022018644,59855.27535580378
1712022018684,58936.80610227492
1712022018724,58592.36141872639
1712022018764,57336.75087821437
1712022018805,56504.81880617514
1712022018845,53310.47853315668
1712022018885,52232.38578205742
1712022018925,51349.195675896015
1712022018965,49590.58167892927
1712022019005,49123.943197130226
1712022019046,48950.04670051485
1712022019085,53946.00226148125
1712022019125,51162.79696484376
1712022019165,51573.28512332775
1712022019205,51547.831856843084
1712022019246,49825.63233016804
1712022019286,49328.72037929203
1712022019326,51882.76775717875
1712022019366,52591.32585393777
1712022019406,38439.14421782456
1712022019447,10520.148733886424
1712022019486,-23565.993276805617
1712022019526,-40909.5549749136
1712022019566,-31336.357054362074
1712022019606,-25708.28257974051
1712022019647,-9883.419397925958
1712022019687,-8531.909859814681
1712022019727,690.4149132454768
1712022019767,5447.744957743213
1712022019807,32599.84883314185
1712022019848,28609.630379595794
1712022019887,27743.553050179966
1712022019927,10942.323180929758
1712022019967,-85089.0485950103
1712022020008,-162771.58116270695
1712022020048,-212814.2437693933
1712022020088,-215547.75478171185
1712022020128,-187867.8005883363
1712022020168,-168151.15650392277
1712022020208,-161117.17037417646
1712022020249,-147078.20577695873
1712022020289,-126612.52222654317
1712022020329,-101833.99576932797
1712022020369,-98353.66437029466
1712022020409,-122954.55546209775
1712022020450,-144308.42309350474
1712022020489,-145225.82959340792
1712022020529,-132083.84732064698
1712022020569,-138820.02474538703
1712022020609,-139832.93128992245
1712022020650,-140163.5082945563
1712022020690,-129927.35997686721
1712022020730,-113165.78398045525
1712022020770,-101978.29327276675
1712022020810,-93757.05026016012
1712022020851,-84073.03360215016
1712022020890,-68941.4903055057
1712022020930,-61150.22187990509
1712022020971,-50664.04425991606
1712022021011,-58948.72656099638
1712022021052,-58115.28928769939
1712022021091,-85606.84100069338
1712022021131,-87842.98591134604
1712022021171,-82832.84699001117
1712022021212,-74537.21121460712
1712022021252,-25901.336164949927
1712022021292,38891.24750620825
1712022021332,84526.51243688725
1712022021372,100502.33128085919
1712022021412,96402.1223561028
1712022021453,85586.40599631332
1712022021492,81870.24241163209
1712022021532,63753.28044174332
1712022021573,44574.86909707636
1712022021613,34103.667949078605
1712022021654,17094.610021898523
1712022021693,47486.88799782144
1712022021733,73389.7653697799
1712022021773,85608.48263204377
1712022021814,85525.85435132775
1712022021854,85606.21536841709
1712022021894,82508.20499801403
1712022021934,84088.29360815696
1712022021974,71332.9239499066
1712022022014,64389.99726619944
1712022022055,52721.188166483305
1712022022094,41778.17357126158
1712022022134,24358.82655019313
1712022022175,21747.46241980372
1712022022215,12331.499079626054
1712022022256,-1710.121355155483
1712022022295,-7133.253145835828
1712022022335,-9745.977850157768
1712022022375,-10946.368024508003
1712022022416,-30759.975936583243
1712022022456,-49495.24346106406
1712022022496,-60093.95566592086
1712022022536,-68752.94962511864
1712022022576,-103627.24837051705
1712022022616,-132280.03294397471
1712022022657,-158116.33386700228
1712022022697,-178047.19669347815
1712022022737,-166945.61425072048
1712022022777,-138009.27165901288
1712022022817,-106967.2872833591
1712022022858,-81495.90227754693
1712022022897,-49359.01356862346
1712022022937,-15187.232238517608
1712022022978,-14274.651821262203
1712022023018,-14442.750504221767
1712022023058,-16333.267211677507
1712022023098,-24326.435592778027
1712022023138,-27531.521977571305
1712022023178,-58676.6105495533
1712022023218,-90966.68199110217
1712022023259,-108648.68145258073
1712022023299,-112328.27028328925
1712022023339,-94563.35407535359
1712022023379,-82690.38765407633
1712022023419,-66425.6730282288
1712022023460,-63447.030843191314
1712022023500,-66774.44734330568
1712022023540,-67500.01165202633
1712022023580,-67829.86738378741
1712022023620,-63079.64564483799
1712022023661,-54040.23108648416
1712022023700,-36969.94295399031
1712022023741,-24994.47741853539
1712022023781,-14238.456523774657
1712022023821,3791.1495035663247
1712022023862,2719.1452166144736
1712022023901,-4821.088131994009
1712022023941,-516.8249918068759
1712022023982,9262.0143877808
1712022024022,25829.590324068442
1712022024062,16791.292204014026
1712022024102,-6950.773884750903
1712022024142,-44515.55195833696
1712022024182,-82958.4926624354
1712022024222,-97513.5886722207
1712022024263,-78367.51773864403
1712022024303,-47609.66819936596
1712022024343,-23542.9157598773
1712022024383,26244.432417700067
1712022024423,74013.98050104314
1712022024464,90832.86821369175
1712022024503,94679.6037090579
1712022024543,103826.54604502395
1712022024583,118289.28598843049
1712022024623,112778.2475035796
1712022024664,107132.06781474408
1712022024704,100448.2893084581
1712022024744,96006.90457001096
1712022024784,87246.97067177203
1712022024824,90178.72042433731
1712022024865,101266.56349481549
1712022024904,102397.04852740513
1712022024944,94246.63160851691
1712022024984,80347.10255663237
1712022025024,66259.97123548202
1712022025065,45716.850130316336
1712022025104,25026.75864287326
1712022025144,17781.25619290583
1712022025185,7686.496547193266
1712022025225,6363.05587285012
1712022025266,-3405.105558360461
1712022025305,-23232.66326116305
1712022025345,-30427.105056489818
1712022025385,-23054.160906957928
1712022025426,-6384.767896507401
1712022025466,12240.05296387989
1712022025505,27253.132517657243
1712022025546,31886.58451493364
1712022025586,30774.242766248994
1712022025626,41790.06298539415
1712022025667,32900.66003961209
1712022025706,21322.282265502494
1712022025746,57611.754847483244
1712022025786,78706.64288894413
1712022025826,71049.14734093333
1712022025867,60565.47567886859
1712022025907,59416.931133971084
1712022025947,61661.40261091385
1712022025987,59509.3822292136
1712022026027,61457.13647559192
1712022026068,71224.67553961556
1712022026107,70597.43534739874
1712022026147,65864.71310915798
1712022026187,65545.66826581676
1712022026228,68737.80621943064
1712022026269,68547.34236461949
1712022026308,65331.85472509079
1712022026348,63713.32357219327
1712022026388,63132.35645045759
1712022026429,63913.52257859381
1712022026470,60479.84944222635
1712022026509,53382.825681463815
1712022026550,51522.675175668206
1712022026590,49598.80445226468
1712022026630,48280.109430070035
1712022026671,48985.47388214758
1712022026710,47029.98641200736
1712022026750,50261.94006941654
1712022026790,61704.44628788624
1712022026831,65991.42354193609
1712022026871,77457.7895085048
1712022026911,72809.07044007443
1712022026951,68956.38512858562
1712022026991,81683.97675670497
1712022027031,58000.56882576691
1712022027072,43127.32016384415
1712022027112,-8847.049923708662
1712022027152,-57540.128776100464
1712022027192,-146438.64061070932
1712022027232,-161439.42661349848
1712022027273,-194338.96581173968
1712022027312,-203614.91022962704
1712022027352,-182876.12146523222
1712022027392,-133666.73988943966
1712022027433,-117434.15945373476
1712022027473,-94626.83739551064
1712022027513,-91417.44739892334
1712022027553,-120740.5335213039
1712022027593,-158081.25628935173
1712022027633,-176432.81133409403
1712022027674,-154136.1145386193
1712022027713,-138686.04984582588
1712022027753,-127947.2494921796
1712022027794,-137416.0893478808
1712022027834,-204408.54210032662
1712022027875,-238154.24534239992
1712022027914,-292976.83811194217
1712022027954,-356440.64737131726
1712022027994,-315239.41746004904
1712022028034,-343437.9550575875
1712022028075,-368051.3298312677
1712022028115,-382885.84805604815
1712022028155,-387520.9681037753
1712022028195,-386500.2647884451
1712022028235,-331094.9575315174
1712022028276,-293709.374877139
1712022028316,-216342.74691856466
1712022028356,-172632.4466938451
1712022028396,-120352.72187374951
1712022028436,-14796.434337258339
1712022028477,58273.66533529991
1712022028516,93879.29808329744
1712022028556,141320.542369497
1712022028596,149468.10985446535
1712022028637,165769.75175469648
1712022028678,192951.8859113874
1712022028717,178732.03108002152
1712022028757,149567.26085574366
1712022028797,112408.91490802774
1712022028837,60484.673658840824
1712022028878,57618.756405673455
1712022028918,58677.255496869795
1712022028958,50149.991876955144
1712022028998,36035.9640076505
1712022029038,37013.21049564332
1712022029079,39652.44246094301
1712022029118,98275.88679598738
1712022029159,119639.04949895525
1712022029199,151374.8881187318
1712022029239,196116.00193960173
1712022029280,128823.676860495
1712022029319,126865.9159154133
1712022029359,117512.15773917222
1712022029400,119247.7604255015
1712022029440,109813.66574494448
1712022029480,115658.58211379731
1712022029520,74412.09742104216
1712022029560,36088.44000432361
1712022029600,-8932.4959855075
1712022029641,-41510.24442849541
1712022029681,-61699.69584606029
1712022029721,-133522.29335087305
1712022029761,-143927.48241918068
1712022029801,-133427.61259136256
1712022029841,-111783.71414154675
1712022029882,-45374.98679299373
1712022029921,36541.041105731856
1712022029962,120046.70335756335
1712022030002,161999.83060369035
1712022030042,191367.51035870332
1712022030083,282700.2020247914
1712022030122,355948.10091450345
1712022030162,358316.7745426609
1712022030202,363922.73634980293
1712022030242,367066.03438258916
1712022030283,370775.32515545934
1712022030322,308493.4869501819
1712022030363,289011.69492355967
1712022030403,228611.7140260432
1712022030443,207030.29093834944
1712022030484,178484.44209955866
1712022030523,134631.4044442661
1712022030563,142736.00221145246
1712022030603,144032.0386403976
1712022030643,144501.33053846937
1712022030684,141811.56212645397
1712022030724,138417.7498192829
1712022030764,139704.444175357
1712022030804,140184.60237290617
1712022030844,152897.1740339161
1712022030885,152686.63309709355
1712022030924,194728.2529113982
1712022030964,222386.27208324196
1712022031004,270091.6081241681
1712022031044,289770.9326412999
1712022031085,296866.09965259535
1712022031125,267497.6778913252
1712022031165,217816.75768697076
1712022031205,148531.6461593313
1712022031245,81512.5949457949
1712022031286,54739.31035077758
1712022031325,50798.27936538495
1712022031365,38420.1315580504
1712022031406,42433.11024260614
1712022031446,82071.05834419746
1712022031486,90009.01286284067
1712022031526,69666.9965523351
1712022031566,29256.60879749991
1712022031606,42509.64637677558
1712022031646,-7106.419332483783
1712022031687,-5492.066584093496
1712022031726,-10736.88948673848
1712022031767,-19059.916259688325
1712022031807,-6791.922325156629
1712022031847,-10195.227621934842
1712022031888,-13518.099666657392
1712022031927,-25501.511757271364
1712022031967,-54683.93136767764
1712022032007,-77653.28899804456
1712022032047,-81373.80540485866
1712022032088,-116012.40876928065
1712022032128,-137007.82079834025
1712022032168,-109730.96604592819
1712022032208,-92119.13798942883
1712022032248,-62538.16661344655
1712022032289,-46631.005556710996
1712022032328,-4983.6058468227275
1712022032368,2442.0295952260494
1712022032408,32544.940354184248
1712022032449,20717.22326125251
1712022032489,-3436.204261926934
1712022032529,-67302.64050901309
1712022032569,-102975.99072886631
1712022032609,-150742.24036765844
1712022032649,-132965.47561451048
1712022032690,-125792.67656469997
1712022032729,-133572.01188912056
1712022032770,-101926.2790614292
1712022032810,-96664.22318696976
1712022032850,-140964.74694226962
1712022032891,-165481.665162188
1712022032930,-160336.68424831238
1712022032970,-203758.96842117095
1712022033011,-270502.6307241982
1712022033051,-275156.5135269803
1712022033091,-264340.11827422865
1712022033131,-210449.59006312257
1712022033171,-229210.41646116972
1712022033211,-167135.20986887626
1712022033251,-101995.90168328583
1712022033292,-75475.61094819987
1712022033332,-111498.68537211511
1712022033372,-119632.90703395195
1712022033412,-118385.86559476145
1712022033455,-95171.97069345042
1712022033493,-76184.67158319987
1712022033532,-76302.68456681678
1712022033572,-92170.05204622447
1712022033613,-120327.01653240016
1712022033653,-117588.09022235638
1712022033694,-119518.89755567908
1712022033733,-93316.77249197429
1712022033773,-24788.759689663537
1712022033813,80155.60174181219
1712022033854,133741.350743738
1712022033894,197405.5615755003
1712022033934,179217.07875412796
1712022033974,151612.21549349045
1712022034014,120301.84988741856
1712022034054,74858.91532898135
1712022034095,43497.79360501608
1712022034135,36890.534750657156
1712022034175,-13890.714359921403
1712022034215,46711.88238756452
1712022034255,97952.28878834378
1712022034296,188048.47448940482
1712022034335,156593.70390634146
1712022034375,115339.4082965618
1712022034416,91066.82445545681
1712022034456,173240.98399047367
1712022034497,188580.85265654046
1712022034536,158942.13335561287
1712022034576,73131.19673328474
1712022034616,-3090.087181054987
1712022034657,933.2558219023049
1712022034698,16599.06407792261
1712022034737,-47455.916370518506
1712022034777,-104095.16360191209
1712022034817,-135289.88202057127
1712022034857,-170609.33937883843
1712022034898,-197917.9439528277
1712022034938,-210906.1775181964
1712022034978,-217077.64854576671
1712022035018,-200617.3765871497
1712022035058,-136853.88282602467
1712022035099,-143486.29646389745
1712022035138,-78515.27066978766
1712022035179,-112380.99838705873
1712022035219,-146950.79069647705
1712022035259,-184840.2737882333
1712022035300,-129078.73284233082
1712022035339,-68146.3691877122
1712022035379,-35049.31272709835
1712022035420,33696.4989797282
1712022035460,127588.57786627952
1712022035501,42465.907390264794
1712022035540,31648.33555175364
1712022035580,14532.836082024965
1712022035620,96168.9097914761
1712022035663,165534.39270435832
1712022035701,236532.59817298548
1712022035741,206514.78413638286
1712022035781,92513.26135991514
1712022035821,37889.25928793568
1712022035861,98791.93856030237
1712022035902,161601.3036147221
1712022035941,110211.56429358944
1712022035981,45575.82569578756
1712022036021,64915.78653500229
1712022036061,137545.49531361926
1712022036102,151105.2844633432
1712022036142,175459.73652548436
1712022036182,129149.36719374359
1712022036222,97949.95734443376
1712022036262,116712.30395537475
1712022036303,92590.3801352987
1712022036342,-17737.742252998985
1712022036383,-351.6903027072549
1712022036423,-31174.002743907273
1712022036463,648.7508805403486
1712022036504,39125.07400234183
1712022036543,87383.00166642573
1712022036583,59552.54735093005
1712022036623,57210.52140051965
1712022036663,77057.3039191966
1712022036704,90370.65206016321
1712022036744,90583.82044638088
1712022036784,126865.11966891494
1712022036824,121633.75358067546
1712022036864,89117.00130978227
1712022036905,40812.98437230755
1712022036944,-16993.120738048106
1712022036984,-66027.54428548086
1712022037024,-48149.54659465281
1712022037064,34500.53603412863
1712022037105,121531.70240849303
1712022037145,108463.43784395047
1712022037185,98234.10988583928
1712022037225,99101.97951805498
1712022037265,121298.77515643928
1712022037306,104048.06090803957
1712022037345,15509.26009456627
1712022037385,-20380.88984523015
1712022037425,-85067.03552199295
1712022037466,-56326.67758637341
1712022037506,-22539.8782564695
1712022037546,-2519.848260066472
1712022037586,29178.02970540151
1712022037626,76363.22841381654
1712022037666,68339.31869247183
1712022037707,27805.186272887513
1712022037747,6822.221996359061
1712022037787,11894.132949600928
1712022037827,56282.6936950339
1712022037870,76176.21125991084
1712022037908,93829.74059517076
1712022037947,89425.94096945925
1712022037987,85824.34620415978
1712022038027,86297.57109876769
1712022038068,54269.305845553055
1712022038108,50312.96600220306
1712022038148,49951.95557248313
1712022038188,51853.181673323736
1712022038228,53603.65428596502
1712022038268,31800.553312043194
1712022038309,21229.91164676426
1712022038348,13030.686627188697
1712022038389,-257.98486172407866
1712022038429,23982.677462244872
1712022038466,45129.396080545615
1712022038507,80201.95108230086
1712022038546,84011.04947103746
1712022038586,69201.35802720487
1712022038626,65883.32174990047
1712022038667,67492.34424207127
1712022038707,76340.75838894164
1712022038747,79193.19901030138
1712022038787,83753.19540589908
1712022038827,52160.24694900308
1712022038867,40783.34660846647
1712022038908,22855.46520293504
1712022038947,20079.965482443105
1712022038988,14293.848194545135
1712022039028,10112.737425900064
1712022039068,533.650625010021
1712022039109,-11587.525371094234
1712022039148,-23509.72597024357
1712022039188,-53308.5397147662
1712022039228,-61266.36376735382
1712022039269,-75753.62545794342
1712022039309,-52617.03835300356
1712022039349,-59688.23010911234
1712022039389,-55061.346590946894
1712022039429,-45767.50743075553
1712022039469,-61498.7035909188
1712022039510,-42146.51935341535
1712022039550,-8851.273967405781
1712022039590,-12466.67760453187
1712022039630,-76722.80735892942
1712022039670,-75906.04147732351
1712022039711,-157416.61273500137
1712022039751,-256247.18293146975
1712022039791,-303824.5754969483
1712022039831,-331579.4556102208
1712022039871,-354569.18631985225
1712022039912,-345823.0951929712
1712022039951,-283694.9878786979
1712022039992,-234250.01447178517
1712022040032,-241850.1789547531
1712022040072,-221143.19547871407
1712022040113,-181567.10257324623
1712022040152,-97083.19087566715
1712022040192,-35900.2217987515
1712022040233,3395.825629621744
1712022040273,51621.48853462003
1712022040313,90333.6837457153
1712022040353,75523.67110348865
1712022040393,98221.45823794696
1712022040433,115257.07713305019
1712022040474,129102.62567907013
1712022040514,123939.52769904211
1712022040554,106952.55467837211
1712022040594,74208.81708449312
1712022040634,54604.93129442446
1712022040674,39170.13211914897
1712022040715,10648.120795156807
1712022040755,11617.828143272549
1712022040795,-27809.934393074363
1712022040835,-88610.07325702952
1712022040875,-119308.59092717199
1712022040916,-100584.18950670306
1712022040956,-137902.2796607404
1712022040996,-79206.55491456203
1712022041036,-28392.765751380008
1712022041076,-16266.022958897054
1712022041117,12385.322093037888
1712022041156,43538.57185917953
1712022041196,75009.09696230106
1712022041236,85206.21522369701
1712022041277,75758.76635136269
1712022041317,100788.68636403326
1712022041357,102288.1132178572
1712022041397,90772.11044829758
1712022041437,42018.520993569866
1712022041477,-5461.687978107482
1712022041518,-49372.32537441328
1712022041557,-73206.93322621845
1712022041597,-113671.73341158824
1712022041638,-110797.49399942346
1712022041678,-141070.17184090475
1712022041718,-169151.57613535877
1712022041758,-155533.40960823838
1712022041798,-132285.82952115778
1712022041838,-101992.41159264231
1712022041878,-71371.39042901248
1712022041919,-48919.99579867162
1712022041959,-43206.950479647145
1712022041999,-34728.02655332629
1712022042039,-28104.227145635523
1712022042079,-27838.93377211783
1712022042120,-35148.831261872314
1712022042159,-54809.823519217316
1712022042199,-73458.69796107337
1712022042239,-56849.822547302116
1712022042280,-11589.287412144244
1712022042320,25293.581341809593
1712022042360,40746.474478370976
1712022042400,49565.265490780585
1712022042440,60746.618237306364
1712022042480,69602.79815384
1712022042521,55671.69025702728
1712022042560,29093.621577169746
1712022042600,10541.901954754256
1712022042641,1989.724760084413
1712022042681,-9985.836956751533
1712022042722,-21815.054992971476
1712022042761,-27305.294534377754
1712022042801,-34253.69076997507
1712022042841,-58828.22498294106
1712022042882,-87429.78762226459
1712022042922,-115264.8632812365
1712022042962,-138569.93889839202
1712022043002,-150394.7659313539
1712022043042,-158260.16796354624
1712022043082,-165001.52971400646
1712022043123,-172432.27895431314
1712022043162,-178620.61905552726
1712022043202,-180454.9838251751
1712022043243,-178330.16817733925
1712022043283,-176098.01778627466
1712022043323,-173282.74909767974
1712022043363,-166944.3299603355
1712022043403,-160224.2951726513
1712022043443,-143054.09931443166
1712022043484,-118636.38263926329
1712022043524,-134513.35188374342
1712022043564,-166286.78258650377
1712022043604,-192775.58454160113
1712022043644,-199042.5871984111
1712022043684,-193930.81129014492
1712022043725,-189268.04494480137
1712022043764,-178917.77409644984
1712022043804,-159269.5709005231
1712022043845,-146782.6299179038
1712022043885,-145079.93276535766
1712022043925,-140060.26753608882
1712022043965,-133459.02367467852
1712022044005,-125208.94415373169
1712022044045,-114154.26020175032
1712022044085,-105140.60886438191
1712022044126,-96964.07561291661
1712022044166,-91280.91388968006
1712022044206,-100805.95619381405
1712022044246,-111668.44370895624
1712022044286,-115470.13946930226
1712022044327,-113940.41170028038
1712022044366,-107954.93553747144
1712022044406,-100470.39905469958
1712022044447,-93979.40409890795
1712022044487,-89490.11943750829
1712022044528,-85476.92547453288
1712022044567,-79773.86781096086
1712022044607,-73627.34222983988
1712022044647,-65315.84241086175
1712022044688,-57594.355952115264
1712022044728,-49256.63342246739
1712022044768,-41355.46908961004
1712022044808,-37409.59481306467
1712022044848,-47584.97258483246
1712022044888,-60809.835877152625
1712022044929,-66489.45271607861
1712022044969,-65926.77452147775
1712022045009,-60994.9835803709
1712022045049,-53963.17135229148
1712022045089,-49107.42521918658
1712022045130,-45977.833415915025
1712022045169,-42721.25924751116
1712022045209,-38546.59424099
1712022045250,-33050.167507143924
1712022045290,-27363.49481072789
1712022045331,-22830.38014873257
1712022045370,-17688.204741339898
1712022045410,-13282.2805126803
1712022045451,-16002.33607932413
1712022045491,-30366.695243521826
1712022045532,-43354.70805654302
1712022045571,-47816.3921742239
1712022045611,-45457.940732937306
1712022045651,-41313.05432625604
1712022045692,-35898.12832724769
1712022045732,-32389.11028560344
1712022045772,-29913.70274755545
1712022045812,-25736.371447389247
1712022045852,-20920.7294451762
1712022045892,-16072.701726430096
1712022045933,-10502.239390259841
1712022045973,-5186.03466402553
1712022046013,638.2348018665798
1712022046053,3761.1833798503503
1712022046093,-2716.584985910915
1712022046134,-19782.395473879995
1712022046173,-31206.187651293352
1712022046214,-34400.00889477413
1712022046254,-32291.867305565625
1712022046294,-27751.90136489598
1712022046335,-23299.25440186821
1712022046374,-20948.975428580772
1712022046414,-18238.79185795365
1712022046454,-14473.720992757473
1712022046494,-10260.141954609193
1712022046535,-4927.954069441184
1712022046574,569.7030956330709
1712022046615,6341.657278615981
1712022046655,11836.95178308012
1712022046695,16459.220880835317
1712022046736,12525.227539332118
1712022046775,-3885.3871546452865
1712022046815,-16075.227137509966
1712022046855,-19696.63267335575
1712022046895,-18508.63116849307
1712022046936,-13587.553154583788
1712022046976,-9124.891103472328
1712022047016,-6209.344790021423
1712022047056,-4117.020542155718
1712022047096,-1779.274960137438
1712022047137,2149.3668649811298
1712022047176,6616.395675420994
1712022047216,11107.973786434857
1712022047256,16391.778842526022
1712022047296,20608.87557172752
1712022047337,25108.337873550132
1712022047377,27264.539927528705
1712022047417,15260.40648281388
1712022047457,-546.8972660317086
1712022047497,-7674.5063661369495
1712022047538,-6828.557739234529
1712022047577,-2900.077379538212
1712022047617,2506.758807457518
1712022047657,6017.658861042466
1712022047698,6501.39499768056
1712022047738,8592.854587659705
1712022047778,12232.581777889747
1712022047818,15402.197571212193
1712022047858,19413.066045631655
1712022047898,23090.874593526125
1712022047939,26744.84876689315
1712022047978,30342.967726407573
1712022048018,33939.172323066276
1712022048058,34687.56950373622
1712022048098,23542.424663395155
1712022048139,8553.60781481117
1712022048179,1553.7752937804908
1712022048219,2324.972473549191
1712022048259,6636.456036218442
1712022048299,11601.538954917807
1712022048340,13452.083533211611
1712022048379,12120.247838713229
1712022048419,13611.977572889999
1712022048459,16145.081365813734
1712022048499,19124.80574640259
1712022048540,22484.21956937248
1712022048580,25475.67653495376
1712022048620,28581.20747621148
1712022048660,31408.730060450034
1712022048700,34285.32608150598
1712022048741,35149.64151026681
1712022048780,29084.253426016774
1712022048820,21733.534297775477
1712022048860,20540.338694879785
1712022048901,22434.492846077308
1712022048941,25430.71359679289
1712022048981,28053.746806392912
1712022049021,27268.179912309395
1712022049061,24236.81526716752
1712022049101,23463.95669776504
1712022049142,23981.91685977718
1712022049181,25914.33348642895
1712022049221,27560.53032099409
1712022049262,30094.045042461483
1712022049302,32317.53324319003
1712022049342,34705.67921206914
1712022049382,34994.89350624662
1712022049422,23437.804124061484
1712022049462,8959.38101498317
1712022049502,1526.6670466768555
1712022049543,1203.8006334241945
1712022049582,3884.691596827004
1712022049623,7342.381743719336
1712022049663,9571.51975855371
1712022049703,7998.572755658301
1712022049744,8461.776284314226
1712022049783,9815.65545746684
1712022049823,11528.64980502706
1712022049863,13893.764698634623
1712022049903,16668.206583380932
1712022049944,20030.800595335197
1712022049984,22578.482029645704
1712022050024,19336.340068034595
1712022050064,4713.68656573398
1712022050104,-7519.712645026855
1712022050145,-11568.21875279001
1712022050184,-10724.859243924031
1712022050225,-7674.771319049876
1712022050265,-4813.428698270349
1712022050305,-5731.824385957094
1712022050346,-6052.218380191363
1712022050385,-4778.627044885885
1712022050425,-2390.7035513732117
1712022050465,168.66197022330016
1712022050507,3109.2376374839805
1712022050548,6450.450749733718
1712022050588,9607.044467014493
1712022050628,8572.160053670872
1712022050668,-5258.143991463352
1712022050708,-20042.28009823407
1712022050749,-26652.346778238658
1712022050788,-27717.785310953623
1712022050828,-25452.757539809216
1712022050869,-22336.452933765016
1712022050909,-21455.651501482585
1712022050950,-21094.575095796725
1712022050989,-19640.021259164438
1712022051029,-17343.846149326768
1712022051069,-13279.380442924099
1712022051109,-9821.062866317108
1712022051150,-5358.702895680442
1712022051190,-649.0838589896448
1712022051230,-2166.8505309023894
1712022051270,-16285.871680509998
1712022051310,-29600.84063091781
1712022051351,-35503.023700339254
1712022051390,-36899.57717985497
1712022051430,-34778.669057844905
1712022051470,-31682.03536839923
1712022051511,-30386.047532102093
1712022051552,-30303.616152649978
1712022051591,-29205.97053726716
1712022051631,-26593.709136064164
1712022051671,-23123.2787210471
1712022051711,-20044.844423009083
1712022051752,-16965.809793953318
1712022051792,-13119.092858551536
1712022051832,-16360.24361127615
1712022051872,-28582.966235593893
1712022051912,-40958.59895612649
1712022051953,-49000.97306528594
1712022051992,-50241.865394244436
1712022052033,-48636.223657838535
1712022052073,-45352.48971744138
1712022052113,-42900.366897549946
1712022052154,-41324.22383104218
1712022052193,-39758.54090387933
1712022052233,-37433.68481581891
1712022052274,-34911.04256328661
1712022052314,-30879.387415235164
1712022052354,-27041.99795610225
1712022052394,-30922.270375144435
1712022052434,-42733.00160352816
1712022052474,-47943.14556744462
1712022052514,-45703.81735169003
1712022052555,-39724.338978143875
1712022052594,-32402.936420780607
1712022052635,-27649.926783293253
1712022052674,-23328.510590985185
1712022052715,-19399.285593227483
1712022052755,-15303.363764445297
1712022052795,-9433.033902722877
1712022052835,-3144.2034018493723
1712022052875,2277.483471407555
1712022052915,8137.052570363274
1712022052956,12965.422193462262
1712022052995,17202.707344870083
1712022053035,6391.189756930806
1712022053075,-9635.064948059618
1712022053116,-16237.678116438212
1712022053157,-16767.18538292451
1712022053196,-13410.74087423319
1712022053236,-7838.348723306786
1712022053276,-4734.419200753095
1712022053316,-2117.1328631455544
1712022053357,713.1667051755358
1712022053396,5523.262957541039
1712022053437,10221.637336682994
1712022053477,15404.828301945236
1712022053517,21094.103412800934
1712022053557,25746.635314227082
1712022053597,30449.79760159785
1712022053637,35089.113626753446
1712022053677,37552.31066622166
1712022053717,24331.991294298787
1712022053758,8355.227824063273
1712022053798,1526.6684725102969
1712022053838,2035.5964339557104
1712022053878,4742.370673044585
1712022053918,8583.81357644475
1712022053959,10262.603766467888
1712022053998,10735.294748484623
1712022054038,13540.24988056114
1712022054078,16263.014123191824
1712022054118,19341.041338415118
1712022054159,24452.386523886118
1712022054199,27716.993239708478
1712022054239,31191.8665802381
1712022054279,34230.21530972794
1712022054319,37454.57752801641
1712022054360,40157.15308680292
1712022054399,43618.96240427415
1712022054439,35780.297403557226
1712022054479,18769.80894040549
1712022054520,9801.079966081306
1712022054560,9232.61695025186
1712022054600,13095.44524656958
1712022054640,17788.641934406478
1712022054680,19735.987268224126
1712022054720,19673.647843218874
1712022054761,21392.4547574725
1712022054801,23361.75747215282
1712022054841,27148.73233539122
1712022054881,30337.99428208708
1712022054921,33372.135121572996
1712022054962,35261.09611304151
1712022055001,39252.21878889715
1712022055041,40685.34181617852
1712022055081,43595.98560482892
1712022055121,46041.84775150148
1712022055162,44739.158899926115
1712022055202,31729.298545917263
1712022055242,20329.83591432264
1712022055282,17861.039506156463
1712022055322,19815.025606210344
1712022055363,25090.41218551714
1712022055402,28453.77062992379
1712022055442,27346.439027876593
1712022055483,26975.27919900883
1712022055523,28714.136189240497
1712022055564,30889.894795448985
1712022055603,33804.37835588516
1712022055643,36637.32674678974
1712022055683,38129.029611057136
1712022055724,41663.87716632476
1712022055764,44334.39504554588
1712022055804,45605.057725616265
1712022055844,47263.13064109231
1712022055884,47886.34015484061
1712022055924,39063.15560216876
1712022055965,25551.185435117688
1712022056005,19843.761032473296
1712022056045,20037.977770179976
1712022056085,23849.487343587214
1712022056125,27686.03662833525
1712022056166,28863.714798588306
1712022056205,28295.837270707125
1712022056246,29437.03785464284
1712022056286,31089.12597090099
1712022056326,33863.05926997191
1712022056367,36963.317515052855
1712022056406,40401.81730538886
1712022056446,43051.58898080094
1712022056486,51446.87840903783
1712022056526,59047.809449272696
1712022056567,64668.88386080088
1712022056607,63384.850421016105
1712022056647,53245.20646583382
1712022056687,47007.36980155809
1712022056727,46047.78756124526
1712022056768,45260.27317233756
1712022056807,42374.672772173304
1712022056848,39804.003116571344
1712022056888,36078.657834831625
1712022056928,32815.03851722367
1712022056969,31777.717091320083
1712022057008,32954.81320745917
1712022057048,33818.25772687234
1712022057089,34850.00412289472
1712022057129,36480.92533833161
1712022057169,37570.43719982309
1712022057209,39020.749334067106
1712022057249,38528.12417542236
1712022057289,28089.64662401937
1712022057329,15388.666895219125
1712022057370,10386.747196220793
1712022057410,10992.395913397428
1712022057450,13530.417671698146
1712022057490,16517.294317968655
1712022057530,17841.800747914705
1712022057571,16236.16540835891
1712022057610,17041.279252170585
1712022057651,18001.819489646703
1712022057691,19092.06632576231
1712022057731,24622.152772427537
1712022057772,24991.611310540233
1712022057811,26745.91248000646
1712022057851,30775.874666582327
1712022057892,32499.346800570376
1712022057932,31128.089564072434
1712022057973,16385.151870547794
1712022058012,2790.029745016247
1712022058052,-3435.9302996387705
1712022058092,-3256.943072010763
1712022058132,-192.66737489309162
1712022058173,784.8608998851851
1712022058212,-806.2031961423345
1712022058252,-689.5611069421284
1712022058293,-1202.4379635946825
1712022058333,478.0777059304528
1712022058373,4677.218377837911
1712022058413,5398.720758720301
1712022058453,5913.430940033868
1712022058493,8261.51573838666
1712022058533,13114.87790034106
1712022058574,16203.44324565027
1712022058613,11551.538129935041
1712022058654,-3382.7586966203526
1712022058694,-13449.738279429264
1712022058734,-16812.67757053394
1712022058775,-15158.935459048487
1712022058814,-12212.732724062633
1712022058854,-10938.293974593282
1712022058894,-11726.392357843928
1712022058934,-13017.159383194987
1712022058975,-12888.637613337953
1712022059015,-11923.852844213136
1712022059055,-6223.265861653723
1712022059095,-2406.469191832468
1712022059135,-2653.6654889602214
1712022059176,3495.777209038846
1712022059215,11450.813083261251
1712022059255,12603.722741535865
1712022059295,-19416.89439582918
1712022059335,-25678.694859618787
1712022059376,-22663.194854911882
1712022059416,-33068.338627505116
1712022059456,-32459.519371227827
1712022059496,-21291.971900324337
1712022059536,-25765.241778898053
1712022059577,-26657.852599713486
1712022059616,-24998.752633395605
1712022059656,-25610.69004976889
1712022059696,-21272.527406587265
1712022059737,-15075.827778092586
1712022059777,-11955.398148646113
1712022059817,-11511.741509985644
1712022059857,-8948.775954790879
1712022059897,-8385.799156651832
1712022059937,-24219.97433826793
1712022059978,-41576.41831654636
1712022060017,-46844.24969890108
1712022060057,-46831.10784832761
1712022060098,-44398.98635938903
1712022060138,-42294.15484155109
1712022060179,-43225.56265955791
1712022060218,-43649.35187252518
1712022060258,-40505.15914302599
1712022060298,-34492.74987610569
1712022060339,-31763.55990765104
1712022060379,-26449.812525711488
1712022060419,-18296.345075103454
1712022060459,-15751.435205443762
1712022060499,-18066.340468334965
1712022060539,-26523.924294597935
1712022060580,-23435.989828942344
1712022060619,-40758.191291254945
1712022060659,-48997.08743587416
1712022060700,-33042.49373692693
1712022060740,-20268.699509378057
1712022060780,-18518.841882204637
1712022060820,-11355.669930948876
1712022060860,-9300.80214336887
1712022060900,-8889.850358971395
1712022060940,-6276.073834663257
1712022060981,-4980.755156607367
1712022061021,-2914.683048630599
1712022061061,-972.4804238444194
1712022061101,1152.6914030332118
1712022061141,-5150.341177967377
1712022061182,-21413.024174751714
1712022061221,-31644.612538024783
1712022061261,-35213.704422774725
1712022061302,-34651.63146984507
1712022061342,-32388.043552416377
1712022061382,-30748.904761426616
1712022061422,-28266.367635138333
1712022061462,-26121.890431516338
1712022061502,-23882.909427938983
1712022061542,-19268.98341956036
1712022061583,-13746.122167711146
1712022061622,-11241.560464943992
1712022061663,-7253.890047219116
1712022061703,-1229.9013966401108
1712022061743,-7387.559748194646
1712022061784,-21928.064431899926
1712022061823,-28581.08073255606
1712022061863,-29093.01197322784
1712022061903,-25800.745194555027
1712022061943,-20811.380052703433
1712022061984,-17729.48545144545
1712022062024,-15615.964223251212
1712022062064,-12965.763672855217
1712022062104,-8062.9206999766175
1712022062144,-3994.6734887044877
1712022062185,-21.4593971518334
1712022062224,5575.612529424718
1712022062265,10511.613240923965
1712022062305,14030.716114150127
1712022062345,10865.779191604583
1712022062386,-4227.306502171792
1712022062425,-13892.009274221025
1712022062465,-16813.22157978406
1712022062506,-15998.290285712574
1712022062547,-12236.913307324518
1712022062587,-9331.97080342099
1712022062627,-7400.705204988131
1712022062667,-5231.092093074927
1712022062707,-3715.1847463888116
1712022062747,416.3208669712767
1712022062788,6521.734914896544
1712022062828,10642.76374869747
1712022062868,13699.505781562533
1712022062908,20061.84807214653
1712022062948,24374.99696023483
1712022062989,15409.38362318324
1712022063028,56.39412647415884
1712022063068,-7528.029645014089
1712022063109,-8349.34481620742
1712022063149,-6447.88054767251
1712022063189,-3728.820993181085
1712022063229,-1332.264042421477
1712022063269,783.2821687897667
1712022063309,3026.3331020236947
1712022063349,5823.439288272522
1712022063390,8500.407308802474
1712022063430,12495.766344117932
1712022063470,16633.697787531186
1712022063510,18433.08801838802
1712022063550,21857.884746894008
1712022063591,24069.04511182662
1712022063630,17950.44659618172
1712022063671,1931.5975274750963
1712022063711,-6821.185842528008
1712022063751,-8105.984989011195
1712022063792,-7530.814422072843
1712022063831,-6037.730722117238
1712022063871,-1465.359713557642
1712022063911,985.947476520203
1712022063951,4133.668508413713
1712022063992,8481.120051304344
1712022064032,12464.676652846858
1712022064072,16591.08013510611
1712022064112,19521.529769296525
1712022064152,23044.03287859354
1712022064193,25828.25583675434
1712022064232,28627.167310844176
1712022064272,21378.453572213184
1712022064312,5997.346157510299
1712022064352,-1384.6385946064256
1712022064393,-3442.0749671999365
1712022064432,-3111.9167508892715
1712022064473,-1874.152269490296
1712022064513,474.65516547253355
1712022064553,2523.3498203146737
1712022064594,4857.321973821847
1712022064633,7207.958584927488
1712022064673,11153.308794504963
1712022064713,15219.912989239674
1712022064753,18306.142134576105
1712022064794,22422.27733419044
1712022064833,24932.954870645422
1712022064874,28797.469266532687
1712022064914,31703.653270836687
1712022064954,34796.85054351273
1712022064995,36819.38168606628
1712022065034,39454.19588819612
1712022065074,42712.1284031393
1712022065114,44866.364147884306
1712022065155,35112.49538847059
1712022065195,18327.032619352452
1712022065234,9523.959396954626
1712022065275,7211.68457331229
1712022065315,6239.583555778023
1712022065355,6315.186341602821
1712022065396,7305.053806973621
1712022065435,7957.8044377481565
1712022065475,8787.674644991755
1712022065515,9771.403510407545
1712022065555,12727.826520704664
1712022065596,15588.234628026374
1712022065636,17908.270177466795
1712022065676,21118.909358873963
1712022065716,23657.299197528046
1712022065756,26389.868994965684
1712022065797,28887.88794995006
1712022065836,31345.09952430334
1712022065876,33685.66629833169
1712022065916,36186.31263230927
1712022065956,38607.293025418185
1712022065997,40510.715112093836
1712022066037,42747.12335989019
1712022066077,42662.61936012469
1712022066117,28766.697921761777
1712022066157,15056.429506975226
1712022066198,9359.534016306512
1712022066237,6990.6335993791
1712022066277,7109.193263030611
1712022066317,7121.520408659708
1712022066358,6975.8162692328915
1712022066398,6118.368339928798
1712022066438,7312.504167278297
1712022066478,9080.955471401569
1712022066518,11950.451739514712
1712022066558,15327.120431399904
1712022066599,17848.19771173317
1712022066638,20398.89400826441
1712022066679,22881.4820108735
1712022066719,25184.197183330078
1712022066759,27389.70017567929
1712022066800,29644.544078983366
1712022066839,31566.740973456297
1712022066879,33695.1702988036
1712022066919,35117.84434910957
1712022066960,36650.350643676706
1712022067000,38168.66614674451
1712022067040,32796.309758869
1712022067080,18002.698313833214
1712022067120,7606.0424445047975
1712022067160,4957.267953868955
1712022067201,4447.606284466572
1712022067240,5125.553513506427
1712022067281,5738.674474665895
1712022067321,5182.085161142051
1712022067361,4627.360543636605
1712022067402,5779.0723228901625
1712022067441,6757.265626783948
1712022067481,8526.460931970738
1712022067521,12243.654577907175
1712022067562,15117.891543092672
1712022067602,18128.61589246057
1712022067642,19911.886640330777
1712022067682,22430.235266700387
1712022067722,24512.78140857583
1712022067762,26641.377401471138
1712022067803,28928.951504822355
1712022067842,30946.3024384398
1712022067883,31519.868831502274
1712022067923,22426.054773800075
1712022067963,11046.419611997437
1712022068004,5334.179534110241
1712022068043,3967.0212790966034
1712022068083,4581.593192123342
1712022068123,6746.028219403699
1712022068164,7296.048073173501
1712022068204,6795.568165383767
1712022068244,6512.233266939409
1712022068284,7379.73005245626
1712022068324,9285.55164084863
1712022068364,10271.191439218353
1712022068405,13047.503277502954
1712022068444,14717.850275887176
1712022068485,16965.439905378968
1712022068525,18359.336646409705
1712022068565,20305.766954753082
1712022068606,22034.81188041158
1712022068645,24607.708736990113
1712022068685,21392.049501923844
1712022068726,9633.008606027812
1712022068766,1170.7580530298874
1712022068807,-1590.2325144549832
1712022068846,-1407.7607337804511
1712022068886,-981.2435940043069
1712022068926,-225.19131630426273
1712022068966,-492.5925511694513
1712022069007,-1138.5732992487028
1712022069047,-332.06016131304204
1712022069087,1259.1698108487763
1712022069127,2005.346824593842
1712022069167,4727.810548661277
1712022069208,7923.496834397782
1712022069248,10311.828450801782
1712022069288,11853.435732624028
1712022069328,14104.711393197533
1712022069368,16233.709626114927
1712022069409,18792.955479904078
1712022069448,14830.403575433418
1712022069489,934.2239740728401
1712022069529,-8830.900269692764
1712022069569,-14332.258230580948
1712022069610,-15796.600285063963
1712022069649,-14140.246501400601
1712022069689,-14710.695273549296
1712022069729,-15562.747016977519
1712022069769,-17730.56348281447
1712022069810,-17620.97063976247
1712022069850,-16557.995530808344
1712022069890,-15223.626303837169
1712022069930,-13505.125803133938
1712022069970,-11079.673445795663
1712022070011,-8865.727263753768
1712022070050,-6783.612314580008
1712022070090,-5198.5084032276645
1712022070130,-3857.1037268922664
1712022070170,-1097.8433367474936
1712022070211,-354.8523960248567
1712022070251,-9627.606002590619
1712022070291,-21685.208150106482
1712022070331,-28576.082316246815
1712022070371,-31177.6707402952
1712022070412,-30003.366915229708
1712022070451,-28123.11469912529
1712022070491,-27419.692662626505
1712022070531,-26630.437529584393
1712022070572,-23403.507244777866
1712022070612,-20433.393808982335
1712022070652,-10325.610169718973
1712022070692,5732.586659577675
1712022070732,24150.83922429895
1712022070772,40216.34044254664
1712022070813,50509.82121155225
1712022070852,56327.11328619206
1712022070893,57221.67126640165
1712022070933,56497.249264656566
1712022070973,55546.91556263855
1712022071014,51310.21933076251
1712022071053,36354.08359849453
1712022071093,21359.28598766774
1712022071133,12629.445482823998
1712022071173,9004.540429784916
1712022071214,7926.842866139486
1712022071254,6735.187206476927
1712022071294,3876.0352875711396
1712022071334,1406.8641620003618
1712022071374,-738.9698257381096
1712022071415,-952.7693904009648
1712022071454,-161.70762878283858
1712022071494,1577.1333390865475
1712022071535,2421.1404263647273
1712022071575,3996.826849712059
1712022071615,5462.291229464114
1712022071655,7234.858739764895
1712022071695,9166.997178136837
1712022071735,10665.92498180177
1712022071775,10959.214931777678
1712022071816,3364.809792133048
1712022071855,-7755.547457078006
1712022071896,-10538.065598616377
1712022071936,-11579.001698357984
1712022071976,-9913.851060158573
1712022072017,-5640.553329423536
1712022072056,-4618.518230324611
1712022072096,-7624.076383950654
1712022072136,-8669.862690630835
1712022072176,-7274.453937085811
1712022072217,-6008.180864684749
1712022072257,-3994.747144414112
1712022072297,-1235.8052426935174
1712022072337,1928.8382036839612
1712022072377,3827.1254460942
1712022072418,6484.621314689051
1712022072457,8856.93837419292
1712022072498,10561.927910154685
1712022072538,10738.386449676938
1712022072578,2070.889913035091
1712022072619,-6368.2257460691035
1712022072658,-8501.09413365135
1712022072698,-7201.733194177505
1712022072739,-4787.126054517459
1712022072779,-2624.8239609748125
1712022072819,-1386.7190391081385
1712022072859,-1991.7670126101002
1712022072899,-751.000639309641
1712022072939,1022.3948628148064
1712022072980,2908.038316834718
1712022073020,5492.453376031015
1712022073060,8187.55448911991
1712022073100,10196.326458653435
1712022073140,12782.5034649265
1712022073180,14890.05434391275
1712022073221,16651.272691959515
1712022073260,15273.881916730199
1712022073300,5351.243147159927
1712022073341,-2573.3470086222515
1712022073381,-3967.7229902027175
1712022073422,-2302.9763213391416
1712022073461,213.4756566756405
1712022073501,1639.1505694193766
1712022073541,1353.0619519813918
1712022073582,167.83936337009072
1712022073622,509.2234865017235
1712022073662,2246.8198987403885
1712022073702,3745.77357465541
1712022073742,5219.384468772449
1712022073782,7922.580409096554
1712022073823,9870.109838559292
1712022073863,11508.483482518699
1712022073903,12839.525415776763
1712022073943,9407.77724262746
1712022073983,-1140.6297533977777
1712022074024,-8457.13601550879
1712022074063,-10585.515603316948
1712022074104,-10136.19425418228
1712022074144,-8791.311564561911
1712022074184,-8706.004149145447
1712022074225,-10117.347143466119
1712022074264,-10522.891497657169
1712022074305,-10164.15650489647
1712022074345,-8551.618462457787
1712022074385,-6152.182973202318
1712022074426,-4022.0109346490353
1712022074465,-2001.5869720559567
1712022074505,441.13644160469994
1712022074546,2347.0697251698
1712022074586,3979.3539575170726
1712022074626,-1742.0712818591855
1712022074666,-14325.925875809975
1712022074706,-21693.222327506635
1712022074746,-24081.62936201226
1712022074787,-24658.727502406575
1712022074827,-24380.853216569405
1712022074867,-24163.571419156156
1712022074907,-24659.36818385776
1712022074947,-25028.439241758548
1712022074987,-22689.99753447296
1712022075028,-19006.25298396405
1712022075068,-16524.80991471
1712022075108,-13532.704789607786
1712022075148,-11118.84591310285
1712022075188,-8102.040232656524
1712022075229,-5215.920580285601
1712022075268,-2366.6042545191012
1712022075308,-9110.772747391835
1712022075348,-21657.586346144322
1712022075389,-28657.918975664303
1712022075429,-30532.74895704817
1712022075469,-31066.927268764935
1712022075509,-29996.5754345553
1712022075549,-29533.473010113463
1712022075589,-28914.990758975968
1712022075630,-27757.27112339111
1712022075669,-25765.622832610272
1712022075709,-22809.41283643432
1712022075750,-19046.617706368677
1712022075790,-14985.21759680286
1712022075830,-11945.679225911386
1712022075870,-8451.299151156098
1712022075910,-5680.713565242477
1712022075950,-2317.710758620873
1712022075990,676.7291756607592
1712022076031,3636.940258936025
1712022076070,6297.801019795705
1712022076111,9429.394118754659
1712022076151,11882.590190500021
1712022076191,14339.273475825787
1712022076232,6452.572563627735
1712022076271,-6547.705364292022
1712022076311,-12744.076016468927
1712022076351,-14137.4111888865
1712022076391,-14295.330544850323
1712022076432,-14197.172560855746
1712022076472,-14330.879892786965
1712022076512,-15082.775817779824
1712022076552,-15142.16448928928
1712022076592,-12993.491104245186
1712022076633,-10036.405010350049
1712022076672,-7221.30746627925
1712022076712,-4035.7989684715867
1712022076752,-610.6232416182756
1712022076793,1853.0964681548066
1712022076833,4773.842821714468
1712022076873,7687.155531138182
1712022076913,10405.394472041167
1712022076953,13243.279850125313
1712022076993,15820.97076001577
1712022077034,18694.588010649662
1712022077073,21194.214062688872
1712022077113,23779.942830061074
1712022077154,18008.89806817379
1712022077194,5998.8099222984165
1712022077234,-935.1713804765604
1712022077274,-2319.6178870536387
1712022077314,-2521.232245550491
1712022077354,-1900.5212983312085
1712022077394,-1752.6939893509261
1712022077435,-2202.7146303066984
1712022077475,-2352.524629365653
1712022077515,-497.79029355943203
1712022077555,644.4085968369618
1712022077595,2610.8479233067483
1712022077636,5293.02203629259
1712022077675,7674.125207348727
1712022077715,10655.447972956114
1712022077756,13088.776958853006
1712022077796,15977.41650804365
1712022077836,18631.68817770295
1712022077876,20569.309313932434
1712022077916,23006.04671269888
1712022077956,25293.51402889518
1712022077996,27491.285277953837
1712022078037,28256.398748581763
1712022078077,20230.91699929163
1712022078117,10142.707703486085
1712022078157,4459.342764131725
1712022078197,3162.795421863906
1712022078238,3300.850441586226
1712022078277,4132.776901428588
1712022078317,3173.6668409439735
1712022078358,1834.0799779510126
1712022078398,1257.1521392897703
1712022078438,2708.7257185569033
1712022078478,4043.9470275947824
1712022078518,6080.921657950152
1712022078558,7722.376663547941
1712022078598,9709.313943590969
1712022078639,11480.420433043968
1712022078679,13255.427175347693
1712022078719,15632.723454400431
1712022078759,17205.008490512148
1712022078799,18412.01373773394
1712022078840,20246.508398988284
1712022078880,22652.787541818805
1712022078920,21390.673628574703
1712022078960,11964.766723439097
1712022079000,1693.6923572644591
1712022079041,-2543.7196006472223
1712022079080,-3894.7641626577824
1712022079121,-3929.66265763063
1712022079161,-3055.400625807233
1712022079201,-4025.9156382381916
1712022079242,-5075.490853050724
1712022079281,-5313.278361971024
1712022079321,-3650.011449458543
1712022079362,-2094.4216922172345
1712022079402,41.557366877794266
1712022079443,2704.4820790193044
1712022079482,4920.309375187848
1712022079522,6828.187392159831
1712022079562,8992.3165709991
1712022079603,10867.67442959547
1712022079643,12762.510877012275
1712022079683,15155.494884277694
1712022079723,17237.55937879812
1712022079763,19667.711485496257
1712022079803,16264.446575355716
1712022079844,4402.2689902391285
1712022079884,-4042.539425397292
1712022079924,-7296.540321012493
1712022079964,-8788.816353928763
1712022080004,-9570.237136236392
1712022080045,-11080.287164759822
1712022080085,-11493.184671470895
1712022080125,-12085.741788362153
1712022080165,-11731.579585483763
1712022080205,-9981.888245865703
1712022080246,-8175.673620312475
1712022080286,-5586.8671339564025
1712022080326,-3575.5494972392917
1712022080366,-1655.7277410537936
1712022080406,838.7696973215789
1712022080447,2826.0990691930056
1712022080486,5364.8751005409285
1712022080526,8335.13187001599
1712022080566,10915.888795176521
1712022080606,13413.014053071849
1712022080647,14332.001775431912
1712022080687,5357.315161914565
1712022080727,-5204.272773034871
1712022080767,-10327.888152813539
1712022080807,-12130.268060717732
1712022080848,-12951.919001799542
1712022080887,-12217.932817936875
1712022080928,-12153.697451436426
1712022080968,-12454.125320463907
1712022081008,-12156.221124875825
1712022081049,-10488.882091944106
1712022081088,-8023.177277546842
1712022081128,-4414.987483474426
1712022081168,-1746.2608589371666
1712022081208,1096.141800575424
1712022081249,3626.4984075617976
1712022081289,5862.052758289501
1712022081329,10058.241291252896
1712022081369,12891.112709863577
1712022081409,15794.142419117503
1712022081450,18101.19079593476
1712022081489,16828.97311854083
1712022081529,7006.626987885684
1712022081569,-2586.7978098411113
1712022081609,-5590.673461976927
1712022081650,-5556.940432636067
1712022081690,-5276.421525488608
1712022081730,-4319.385817492381
1712022081770,-5013.592362579424
1712022081810,-5695.90049542021
1712022081851,-5228.068293042481
1712022081890,-3776.6517252735794
1712022081930,-974.193793729879
1712022081970,1414.2737171631306
1712022082011,3287.599915600382
1712022082051,4938.302787686698
1712022082091,7468.925383365247
1712022082131,10230.69865028141
1712022082171,11906.784941471182
1712022082211,14183.414342644624
1712022082252,14516.441628726665
1712022082291,5618.450182877015
1712022082332,-4068.3290364816785
1712022082372,-8281.94788942393
1712022082412,-10201.657394815236
1712022082453,-9978.135678084567
1712022082492,-8522.490530221723
1712022082532,-8306.070762130432
1712022082572,-8842.72559205722
1712022082613,-7876.5116480998695
1712022082653,-6928.931245353073
1712022082693,-4244.136530897114
1712022082733,-1570.8493617800996
1712022082773,1392.277049000375
1712022082813,2769.512609087862
1712022082854,5653.152269458864
1712022082893,7541.0003228387795
1712022082933,9986.819359573536
1712022082974,10439.135169869289
1712022083014,2371.9271403364837
1712022083055,-8178.1377773871645
1712022083094,-13785.495995310135
1712022083134,-15030.551581840962
1712022083174,-15331.018452918623
1712022083215,-14408.448883054778
1712022083255,-14318.07615793543
1712022083295,-13473.914287889842
1712022083335,-12270.691165626515
1712022083375,-10554.924671940506
1712022083415,-8060.015084729064
1712022083456,-4776.350782545283
1712022083495,-1886.0514081194997
1712022083535,1387.4043088387698
1712022083576,3718.6581721897237
1712022083616,6786.130160968285
1712022083657,9043.634341274854
1712022083696,12536.988887633663
1712022083736,13914.164914322551
1712022083776,5090.455452677794
1712022083817,-4417.7066597845405
1712022083857,-8597.61671416834
1712022083897,-9999.948123015929
1712022083937,-9596.85871695308
1712022083977,-9585.253199883737
1712022084017,-8961.25434928853
1712022084058,-8386.758079668973
1712022084097,-6399.228507503867
1712022084138,-4770.761885162909
1712022084178,-1914.202448646538
1712022084218,1260.9354548067786
1712022084259,5227.2636529323645
1712022084298,8086.611753078178
1712022084338,11527.517532150261
1712022084378,14161.152133020572
1712022084419,17235.928372534458
1712022084459,19546.34238740569
1712022084499,21945.49552864302
1712022084539,23159.11158579029
1712022084579,15272.214619878214
1712022084620,6374.304887604434
1712022084660,3188.151790729724
1712022084700,2098.451217772439
1712022084740,2037.0990604097024
1712022084780,3006.2982834931463
1712022084820,2982.7752077225596
1712022084861,3738.7073050895706
1712022084901,4401.584421514999
1712022084941,6544.01240037987
1712022084981,8625.23129061982
1712022085021,11369.143834158778
1712022085062,13768.20082647726
1712022085101,16698.396587454714
1712022085142,18800.036951315124
1712022085182,20764.716744614765
1712022085222,22383.804024410434
1712022085263,24669.604287547525
1712022085302,27133.4262955077
1712022085342,29234.967843979597
1712022085383,25723.58662636252
1712022085423,16893.282462439034
1712022085463,12197.862258443609
1712022085503,10876.958584465552
1712022085543,10603.062434571795
1712022085583,11373.099973308854
1712022085624,11019.822459632996
1712022085664,10819.379939179868
1712022085704,10827.023341899738
1712022085744,11739.24412151426
1712022085784,16809.46961056767
1712022085824,19008.10343910847
1712022085865,20829.57615644764
1712022085904,22277.3081305027
1712022085944,23965.548804170918
1712022085984,26128.217437473126
1712022086024,27674.0212883153
1712022086065,29248.855334817432
1712022086105,31237.888810968027
1712022086145,29360.957029576413
1712022086185,21332.293327516876
1712022086225,15079.880168821663
1712022086266,13961.112253969535
1712022086305,14227.247017430142
1712022086345,15274.96400521323
1712022086385,15446.421475291252
1712022086425,14942.482115937397
1712022086466,14970.969497657847
1712022086506,15388.179661918897
1712022086546,16764.157929854468
1712022086586,17262.843291926198
1712022086625,19237.277262766846
1712022086666,19704.34737999318
1712022086705,21641.347736841533
1712022086745,22494.778185232542
1712022086786,23604.710282395594
1712022086826,24735.25180489011
1712022086866,26338.97623263672
1712022086906,25878.129048312083
1712022086946,18842.87361415848
1712022086986,11737.744747268967
1712022087026,9172.218597397208
1712022087067,8017.948050506413
1712022087106,7881.439292614814
1712022087146,7522.021945832297
1712022087187,6487.535828093998
1712022087227,5215.885418039281
1712022087268,4587.066366962623
1712022087307,5324.750267185271
1712022087347,6125.71144304052
1712022087387,6874.375790297519
1712022087428,8649.345394733362
1712022087468,9526.354563690722
1712022087508,11452.003813415766
1712022087548,11983.439189642668
1712022087588,13577.860767590348
1712022087628,13929.40311356401
1712022087669,5391.029609206598
1712022087708,-3793.2156772445887
1712022087748,-9062.864347794559
1712022087789,-11283.366271057632
1712022087829,-12952.42557106074
1712022087870,-13700.860221723095
1712022087909,-14869.082325083204
1712022087949,-16040.302575730719
1712022087989,-17284.847203457728
1712022088029,-16806.39872150868
1712022088070,-16344.131444977596
1712022088110,-13843.214297493454
1712022088150,-12905.664781077765
1712022088190,-10339.733823313843
1712022088230,-8922.481117808726
1712022088271,-7194.442838379182
1712022088310,-5175.2080952557735
1712022088350,-3252.0128129282966
1712022088391,-2174.1836676476523
1712022088431,-11555.022900134325
1712022088472,-24186.319484770298
1712022088511,-31242.01784992963
1712022088551,-33174.73991473857
1712022088591,-34879.30632671714
1712022088631,-35780.05660053715
1712022088672,-36783.063759091776
1712022088712,-38069.7037408147
1712022088752,-37861.07655073935
1712022088792,-36671.84188886359
1712022088832,-33892.68823793251
1712022088873,-31375.62263604859
1712022088912,-28899.332626901567
1712022088952,-25488.38102192385
1712022088993,-23210.164270089008
1712022089033,-20675.221242460422
1712022089074,-17151.53952936828
1712022089113,-14206.872380569577
1712022089153,-10513.100852408446
1712022089193,-8669.036193567794
1712022089234,-16884.870644507
1712022089274,-29946.641827509273
1712022089314,-36757.95167327998
1712022089354,-37114.191444807686
1712022089394,-36757.82070166571
1712022089434,-35394.77062517172
1712022089475,-35014.36188380141
1712022089514,-33958.97918381542
1712022089554,-32729.24549984513
1712022089595,-30080.28353883233
1712022089635,-26372.50016986346
1712022089675,-22561.125627535395
1712022089715,-19545.215619204566
1712022089755,-15318.616403626278
1712022089795,-11661.119559680112
1712022089835,-9265.465980079025
1712022089876,-5793.052938556299
1712022089915,-2189.28025565017
1712022089956,1550.7073098877445
1712022089996,4259.638340235688
1712022090036,-795.5332396165468
1712022090077,-11757.074116763659
1712022090116,-17435.80840083398
1712022090156,-18104.640910817776
1712022090197,-16164.729512941558
1712022090237,-14308.671509080566
1712022090277,-12784.750977656804
1712022090317,-11936.352750360034
1712022090357,-11136.14415561175
1712022090397,-8905.358117392287
1712022090437,-6361.388400509488
1712022090478,-1997.0138713959605
1712022090518,1935.231278391555
1712022090558,5116.8052351484075
1712022090598,8471.101373733953
1712022090638,11056.99164117314
1712022090679,13702.896056795493
1712022090718,16687.733723417856
1712022090759,19542.41699741641
1712022090799,20572.361340874806
1712022090839,12663.673750626855
1712022090880,4005.243480209261
1712022090919,-177.87731991289183
1712022090959,98.48026619106531
1712022090999,2044.5050188070163
1712022091040,3147.094135766849
1712022091080,3497.423230579123
1712022091120,3500.395764722489
1712022091160,3925.234885293059
1712022091200,5834.683710957877
1712022091240,7847.812118023634
1712022091281,10577.751826458145
1712022091321,13097.176246732473
1712022091361,15129.156483661383
1712022091401,17644.896121561527
1712022091441,19879.99171195412
1712022091482,22370.23515976034
1712022091521,24352.95002707001
1712022091561,22637.01629915554
1712022091601,14041.04314626474
1712022091642,7507.371225055307
1712022091682,5725.057905594818
1712022091722,5937.617277148645
1712022091762,6411.381869475823
1712022091802,6515.2323021693155
1712022091842,6330.047585699707
1712022091883,6366.425291456282
1712022091922,7422.502428878099
1712022091962,9413.454435510095
1712022092003,11603.361907579005
1712022092043,13497.631999512203
1712022092083,15920.422290127724
1712022092123,17729.745089089498
1712022092163,19724.177766415756
1712022092203,22293.176182781346
1712022092243,24697.023328217678
1712022092284,25071.824284409173
1712022092323,19671.07344262395
1712022092364,11772.25222078478
1712022092404,7950.199423304759
1712022092444,6872.8105148319155
1712022092485,6779.730314661749
1712022092524,7028.894672424998
1712022092564,6863.7476351941
1712022092604,5913.817036473192
1712022092644,5919.6302399663255
1712022092685,7392.64444918558
1712022092725,8962.493736195378
1712022092765,10088.695187007077
1712022092805,12285.20280615706
1712022092845,13754.754763987847
1712022092886,15344.9859431386
1712022092925,17604.17743629124
1712022092965,19253.60787401814
1712022093005,21009.836629156955
1712022093045,19594.670710949227
1712022093086,12276.399570404086
1712022093126,6506.9160968102515
1712022093166,4837.6800638651475
1712022093206,4213.103926680516
1712022093246,3744.5732025736943
1712022093287,3793.8977616447955
1712022093326,3261.288235648535
1712022093366,2960.0019301995635
1712022093406,4383.752959161997
1712022093447,6106.706692214124
1712022093487,8060.590558826923
1712022093527,9481.908712198026
1712022093567,12123.3045449364
1712022093607,13189.535760764498
1712022093650,14338.445961634163
1712022093688,16358.683165074792
1712022093727,17906.029706959613
1712022093768,14895.697721360251
1712022093808,6127.976488455199
1712022093848,2049.5687433769926
1712022093889,1049.042363641318
1712022093928,1215.058824700769
1712022093968,1426.3333784174174
1712022094008,1087.024925565347
1712022094049,9.48152796458453
1712022094089,-115.06548175914213
1712022094129,502.0320209329948
1712022094169,2114.583072845824
1712022094209,4191.428632918745
1712022094249,6087.670721897855
1712022094290,7812.733308270108
1712022094329,9526.9466193486
1712022094369,10373.624333821237
1712022094410,10547.064603265375
1712022094450,3088.390280756168
1712022094490,-4129.1409446094185
1712022094530,-6795.912783076055
1712022094570,-7320.510208590422
1712022094610,-6939.758883295581
1712022094651,-6446.644097649027
1712022094691,-7392.120314670727
1712022094731,-7801.363768323325
1712022094771,-7818.220705597661
1712022094811,-6294.650387547445
1712022094851,-3995.1899724220857
1712022094892,-2182.3942136890255
1712022094931,153.5728245684877
1712022094972,2233.4778512865305
1712022095012,5245.329971469939
1712022095052,5883.484874172136
1712022095093,708.1121104219928
1712022095132,-8652.570126143284
1712022095172,-13491.532388567459
1712022095212,-14197.085797291249
1712022095253,-14238.065567168873
1712022095293,-13282.781720222905
1712022095333,-13091.63786817668
1712022095373,-13735.625881880987
1712022095413,-13353.71663726028
1712022095453,-11636.841705296189
1712022095494,-9776.53350524744
1712022095534,-7829.216328038368
1712022095574,-4959.262816958129
1712022095614,-2362.0985360634513
1712022095654,946.2014663945884
1712022095695,1982.436832380481
1712022095734,-6424.08844287321
1712022095774,-15453.163489321712
1712022095815,-20412.416300436482
1712022095858,-20865.705715451855
1712022095896,-19674.129670663737
1712022095935,-18824.82353603281
1712022095975,-18993.854867045302
1712022096015,-19076.946337569505
1712022096056,-17881.011281399056
1712022096097,-15316.361459148116
1712022096136,-12850.88420466194
1712022096176,-9380.925278007053
1712022096216,-6507.0473327999935
1712022096256,-3823.6831956794485
1712022096297,-1647.056405080948
1712022096337,-366.8175678886473
1712022096377,-9670.074630384333
1712022096417,-19750.911924415734
1712022096457,-23174.397269376554
1712022096498,-24019.12883891724
1712022096538,-22747.34887604136
1712022096578,-22162.866668698844
1712022096618,-22036.009626690764
1712022096658,-21376.87209213525
1712022096699,-19513.004480302334
1712022096738,-16909.548107045237
1712022096778,-13634.94302608259
1712022096819,-9668.321785713546
1712022096859,-6768.854953490198
1712022096900,-3599.5963141461834
1712022096939,-550.0386315789074
1712022096979,5973.7753616943955
1712022097019,4363.501741276588
1712022097060,-7342.396502836142
1712022097100,-14310.18266966939
1712022097140,-16915.759216624312
1712022097180,-17932.616267031524
1712022097220,-17821.54638748523
1712022097260,-17259.753476897255
1712022097301,-16480.425714034587
1712022097340,-15133.887589666061
1712022097380,-13017.21804792853
1712022097420,-9630.236982477363
1712022097460,-6524.391196716577
1712022097501,-3130.849516270682
1712022097541,388.6299248165451
1712022097581,3539.6078065563925
1712022097621,7111.987232484855
1712022097661,10340.722139756195
1712022097702,13604.035049220081
1712022097741,16238.014523773454
1712022097781,19275.594093835447
1712022097821,21559.99071564153
1712022097861,23509.68720433861
1712022097902,15933.162426034454
1712022097942,5440.208329836838
1712022097982,1038.5522363055497
1712022098022,233.58097705803812
1712022098065,-616.8214757810347
1712022098103,-353.51938319951296
1712022098142,-191.41119687026367
1712022098182,-382.64124010689557
1712022098222,115.44692102912813
1712022098263,1810.9579303208739
1712022098303,4195.355603447184
1712022098343,6953.306780806743
1712022098383,9236.703064685222
1712022098423,11899.365990469232
1712022098463,14284.586908507627
1712022098504,16597.046395050827
1712022098543,19288.13884860184
1712022098583,21378.399383313023
1712022098624,24041.700444409624
1712022098664,26478.542579449248
1712022098704,28741.607244237326
1712022098744,29839.50293753622
1712022098784,22275.532253834885
1712022098824,14327.144778909162
1712022098864,11219.911183018237
1712022098905,10800.729242204223
1712022098944,11037.843272292987
1712022098985,11284.818804646842
1712022099025,11653.37193243485
1712022099065,11529.857401120476
1712022099106,11928.577264875174
1712022099145,14080.126378006767
1712022099185,16156.833500854205
1712022099225,17978.689413180575
1712022099265,19296.21237208834
1712022099306,21074.536840354092
1712022099346,23308.60968037555
1712022099386,25514.53270172607
1712022099426,26955.591130343266
1712022099466,28985.725668595172
1712022099507,30734.40842221072
1712022099546,32404.267311196774
1712022099586,33938.43897027988
1712022099626,28199.049120186828
1712022099667,20625.550340206362
1712022099708,17798.017810469493
1712022099747,17298.604499867186
1712022099787,17871.860201497097
1712022099827,18619.98144169431
1712022099867,18571.955877172295
1712022099908,17199.304074442945
1712022099948,17095.749103712384
1712022099988,17712.367848710157
1712022100028,19096.473129527643
1712022100068,20629.496265438385
1712022100109,21606.819262037985
1712022100148,22769.304630091414
1712022100188,24221.814332666807
1712022100228,24825.08356772922
1712022100268,26427.72649000259
1712022100309,26524.70333467424
1712022100349,28464.88234646432
1712022100389,28053.718611461576
1712022100429,20362.331003870815
1712022100469,13128.280724568292
1712022100510,10313.245677188039
1712022100549,10535.142387330532
1712022100590,10799.110781640746
1712022100630,10594.353390361182
1712022100670,9049.805137047544
1712022100711,7804.619207853451
1712022100750,7790.070993232541
1712022100790,8524.740098595154
1712022100830,9347.610071013682
1712022100871,10735.316466469318
1712022100912,12001.809139849152
1712022100951,13178.147880243137
1712022100991,13820.139589736238
1712022101031,14673.171866245568
1712022101071,16142.102733425796
1712022101112,17898.04577385448
1712022101152,18688.407125135884
1712022101192,13839.695595110767
1712022101232,3413.728036564775
1712022101272,-3629.1233520545065
1712022101313,-6025.369146901183
1712022101352,-7954.063911415171
1712022101393,-8931.000713932794
1712022101433,-10401.583077914082
1712022101473,-12140.220430876594
1712022101514,-12943.307140788529
1712022101553,-13012.637012924533
1712022101593,-11444.946899008472
1712022101634,-11075.189644725528
1712022101674,-9427.204145266674
1712022101714,-8048.616048633121
1712022101754,-6264.883247270249
1712022101794,-5072.426085694693
1712022101834,-3837.861288083717
1712022101874,-1822.381378770806
1712022101915,170.87009215867147
1712022101955,2709.4013961954042
1712022101995,2289.393236945849
1712022102035,-8343.749760816805
1712022102075,-19513.83716130117
1712022102116,-24630.83335813135
1712022102155,-26834.301256738603
1712022102196,-27922.484663654584
1712022102236,-29452.268497262616
1712022102276,-30464.511761201546
1712022102317,-31104.21657556668
1712022102356,-30807.95849667769
1712022102396,-29934.626393434126
1712022102436,-27628.579273525625
1712022102477,-24803.64253554633
1712022102517,-22334.958248181734
1712022102557,-19401.855863138102
1712022102597,-17420.29625213705
1712022102637,-14108.871647095308
1712022102677,-11909.6427948419
1712022102718,-9273.162883027457
1712022102757,-6669.162320590578
1712022102797,-4054.0404697144404
1712022102838,-3106.2126865619794
1712022102878,-13429.063461871352
1712022102918,-24596.275432489812
1712022102958,-29528.036046062596
1712022102998,-30552.11571596004
1712022103038,-30169.662614577916
1712022103078,-29371.467474090867
1712022103119,-28939.843465560116
1712022103158,-29450.49544961704
1712022103198,-28326.89363619685
1712022103238,-26473.52358964784
1712022103279,-23282.369703342207
1712022103319,-20537.8222201732
1712022103359,-17067.049425114878
1712022103399,-13636.006177249365
1712022103439,-10306.64216036629
1712022103479,-7416.563661595341
1712022103520,-3807.6568200038746
1712022103559,-403.0160284587182
1712022103599,2806.5231027640402
1712022103639,5890.455000837799
1712022103680,6177.12500232039
1712022103720,-3332.3291618628427
1712022103760,-13361.153546941467
1712022103800,-16823.947946241125
1712022103840,-16641.691179616377
1712022103880,-14845.633882029913
1712022103921,-13039.938393367454
1712022103960,-12809.684023882728
1712022104000,-12899.386304563843
1712022104041,-11569.023783982266
1712022104081,-9280.47057729587
1712022104121,-5860.344841778278
1712022104161,-3208.3676524595357
1712022104201,67.49871108355
1712022104241,2781.445537137799
1712022104281,5097.819817470387
1712022104322,7484.20844382979
1712022104361,9886.137238333933
1712022104402,12033.527564812452
1712022104442,14183.24790546624
1712022104482,12235.598798217252
1712022104523,2899.3507166979834
1712022104562,-4381.957761078607
1712022104602,-5801.4501116485335
1712022104642,-5392.380220084917
1712022104682,-3782.3054344872944
1712022104723,-2949.870437887963
1712022104763,-3386.962825961411
1712022104803,-3009.4711221326143
1712022104843,-2034.462061101105
1712022104883,-350.463892146945
1712022104924,2106.4487229064107
1712022104963,4956.650227792561
1712022105003,6654.668527821079
1712022105043,9251.813660563435
1712022105084,11813.045734103769
1712022105124,14314.482547857799
1712022105164,16878.893754220568
1712022105204,18431.205873928964
1712022105244,15859.58023771923
1712022105284,6364.513028161135
1712022105325,-315.75304626720026
1712022105364,-1656.7390917199664
1712022105404,-2859.0215997020714
1712022105444,-3096.4831609693356
1712022105485,-2882.3526830002666
1712022105525,-3210.5625025592744
1712022105565,-2917.2379877823405
1712022105605,-1814.8530675233342
1712022105645,371.99438829440624
1712022105685,2707.9901475226507
1712022105726,5344.599532313645
1712022105765,6810.274871295318
1712022105805,8510.569734178483
1712022105846,10791.187776292674
1712022105886,12695.913654747419
1712022105927,14656.116036018357
1712022105966,16286.133485323284
1712022106006,17894.15040269727
1712022106046,13436.16368534835
1712022106087,4007.634470022749
1712022106127,-1768.50890352251
1712022106167,-3813.136337625794
1712022106207,-5181.888794629369
1712022106247,-5780.1261776685715
1712022106287,-5368.774365505204
1712022106328,-6194.8404626431875
1712022106367,-5913.217831913382
1712022106407,-5164.611631961539
1712022106448,-3810.887461721897
1712022106488,-1871.9695599405095
1712022106528,-75.92731836531311
1712022106568,1444.9844433502294
1712022106608,3953.001105660107
1712022106648,5295.844007503241
1712022106689,7714.7619938366115
1712022106729,9582.356147717685
1712022106769,11200.82468329696
1712022106809,13266.059723041486
1712022106849,15856.75365783181
1712022106889,16730.537480064668
1712022106930,8884.74427571334
1712022106969,330.34999603871256
1712022107009,-3447.5517138456926
1712022107050,-4218.498689492699
1712022107090,-5402.538679020945
1712022107131,-5377.919969077688
1712022107170,-5848.094112653751
1712022107210,-5795.763685367536
1712022107250,-5919.055477059912
1712022107291,-4318.044891500846
1712022107331,-3045.2488879412413
1712022107371,-1119.6933127767406
1712022107411,1866.5860071317293
1712022107451,4209.32932216581
1712022107491,6501.325852044858
1712022107532,8439.039152048528
1712022107571,10287.130613298621
1712022107612,12368.64350582892
1712022107652,14171.342190898955
1712022107692,16109.687928783707
1712022107733,18456.599896127824
1712022107772,20278.581620979123
1712022107812,17847.182875773404
1712022107853,9054.587909621187
1712022107893,3003.6167620955966
1712022107933,1147.7671979884617
1712022107973,84.34504367690533
1712022108013,-770.0518615129404
1712022108053,-794.9224983993918
1712022108093,-1643.6129882084206
1712022108134,-1889.482705341652
1712022108174,-1522.698283966165
1712022108214,152.4178313491866
1712022108254,1319.5402511479333
1712022108294,3234.3619294334203
1712022108335,4853.078246096615
1712022108374,6615.325202845037
1712022108414,8624.639402620494
1712022108455,10225.041704703588
1712022108495,11868.298300418537
1712022108536,14072.671992349904
1712022108575,16140.87957769353
1712022108615,19636.55415879516
1712022108655,10839.283324251417
1712022108695,2391.3742240332067
1712022108736,-1153.3336544204503
1712022108776,-2346.120420466177
1712022108816,-2380.385094201658
1712022108856,-2469.7837384184822
1712022108896,-2866.1164798997343
1712022108936,-3426.172385001555
1712022108976,-3203.8340685078874
1712022109016,-2322.8530626739375
1712022109056,-145.00543363578618
1712022109096,922.9543722015806
1712022109137,2545.7957204580307
1712022109177,4113.311935466714
1712022109217,5092.859987181611
1712022109257,6781.954549440183
1712022109297,8323.518269034103
1712022109338,9542.093506702222
1712022109377,11476.570863746107
1712022109417,6827.709131700918
1712022109457,-2257.9569219420664
1712022109497,-8254.13108599279
1712022109538,-10223.215297379531
1712022109578,-11657.44451652281
1712022109618,-12232.550945756491
1712022109658,-12492.686093811877
1712022109698,-13706.851655603386
1712022109739,-14047.553850027733
1712022109778,-13333.45909543382
1712022109818,-12447.448236185126
1712022109858,-10985.144979515113
1712022109898,-8787.943036797456
1712022109939,-6129.397459196858
1712022109978,-4257.033951855265
1712022110019,-2157.4853621339425
1712022110059,445.96697949804366
1712022110099,2203.8357521062717
1712022110139,4070.095690615475
1712022110179,6554.637140905485
1712022110219,6023.103099392261
1712022110259,-3500.9336409834214
1712022110299,-13549.107230784371
1712022110340,-18849.122576686554
1712022110380,-20826.621269671246
1712022110420,-23724.01736971177
1712022110460,-24955.13610775955
1712022110500,-25327.401033305097
1712022110541,-25986.941304014996
1712022110580,-24932.42953699641
1712022110620,-23076.11817923095
1712022110660,-21484.414616434835
1712022110701,-18776.28939928487
1712022110742,-16332.671804903075
1712022110782,-13702.305504751392
1712022110822,-10843.406943208538
1712022110862,-7695.644025302026
1712022110902,-4902.828495561611
1712022110943,-2225.408369971905
1712022110982,397.1590463030152
1712022111022,3152.4636654462665
1712022111062,5693.533509428613
1712022111102,8496.422516348772
1712022111143,2125.739983415231
1712022111183,-8705.747634925414
1712022111223,-15475.449304240756
1712022111263,-17018.359522022307
1712022111303,-18699.190976222977
1712022111344,-20068.335060399957
1712022111383,-20207.39065834554
1712022111423,-19947.88452945184
1712022111464,-20038.0182154458
1712022111504,-17882.220248213038
1712022111544,-15166.404714709148
1712022111584,-12852.768020731397
1712022111624,-9582.138935575262
1712022111664,-7494.803829839919
1712022111704,-4146.381253252737
1712022111745,-1670.2550423983485
1712022111784,1418.7189742401242
1712022111825,4636.9078754661605
1712022111865,7773.435169056989
1712022111905,10222.138928527478
1712022111946,13099.70413845405
1712022111985,15200.751263543963
1712022112025,17793.369830298703
1712022112065,16914.245272955857
1712022112106,6168.614322861191
1712022112146,-2947.4082659096457
1712022112186,-6296.188968015835
1712022112226,-7293.00703445822
1712022112266,-8428.275020260364
1712022112306,-8385.672383860685
1712022112347,-8858.860521002673
1712022112386,-8473.956046431325
1712022112427,-6920.755623947829
1712022112467,-5496.509007846005
1712022112507,-2600.0115886423737
1712022112548,-416.2221561316401
1712022112587,1741.177263670601
1712022112627,4420.782795873471
1712022112667,6976.848121356685
1712022112708,9835.642288255971
1712022112748,12669.326403468382
1712022112788,15661.439347792417
1712022112828,17604.26884605689
1712022112868,20248.530973498244
1712022112908,21756.197046083864
1712022112949,24241.55198424682
1712022112988,24015.63701339718
1712022113028,14712.896480944473
1712022113069,5534.047216431238
1712022113109,1963.9828014238738
1712022113150,1116.9539756155573
1712022113189,992.5265914993361
1712022113229,1211.6913940040395
1712022113269,937.4024362191558
1712022113310,510.42444241512567
1712022113350,1318.0441204654053
1712022113390,2171.3175450419076
1712022113430,3775.0688130818307
1712022113470,5674.062313441187
1712022113510,7755.649603455327
1712022113551,10061.357113115024
1712022113591,12142.960909329355
1712022113631,14224.403377670795
1712022113671,16021.771635365672
1712022113711,17953.140372086316
1712022113752,19338.93088482134
1712022113791,21170.807108729146
1712022113831,21562.16331811808
1712022113871,13761.34512885753
1712022113912,4319.545156471431
1712022113953,993.1717684688047
1712022113992,-684.2237402582541
1712022114032,-1176.4015164887533
1712022114072,-1171.1410219813697
1712022114112,-1099.2017942639068
1712022114154,-1903.6283324500546
1712022114193,-1699.2171717085876
1712022114233,-287.85695599997416
1712022114273,1278.3147767242044
1712022114313,3274.287174907513
1712022114354,5711.373292705044
1712022114394,7281.430092475377
1712022114434,9178.665819064714
1712022114474,10876.80602867622
1712022114514,12632.5626968313
1712022114555,14182.454132554121
1712022114594,15641.153493130114
1712022114634,16340.238371077925
1712022114674,8859.366013563238
1712022114714,-834.4471213947982
1712022114755,-5514.361125891097
1712022114795,-7567.213422136381
1712022114835,-9217.782842709683
1712022114875,-10447.643134178128
1712022114915,-10662.59803366568
1712022114956,-10904.882564353291
1712022114995,-11544.775456710253
1712022115035,-10474.644631617703
1712022115075,-9280.73557833489
1712022115116,-7339.049798087217
1712022115156,-5147.394968464971
1712022115196,-2388.0602658586577
1712022115236,-469.276106887497
1712022115276,2006.583815860562
1712022115316,4759.416418437846
1712022115357,6753.764062618371
1712022115396,8429.167579421774
1712022115436,10496.882583084982
1712022115476,12938.531930218916
1712022115516,12879.983396445867
1712022115557,4080.4407431269065
1712022115597,-5846.798335030675
1712022115637,-10400.987233017571
1712022115677,-11990.775582457427
1712022115717,-13229.506676896941
1712022115758,-14262.948968019336
1712022115797,-14641.693258829415
1712022115837,-14892.876711355522
1712022115877,-14536.98134234827
1712022115917,-13048.514311371371
1712022115958,-11013.6064779507
1712022115998,-9063.448989330791
1712022116038,-6564.732380399946
1712022116078,-4024.791594372131
1712022116118,-1752.1424150625244
1712022116159,894.5168945300393
1712022116198,3494.7426493284293
1712022116238,5850.133859982714
1712022116278,8405.70207769936
1712022116319,10494.145533611532
1712022116359,12923.522893522866
1712022116399,15385.84549941076
1712022116439,13011.37242429331
1712022116479,1912.775212210603
1712022116519,-6338.051782730501
1712022116560,-9000.32451539766
1712022116599,-9961.202369091101
1712022116639,-10767.541153641418
1712022116680,-11085.340730712749
1712022116720,-11978.730552317575
1712022116761,-12626.293058565818
1712022116800,-11177.309432769194
1712022116840,-9554.396026145667
1712022116880,-7816.049703926314
1712022116920,-5200.76140363235
1712022116961,-3189.6715969466604
1712022117001,-1131.2942780237645
1712022117041,1116.502627142705
1712022117081,3062.0377591485158
1712022117121,5509.929827061482
1712022117162,8062.223660815507
1712022117201,10625.720327288844
1712022117241,13285.007141166832
1712022117282,16310.047441520728
1712022117322,17973.374048292637
1712022117362,17972.165944849607
1712022117402,8893.734303867444
1712022117442,-446.55869334423915
1712022117482,-3989.2806134354323
1712022117522,-5523.693753500469
1712022117563,-5612.387741299346
1712022117602,-5764.8378150132485
1712022117643,-6047.712462948635
1712022117683,-6327.547353819013
1712022117723,-6315.879912076518
1712022117764,-4718.516044464428
1712022117803,-2541.6324818464927
1712022117843,-520.2920473888516
1712022117883,1984.278260378167
1712022117923,4033.971785786096
1712022117964,6440.165444646962
1712022118004,8870.097839618102
1712022118044,11522.597654883284
1712022118084,13445.588568622712
1712022118124,15978.702903787605
1712022118165,18490.00061724754
1712022118204,20502.12513732724
1712022118244,21281.003399560228
1712022118284,13509.37921343837
1712022118325,4631.654667750932
1712022118365,678.9864000300877
1712022118405,-53.06280311336741
1712022118445,-369.27065413538367
1712022118485,448.4149078205228
1712022118525,-664.1145531935617
1712022118566,-1682.9696624139324
1712022118605,-1512.8371087443084
1712022118645,-298.173213689588
1712022118685,948.5719194943085
1712022118726,3231.2460669064894
1712022118766,4975.055460277945
1712022118806,7017.5705578965135
1712022118846,8464.989179158583
1712022118886,10501.656809610315
1712022118926,12733.150657653809
1712022118967,14061.06347282324
1712022119006,16276.444775357842
1712022119047,17120.865414672997
1712022119087,9939.389202433638
1712022119127,486.65184415783733
1712022119168,-4786.838953454047
1712022119207,-5509.217099090107
1712022119247,-6112.168469198979
1712022119287,-6820.742612726055
1712022119328,-7102.817572043277
1712022119368,-8122.536282654852
1712022119408,-8833.630995900836
1712022119448,-8333.823657159694
1712022119488,-6378.245204789564
1712022119528,-4207.073594703339
1712022119569,-2649.1888979012147
1712022119608,-280.8284881627187
1712022119648,1885.6413310701028
1712022119689,4187.419629432261
1712022119729,7057.837854288984
1712022119769,8674.821736125741
1712022119809,10530.714492562227
1712022119849,12294.515157380607
1712022119889,8730.50679095788
1712022119929,-2557.021673691459
1712022119970,-10864.58207765501
1712022120010,-14700.30656270776
1712022120050,-16744.237018282525
1712022120090,-18440.967790011317
1712022120130,-19015.641521277837
1712022120171,-18836.94305851683
1712022120210,-19749.805477032438
1712022120250,-19192.31282627443
1712022120291,-17607.37953839684
1712022120331,-15219.279710367788
1712022120371,-12598.664290845394
1712022120411,-9683.43931368459
1712022120451,-7334.851397182792
1712022120491,-4977.018173110206
1712022120532,-2574.472295265645
1712022120572,42.76332008186728
1712022120612,2422.555695617106
1712022120652,8069.068593461998
1712022120692,10459.799063511193
1712022120732,3812.1434501735494
1712022120773,-8806.725623652339
1712022120812,-16025.687860589009
1712022120852,-18596.558434006758
1712022120892,-20850.60362531524
1712022120932,-21932.97430078406
1712022120973,-22514.163294533268
1712022121013,-23742.219808633905
1712022121053,-23401.752900338266
1712022121093,-22109.386312940158
1712022121133,-19735.398956091143
1712022121174,-17901.287743940484
1712022121213,-15520.15276650386
1712022121253,-12187.727050766349
1712022121293,-9292.348456326872
1712022121333,-6590.367008549627
1712022121374,-3450.709054574836
1712022121414,-819.7169293118641
1712022121454,973.2730166409165
1712022121494,3774.9324212092906
1712022121534,6034.414897904731
1712022121575,8610.467348670587
1712022121614,7144.942994205281
1712022121654,-4849.011940113734
1712022121694,-15799.739406489767
1712022121735,-19985.77209132351
1712022121775,-21841.318167007063
1712022121815,-22680.99712516088
1712022121855,-22813.811023567338
1712022121895,-23255.591830163263
1712022121935,-23788.25735999318
1712022121976,-23297.628214069176
1712022122015,-20626.572556538507
1712022122055,-17800.819199943915
1712022122095,-14913.722763575613
1712022122135,-12340.632492867298
1712022122176,-9114.519875294529
1712022122216,-6675.197503485717
1712022122256,-3448.1175877796486
1712022122296,31.090909795369953
1712022122336,2696.629087947309
1712022122377,5889.90185520146
1712022122416,8736.201277614571
1712022122456,11496.629903880414
1712022122496,8650.402440472506
1712022122537,-2901.6643568817526
1712022122577,-12434.08791559562
1712022122617,-15229.513717142865
1712022122657,-16262.491069684736
1712022122697,-15962.05412948085
1712022122734,-14695.028855142184
1712022122775,-15112.831791965757
1712022122814,-15019.20617790334
1712022122854,-13614.257342407014
1712022122894,-10744.28986075474
1712022122935,-8119.043941812124
1712022122975,-4814.47041273769
1712022123015,-1791.5254009114578
1712022123055,1047.1626981720328
1712022123095,3309.7899856287986
1712022123135,5963.16843436379
1712022123176,8235.949147854932
1712022123215,11318.45383305382
1712022123255,13113.170417100191
1712022123296,5401.998097586911
1712022123336,-6813.193632687442
1712022123376,-12812.213584247977
1712022123416,-14080.405036579818
1712022123456,-14373.977109387983
1712022123496,-13744.489383863285
1712022123536,-13648.442011101171
1712022123577,-13848.19679926429
1712022123616,-13125.817318807356
1712022123657,-11760.460448537488
1712022123697,-9436.640540220775
1712022123737,-6228.991785638966
1712022123778,-2548.5858483668417
1712022123817,-140.58215056406334
1712022123857,2856.815358859487
1712022123897,5354.789151890203
1712022123938,8513.753105135635
1712022123978,11019.581801163964
1712022124018,13950.020822610706
1712022124058,9652.789031942375
1712022124098,-2863.101074962411
1712022124138,-12539.549954046961
1712022124179,-15845.577967460267
1712022124218,-17219.730107556097
1712022124259,-18787.96564245969
1712022124299,-18607.828121976927
1712022124339,-18177.913112389855
1712022124380,-17158.313428640366
1712022124419,-15830.683216860518
1712022124459,-13048.83255241625
1712022124499,-10442.610582125839
1712022124539,-7270.025633028243
1712022124580,-4386.855112602934
1712022124620,-969.1108861644752
1712022124660,2280.786295114085
1712022124700,4649.330441228114
1712022124740,8005.7478398284875
1712022124781,11468.404039853252
1712022124820,14459.564169762656
1712022124861,16698.65181626333
1712022124900,10187.136703108437
1712022124941,-1884.172702296637
1712022124982,-8408.373940050602
1712022125021,-10571.587937561795
1712022125061,-12174.540348320734
1712022125101,-12798.980910951272
1712022125141,-12412.49629545305
1712022125182,-11879.066546312999
1712022125222,-10962.969862279482
1712022125262,-8969.786928353831
1712022125302,-6515.334340631962
1712022125342,-2540.6150393700227
