dataReceived,timestamp,ppg,status
1712021990330,1712021978258,2097152,0
1712021990330,1712021978296,2097152,0
1712021990330,1712021978336,2269085,0
1712021990330,1712021978376,2269252,0
1712021990330,1712021978416,2269509,0
1712021990330,1712021978456,2269940,0
1712021990330,1712021978497,2270448,0
1712021990330,1712021978536,2270994,0
1712021990330,1712021978576,2270895,0
1712021990330,1712021978616,2270135,0
1712021990330,1712021978657,2269702,0
1712021990330,1712021978698,2177533,0
1712021990330,1712021978737,2177972,0
1712021990330,1712021978777,2178874,0
1712021990330,1712021978817,2179775,0
1712021990330,1712021978857,2180310,0
1712021990330,1712021978899,2180184,0
1712021990330,1712021978938,2104881,0
1712021990330,1712021978978,2106277,0
1712021990330,1712021979018,2108251,0
1712021990330,1712021979058,2110940,0
1712021990330,1712021979099,2113715,0
1712021990330,1712021979138,2145924,0
1712021990330,1712021979178,2152924,0
1712021990330,1712021979218,2158185,0
1712021990330,1712021979258,2162514,0
1712021990330,1712021979300,2168944,0
1712021990330,1712021979339,2101462,0
1712021990330,1712021979379,2098879,0
1712021990330,1712021979419,2093675,0
1712021990330,1712021979459,2089913,0
1712021990330,1712021979500,2088311,0
1712021990330,1712021979539,2086957,0
1712021990330,1712021979579,2088020,0
1712021990330,1712021979619,2089392,0
1712021990330,1712021979659,2088543,0
1712021990330,1712021979700,2088598,0
1712021990330,1712021979739,2089581,0
1712021990330,1712021979780,2094232,0
1712021990330,1712021979820,2106025,0
1712021990330,1712021979860,2113004,0
1712021990330,1712021979901,2115623,0
1712021990330,1712021979940,2116198,0
1712021990330,1712021979980,2117980,0
1712021990330,1712021980020,2119975,0
1712021990330,1712021980060,2121324,0
1712021990330,1712021980101,2121463,0
1712021990330,1712021980141,2123407,0
1712021990330,1712021980181,2128657,0
1712021990330,1712021980221,2130197,0
1712021990330,1712021980261,2124325,0
1712021990330,1712021980302,2116061,0
1712021990330,1712021980341,2111234,0
1712021990330,1712021980381,2108913,0
1712021990330,1712021980421,2107226,0
1712021990330,1712021980464,2107329,0
1712021990330,1712021980503,2106707,0
1712021990330,1712021980542,2106667,0
1712021990330,1712021980582,2108815,0
1712021990330,1712021980622,2109177,0
1712021990330,1712021980662,2106356,0
1712021990330,1712021980703,2104080,0
1712021990330,1712021980742,2106657,0
1712021990330,1712021980782,2110569,0
1712021990330,1712021980822,2114284,0
1712021990330,1712021980863,2117322,0
1712021990330,1712021980904,2121810,0
1712021990330,1712021980943,2126502,0
1712021990330,1712021980983,2126863,0
1712021990330,1712021981023,2124418,0
1712021990330,1712021981063,2123862,0
1712021990330,1712021981104,2120634,0
1712021990330,1712021981143,2108029,0
1712021990330,1712021981183,2093542,0
1712021990330,1712021981224,2083331,0
1712021990330,1712021981264,2075804,0
1712021990330,1712021981305,2069384,0
1712021990330,1712021981344,2064064,0
1712021990330,1712021981384,2057512,0
1712021990330,1712021981424,2048665,0
1712021990330,1712021981464,2038701,0
1712021990330,1712021981505,2034406,0
1712021990330,1712021981544,2033345,0
1712021990330,1712021981585,2023613,0
1712021990330,1712021981625,2013241,0
1712021990330,1712021981665,2006531,0
1712021990330,1712021981706,2000837,0
1712021990330,1712021981745,1997915,0
1712021990330,1712021981785,1998514,0
1712021990330,1712021981825,2000987,0
1712021990330,1712021981865,2004932,0
1712021990330,1712021981906,2010859,0
1712021990330,1712021981946,2021092,0
1712021990330,1712021981986,2030723,0
1712021990330,1712021982026,2045629,0
1712021990330,1712021982066,2056469,0
1712021990330,1712021982107,2069814,0
1712021990330,1712021982146,2085343,0
1712021990330,1712021982187,2102152,0
1712021990330,1712021982227,2125774,0
1712021990330,1712021982267,2149056,0
1712021990330,1712021982308,2166603,0
1712021990330,1712021982347,2184549,0
1712021990330,1712021982387,2204634,0
1712021990330,1712021982427,2222155,0
1712021990330,1712021982468,2237628,0
1712021990330,1712021982509,2252343,0
1712021990330,1712021982548,2265294,0
1712021990330,1712021982588,2276251,0
1712021990330,1712021982628,2284938,0
1712021990330,1712021982671,2292011,0
1712021990330,1712021982709,2296753,0
1712021990330,1712021982749,2297779,0
1712021990330,1712021982789,2299254,0
1712021990330,1712021982829,2301310,0
1712021990330,1712021982869,2303104,0
1712021990330,1712021982910,2304855,0
1712021990330,1712021982949,2306374,0
1712021990330,1712021982989,2308554,0
1712021990330,1712021983029,2310441,0
1712021990330,1712021983069,2312831,0
1712021990330,1712021983110,2314505,0
1712021990330,1712021983150,2316829,0
1712021990330,1712021983190,2320469,0
1712021990330,1712021983230,2322383,0
1712021990330,1712021983270,2322858,0
1712021990330,1712021983311,2324258,0
1712021990330,1712021983350,2325671,0
1712021990330,1712021983391,2328467,0
1712021990330,1712021983431,2330127,0
1712021990330,1712021983471,2328527,0
1712021990330,1712021983512,2319881,0
1712021990330,1712021983551,2311999,0
1712021990330,1712021983591,2307943,0
1712021990330,1712021983632,2306896,0
1712021990330,1712021983672,2306272,0
1712021990330,1712021983712,2305393,0
1712021990330,1712021983752,2305642,0
1712021990330,1712021983792,2309939,0
1712021990330,1712021983832,2313363,0
1712021990330,1712021983872,2315624,0
1712021990330,1712021983913,2318850,0
1712021990330,1712021983952,2321586,0
1712021990330,1712021983993,2323895,0
1712021990330,1712021984033,2325691,0
1712021990330,1712021984073,2328015,0
1712021990330,1712021984114,2333151,0
1712021990330,1712021984153,2338550,0
1712021990330,1712021984193,2342208,0
1712021990330,1712021984233,2341177,0
1712021990330,1712021984274,2337625,0
1712021990330,1712021984314,2336724,0
1712021990330,1712021984354,2337082,0
1712021990330,1712021984394,2337184,0
1712021990330,1712021984434,2336118,0
1712021990330,1712021984474,2332860,0
1712021990330,1712021984515,2327926,0
1712021990330,1712021984554,2322901,0
1712021990330,1712021984595,2320510,0
1712021990330,1712021984635,2318747,0
1712021990330,1712021984675,2316769,0
1712021990330,1712021984716,2313354,0
1712021990330,1712021984755,2309046,0
1712021990330,1712021984795,2304659,0
1712021990330,1712021984836,2297997,0
1712021990330,1712021984876,2289750,0
1712021990330,1712021984916,2276911,0
1712021990330,1712021984956,2256994,0
1712021990330,1712021984996,2239604,0
1712021990330,1712021985036,2228338,0
1712021990330,1712021985076,2220207,0
1712021990330,1712021985117,2214764,0
1712021990330,1712021985156,2210081,0
1712021990330,1712021985197,2204875,0
1712021990330,1712021985237,2200292,0
1712021990330,1712021985277,2197132,0
1712021990330,1712021985318,2196143,0
1712021990330,1712021985357,2203531,0
1712021990330,1712021985397,2206993,0
1712021990330,1712021985437,2208324,0
1712021990330,1712021985477,2210982,0
1712021990330,1712021985518,2214189,0
1712021990330,1712021985557,2216878,0
1712021990330,1712021985597,2212407,0
1712021990330,1712021985637,2197693,0
1712021990330,1712021985678,2189972,0
1712021990330,1712021985718,2187361,0
1712021990330,1712021985758,2186048,0
1712021990330,1712021985798,2182675,0
1712021990330,1712021985838,2179772,0
1712021990330,1712021985878,2179662,0
1712021990330,1712021985919,2179599,0
1712021990330,1712021985958,2180301,0
1712021990330,1712021985998,2179697,0
1712021990330,1712021986039,2181809,0
1712021990330,1712021986079,2185737,0
1712021990330,1712021986119,2190344,0
1712021990330,1712021986159,2194318,0
1712021990330,1712021986199,2198005,0
1712021990330,1712021986239,2200929,0
1712021990330,1712021986279,2202765,0
1712021990330,1712021986320,2192587,0
1712021990330,1712021986359,2172278,0
1712021990330,1712021986400,2155507,0
1712021990330,1712021986440,2145284,0
1712021990330,1712021986480,2138227,0
1712021990330,1712021986521,2134347,0
1712021990330,1712021986560,2132057,0
1712021990330,1712021986600,2129998,0
1712021990330,1712021986640,2128423,0
1712021990330,1712021986680,2127960,0
1712021990330,1712021986721,2127901,0
1712021990330,1712021986761,2128213,0
1712021990330,1712021986800,2128933,0
1712021990330,1712021986840,2128903,0
1712021990330,1712021986881,2130267,0
1712021990330,1712021986921,2135144,0
1712021990330,1712021986961,2140293,0
1712021990330,1712021987001,2145052,0
1712021990330,1712021987041,2147301,0
1712021990330,1712021987081,2138317,0
1712021990330,1712021987122,2124015,0
1712021990330,1712021987161,2112314,0
1712021990330,1712021987201,2104960,0
1712021990330,1712021987242,2100262,0
1712021990330,1712021987282,2097571,0
1712021990330,1712021987322,2092993,0
1712021990330,1712021987362,2085391,0
1712021990330,1712021987402,2078040,0
1712021990330,1712021987442,2074180,0
1712021990330,1712021987482,2073899,0
1712021990330,1712021987523,2074291,0
1712021990330,1712021987562,2073980,0
1712021990330,1712021987603,2073281,0
1712021990330,1712021987643,2072555,0
1712021990330,1712021987683,2071511,0
1712021990330,1712021987724,2068840,0
1712021990330,1712021987763,2065583,0
1712021990330,1712021987803,2067242,0
1712021990330,1712021987843,2068389,0
1712021990330,1712021987883,2059171,0
1712021990330,1712021987924,2051193,0
1712021990330,1712021987964,2047950,0
1712021990330,1712021988004,2046556,0
1712021990330,1712021988044,2046280,0
1712021990330,1712021988084,2045859,0
1712021990330,1712021988125,2043923,0
1712021990330,1712021988164,2042203,0
1712021990330,1712021988204,2042439,0
1712021990330,1712021988244,2045558,0
1712021990330,1712021988285,2050361,0
1712021990330,1712021988326,2056661,0
1712021990330,1712021988365,2063575,0
1712021990330,1712021988405,2071551,0
1712021990330,1712021988445,2079611,0
1712021990330,1712021988485,2087498,0
1712021990330,1712021988526,2096535,0
1712021990330,1712021988566,2107975,0
1712021990330,1712021988606,2111836,0
1712021990330,1712021988646,2114679,0
1712021990330,1712021988686,2123921,0
1712021990330,1712021988727,2137534,0
1712021990330,1712021988766,2153500,0
1712021990330,1712021988806,2164315,0
1712021990330,1712021988847,2173852,0
1712021990330,1712021988887,2179746,0
1712021990330,1712021988928,2184256,0
1712021990330,1712021988967,2189377,0
1712021990330,1712021989007,2193962,0
1712021990330,1712021989047,2198608,0
1712021990330,1712021989087,2203741,0
1712021990330,1712021989128,2208331,0
1712021990330,1712021989168,2213548,0
1712021990330,1712021989208,2219394,0
1712021990330,1712021989248,2225753,0
1712021990330,1712021989288,2231367,0
1712021990330,1712021989329,2232895,0
1712021990330,1712021989368,2225617,0
1712021990330,1712021989408,2220231,0
1712021990330,1712021989448,2221464,0
1712021990330,1712021989489,2224564,0
1712021990330,1712021989530,2227889,0
1712021990330,1712021989569,2230639,0
1712021990330,1712021989609,2234034,0
1712021990330,1712021989649,2237458,0
1712021990330,1712021989689,2239777,0
1712021990330,1712021989730,2242782,0
1712021990330,1712021989770,2244283,0
1712021990330,1712021989810,2245260,0
1712021990330,1712021989850,2248609,0
1712021990330,1712021989890,2256027,0
1712021990330,1712021989931,2261285,0
1712021990330,1712021989970,2266747,0
1712021990330,1712021990010,2274414,0
1712021990330,1712021990050,2279132,0
1712021990330,1712021990091,2277495,0
1712021990330,1712021990132,2273329,0
1712021990330,1712021990171,2277632,0
1712021990330,1712021990211,2285280,0
1712021990330,1712021990251,2292971,0
1712022002374,1712021990291,2297300,0
1712022002374,1712021990332,2301081,0
1712022002374,1712021990372,2304750,0
1712022002374,1712021990412,2308271,0
1712022002374,1712021990452,2312614,0
1712022002374,1712021990492,2317556,0
1712022002374,1712021990533,2322750,0
1712022002374,1712021990572,2327634,0
1712022002374,1712021990613,2332808,0
1712022002374,1712021990653,2338257,0
1712022002374,1712021990693,2344054,0
1712022002374,1712021990734,2349305,0
1712022002374,1712021990773,2352518,0
1712022002374,1712021990813,2351068,0
1712022002374,1712021990853,2344517,0
1712022002374,1712021990893,2343887,0
1712022002374,1712021990934,2347452,0
1712022002374,1712021990974,2351708,0
1712022002374,1712021991014,2355199,0
1712022002374,1712021991054,2357492,0
1712022002374,1712021991094,2358887,0
1712022002374,1712021991135,2362468,0
1712022002374,1712021991175,2368209,0
1712022002374,1712021991215,2374007,0
1712022002374,1712021991255,2378306,0
1712022002374,1712021991295,2381494,0
1712022002374,1712021991336,2384824,0
1712022002374,1712021991375,2388276,0
1712022002374,1712021991415,2391377,0
1712022002374,1712021991455,2393566,0
1712022002374,1712021991495,2389350,0
1712022002374,1712021991536,2379876,0
1712022002374,1712021991576,2376931,0
1712022002374,1712021991616,2377587,0
1712022002374,1712021991656,2379621,0
1712022002374,1712021991696,2381754,0
1712022002374,1712021991737,2382765,0
1712022002374,1712021991776,2382714,0
1712022002374,1712021991816,2383666,0
1712022002374,1712021991856,2386642,0
1712022002374,1712021991896,2386248,0
1712022002374,1712021991937,2384558,0
1712022002374,1712021991977,2382511,0
1712022002374,1712021992017,2380301,0
1712022002374,1712021992057,2379268,0
1712022002374,1712021992097,2379397,0
1712022002374,1712021992138,2378531,0
1712022002374,1712021992177,2375771,0
1712022002374,1712021992217,2367965,0
1712022002374,1712021992257,2354057,0
1712022002374,1712021992298,2341148,0
1712022002374,1712021992338,2334808,0
1712022002374,1712021992378,2332210,0
1712022002374,1712021992418,2331037,0
1712022002374,1712021992458,2329662,0
1712022002374,1712021992498,2327674,0
1712022002374,1712021992539,2326794,0
1712022002374,1712021992578,2325884,0
1712022002374,1712021992618,2324853,0
1712022002374,1712021992659,2325794,0
1712022002374,1712021992699,2328578,0
1712022002374,1712021992739,2331836,0
1712022002374,1712021992779,2334238,0
1712022002374,1712021992819,2335178,0
1712022002374,1712021992859,2336623,0
1712022002374,1712021992899,2337357,0
1712022002374,1712021992940,2329825,0
1712022002374,1712021992979,2316011,0
1712022002374,1712021993019,2306978,0
1712022002374,1712021993059,2302018,0
1712022002374,1712021993100,2299671,0
1712022002374,1712021993140,2298038,0
1712022002374,1712021993180,2296021,0
1712022002374,1712021993220,2295082,0
1712022002374,1712021993260,2296232,0
1712022002374,1712021993300,2298691,0
1712022002374,1712021993341,2302764,0
1712022002374,1712021993380,2307186,0
1712022002374,1712021993420,2310173,0
1712022002374,1712021993461,2313630,0
1712022002374,1712021993501,2316573,0
1712022002374,1712021993541,2318254,0
1712022002374,1712021993581,2319717,0
1712022002374,1712021993621,2321741,0
1712022002374,1712021993661,2319142,0
1712022002374,1712021993701,2307023,0
1712022002374,1712021993742,2298059,0
1712022002374,1712021993782,2295243,0
1712022002374,1712021993822,2296589,0
1712022002374,1712021993862,2299962,0
1712022002374,1712021993902,2301936,0
1712022002374,1712021993943,2302209,0
1712022002374,1712021993982,2301104,0
1712022002374,1712021994022,2299374,0
1712022002374,1712021994062,2301737,0
1712022002374,1712021994103,2307379,0
1712022002374,1712021994143,2313955,0
1712022002374,1712021994183,2323174,0
1712022002374,1712021994223,2330133,0
1712022002374,1712021994263,2329849,0
1712022002374,1712021994303,2329580,0
1712022002374,1712021994344,2330088,0
1712022002374,1712021994383,2323923,0
1712022002374,1712021994424,2309458,0
1712022002374,1712021994464,2298935,0
1712022002374,1712021994504,2294456,0
1712022002374,1712021994545,2292101,0
1712022002374,1712021994584,2290259,0
1712022002374,1712021994624,2287353,0
1712022002374,1712021994664,2282791,0
1712022002374,1712021994705,2277896,0
1712022002374,1712021994745,2274658,0
1712022002374,1712021994785,2270071,0
1712022002374,1712021994825,2264620,0
1712022002374,1712021994865,2258317,0
1712022002374,1712021994905,2251150,0
1712022002374,1712021994946,2245744,0
1712022002374,1712021994985,2240927,0
1712022002374,1712021995025,2237405,0
1712022002374,1712021995066,2236516,0
1712022002374,1712021995106,2228336,0
1712022002374,1712021995146,2211453,0
1712022002374,1712021995186,2194269,0
1712022002374,1712021995226,2181944,0
1712022002374,1712021995266,2174226,0
1712022002374,1712021995307,2171028,0
1712022002374,1712021995347,2168776,0
1712022002374,1712021995387,2166714,0
1712022002374,1712021995427,2163469,0
1712022002374,1712021995467,2161198,0
1712022002374,1712021995507,2158711,0
1712022002374,1712021995548,2154020,0
1712022002374,1712021995587,2147871,0
1712022002374,1712021995627,2141015,0
1712022002374,1712021995668,2138586,0
1712022002374,1712021995708,2147027,0
1712022002374,1712021995748,2158128,0
1712022002374,1712021995788,2166429,0
1712022002374,1712021995828,2169585,0
1712022002374,1712021995868,2162769,0
1712022002374,1712021995909,2156685,0
1712022002374,1712021995949,2155278,0
1712022002374,1712021995989,2154936,0
1712022002374,1712021996029,2152800,0
1712022002374,1712021996069,2148983,0
1712022002374,1712021996109,2144950,0
1712022002374,1712021996150,2146805,0
1712022002374,1712021996189,2149099,0
1712022002374,1712021996229,2152663,0
1712022002374,1712021996270,2158709,0
1712022002374,1712021996310,2166412,0
1712022002374,1712021996351,2174468,0
1712022002374,1712021996390,2181251,0
1712022002374,1712021996430,2188932,0
1712022002374,1712021996470,2196961,0
1712022002374,1712021996511,2205738,0
1712022002374,1712021996551,2213779,0
1712022002374,1712021996591,2216241,0
1712022002374,1712021996631,2213575,0
1712022002374,1712021996671,2215123,0
1712022002374,1712021996712,2219341,0
1712022002374,1712021996753,2225263,0
1712022002374,1712021996792,2231760,0
1712022002374,1712021996832,2237206,0
1712022002374,1712021996872,2243130,0
1712022002374,1712021996912,2249364,0
1712022002374,1712021996953,2256154,0
1712022002374,1712021996993,2262967,0
1712022002374,1712021997033,2271103,0
1712022002374,1712021997073,2278905,0
1712022002374,1712021997113,2287023,0
1712022002374,1712021997154,2299645,0
1712022002374,1712021997193,2311516,0
1712022002374,1712021997234,2319725,0
1712022002374,1712021997274,2323880,0
1712022002374,1712021997314,2321817,0
1712022002374,1712021997355,2326352,0
1712022002374,1712021997394,2332079,0
1712022002374,1712021997434,2339016,0
1712022002374,1712021997474,2344957,0
1712022002374,1712021997514,2347673,0
1712022002374,1712021997555,2356431,0
1712022002374,1712021997595,2367750,0
1712022002374,1712021997635,2376408,0
1712022002374,1712021997675,2384373,0
1712022002374,1712021997715,2397994,0
1712022002374,1712021997756,2411230,0
1712022002374,1712021997795,2422075,0
1712022002374,1712021997835,2423123,0
1712022002374,1712021997875,2422196,0
1712022002374,1712021997915,2411792,0
1712022002374,1712021997956,2392492,0
1712022002374,1712021997996,2369076,0
1712022002374,1712021998036,2353475,0
1712022002374,1712021998076,2338840,0
1712022002374,1712021998116,2333846,0
1712022002374,1712021998157,2318326,0
1712022002374,1712021998196,2301892,0
1712022002374,1712021998236,2295706,0
1712022002374,1712021998276,2289302,0
1712022002374,1712021998317,2290330,0
1712022002374,1712021998357,2301861,0
1712022002374,1712021998397,2311449,0
1712022002374,1712021998437,2325300,0
1712022002374,1712021998477,2334432,0
1712022002374,1712021998517,2335271,0
1712022002374,1712021998558,2353727,0
1712022002374,1712021998597,2374700,0
1712022002374,1712021998637,2379978,0
1712022002374,1712021998678,2381397,0
1712022002374,1712021998718,2381700,0
1712022002374,1712021998758,2383982,0
1712022002374,1712021998798,2385792,0
1712022002374,1712021998838,2390823,0
1712022002374,1712021998878,2401763,0
1712022002374,1712021998918,2413359,0
1712022002374,1712021998959,2423451,0
1712022002374,1712021998998,2432256,0
1712022002374,1712021999039,2443841,0
1712022002374,1712021999079,2456267,0
1712022002374,1712021999119,2470141,0
1712022002374,1712021999160,2483384,0
1712022002374,1712021999199,2492628,0
1712022002374,1712021999239,2501373,0
1712022002374,1712021999279,2510290,0
1712022002374,1712021999319,2514302,0
1712022002374,1712021999360,2507102,0
1712022002374,1712021999400,2466539,0
1712022002374,1712021999440,2423828,0
1712022002374,1712021999480,2385518,0
1712022002374,1712021999520,2355718,0
1712022002374,1712021999561,2332467,0
1712022002374,1712021999600,2308728,0
1712022002374,1712021999640,2290730,0
1712022002374,1712021999680,2291048,0
1712022002374,1712021999721,2312124,0
1712022002374,1712021999762,2336948,0
1712022002374,1712021999801,2351489,0
1712022002374,1712021999841,2366947,0
1712022002374,1712021999881,2384947,0
1712022002374,1712021999921,2390714,0
1712022002374,1712021999962,2385752,0
1712022002374,1712022000002,2376439,0
1712022002374,1712022000042,2332138,0
1712022002374,1712022000082,2294100,0
1712022002374,1712022000122,2252698,0
1712022002374,1712022000163,2211356,0
1712022002374,1712022000202,2178003,0
1712022002374,1712022000242,2144754,0
1712022002374,1712022000282,2117422,0
1712022002374,1712022000323,2092160,0
1712022002374,1712022000364,2070144,0
1712022002374,1712022000403,2049399,0
1712022002374,1712022000443,2030494,0
1712022002374,1712022000483,2014808,0
1712022002374,1712022000523,2002829,0
1712022002374,1712022000564,1998531,0
1712022002374,1712022000604,2004834,0
1712022002374,1712022000644,2016826,0
1712022002374,1712022000684,2032470,0
1712022002374,1712022000724,2044988,0
1712022002374,1712022000765,2054555,0
1712022002374,1712022000804,2060070,0
1712022002374,1712022000844,2061573,0
1712022002374,1712022000885,2061042,0
1712022002374,1712022000925,2059982,0
1712022002374,1712022000966,2053601,0
1712022002374,1712022001005,2041033,0
1712022002374,1712022001045,2028754,0
1712022002374,1712022001085,2018086,0
1712022002374,1712022001125,2009993,0
1712022002374,1712022001166,2004526,0
1712022002374,1712022001206,1999884,0
1712022002374,1712022001246,1997894,0
1712022002374,1712022001286,1992473,0
1712022002374,1712022001326,1976723,0
1712022002374,1712022001367,1959583,0
1712022002374,1712022001406,1944271,0
1712022002374,1712022001447,1930933,0
1712022002374,1712022001487,1919678,0
1712022002374,1712022001527,1912256,0
1712022002374,1712022001568,1906743,0
1712022002374,1712022001607,1902023,0
1712022002374,1712022001647,1899027,0
1712022002374,1712022001688,1897708,0
1712022002374,1712022001728,1898057,0
1712022002374,1712022001769,1899325,0
1712022002374,1712022001808,1901353,0
1712022002374,1712022001848,1903959,0
1712022002374,1712022001888,1906918,0
1712022002374,1712022001928,1907231,0
1712022002374,1712022001969,1900600,0
1712022002374,1712022002009,1891842,0
1712022002374,1712022002049,1884480,0
1712022002374,1712022002089,1878183,0
1712022002374,1712022002129,1873675,0
1712022002374,1712022002170,1871860,0
1712022002374,1712022002209,1872112,0
1712022002374,1712022002249,1872440,0
1712022002374,1712022002290,1873441,0
1712022014427,1712022002327,1876004,0
1712022014427,1712022002367,1879339,0
1712022014427,1712022002407,1883222,0
1712022014427,1712022002447,1887410,0
1712022014427,1712022002487,1891960,0
1712022014427,1712022002528,1896812,0
1712022014427,1712022002568,1901746,0
1712022014427,1712022002608,1903224,0
1712022014427,1712022002648,1896398,0
1712022014427,1712022002688,1889137,0
1712022014427,1712022002728,1884924,0
1712022014427,1712022002769,1882454,0
1712022014427,1712022002809,1881392,0
1712022014427,1712022002849,1882879,0
1712022014427,1712022002889,1887924,0
1712022014427,1712022002929,1891509,0
1712022014427,1712022002970,1895838,0
1712022014427,1712022003009,1900309,0
1712022014427,1712022003049,1904959,0
1712022014427,1712022003089,1909847,0
1712022014427,1712022003130,1914891,0
1712022014427,1712022003170,1920020,0
1712022014427,1712022003210,1925198,0
1712022014427,1712022003250,1930393,0
1712022014427,1712022003290,1931961,0
1712022014427,1712022003330,1926408,0
1712022014427,1712022003371,1921803,0
1712022014427,1712022003410,1919194,0
1712022014427,1712022003450,1917253,0
1712022014427,1712022003490,1916720,0
1712022014427,1712022003530,1918306,0
1712022014427,1712022003571,1920152,0
1712022014427,1712022003611,1921690,0
1712022014427,1712022003651,1923741,0
1712022014427,1712022003691,1926683,0
1712022014427,1712022003731,1930441,0
1712022014427,1712022003772,1935264,0
1712022014427,1712022003811,1940637,0
1712022014427,1712022003851,1946340,0
1712022014427,1712022003891,1953372,0
1712022014427,1712022003931,1960123,0
1712022014427,1712022003972,1967961,0
1712022014427,1712022004012,1978953,0
1712022014427,1712022004052,1985444,0
1712022014427,1712022004092,1994457,0
1712022014427,1712022004132,1998723,0
1712022014427,1712022004173,2007559,0
1712022014427,1712022004212,2016083,0
1712022014427,1712022004252,2023602,0
1712022014427,1712022004292,2032868,0
1712022014427,1712022004333,2043112,0
1712022014427,1712022004373,2053032,0
1712022014427,1712022004413,2062222,0
1712022014427,1712022004453,2071645,0
1712022014427,1712022004493,2081644,0
1712022014427,1712022004533,2091972,0
1712022014427,1712022004574,2102175,0
1712022014427,1712022004613,2111578,0
1712022014427,1712022004653,2120881,0
1712022014427,1712022004694,2129612,0
1712022014427,1712022004734,2137729,0
1712022014427,1712022004774,2145349,0
1712022014427,1712022004814,2153234,0
1712022014427,1712022004854,2160677,0
1712022014427,1712022004894,2165860,0
1712022014427,1712022004934,2171493,0
1712022014427,1712022004975,2179847,0
1712022014427,1712022005014,2189422,0
1712022014427,1712022005055,2200631,0
1712022014427,1712022005095,2212533,0
1712022014427,1712022005135,2227445,0
1712022014427,1712022005176,2245412,0
1712022014427,1712022005215,2263595,0
1712022014427,1712022005255,2279692,0
1712022014427,1712022005295,2293636,0
1712022014427,1712022005335,2301987,0
1712022014427,1712022005376,2314032,0
1712022014427,1712022005416,2335796,0
1712022014427,1712022005456,2358549,0
1712022014427,1712022005496,2382679,0
1712022014427,1712022005537,2407918,0
1712022014427,1712022005578,2433983,0
1712022014427,1712022005617,2457436,0
1712022014427,1712022005658,2476691,0
1712022014427,1712022005700,2494534,0
1712022014427,1712022005740,2507403,0
1712022014427,1712022005781,2519013,0
1712022014427,1712022005821,2528280,0
1712022014427,1712022005861,2536040,0
1712022014427,1712022005901,2543163,0
1712022014427,1712022005942,2550059,0
1712022014427,1712022005982,2555939,0
1712022014427,1712022006022,2562166,0
1712022014427,1712022006062,2568331,0
1712022014427,1712022006102,2573998,0
1712022014427,1712022006143,2578705,0
1712022014427,1712022006184,2583142,0
1712022014427,1712022006223,2586749,0
1712022014427,1712022006264,2589743,0
1712022014427,1712022006304,2592991,0
1712022014427,1712022006344,2595858,0
1712022014427,1712022006385,2598160,0
1712022014427,1712022006424,2600264,0
1712022014427,1712022006465,2601646,0
1712022014427,1712022006505,2602676,0
1712022014427,1712022006545,2603277,0
1712022014427,1712022006586,2602278,0
1712022014427,1712022006626,2602481,0
1712022014427,1712022006666,2602272,0
1712022014427,1712022006706,2602118,0
1712022014427,1712022006747,2600996,0
1712022014427,1712022006788,2601218,0
1712022014427,1712022006827,2602306,0
1712022014427,1712022006867,2601925,0
1712022014427,1712022006908,2600895,0
1712022014427,1712022006948,2600828,0
1712022014427,1712022006989,2600433,0
1712022014427,1712022007028,2600293,0
1712022014427,1712022007069,2600921,0
1712022014427,1712022007109,2601937,0
1712022014427,1712022007149,2602846,0
1712022014427,1712022007190,2603563,0
1712022014427,1712022007229,2604682,0
1712022014427,1712022007269,2604057,0
1712022014427,1712022007309,2598182,0
1712022014427,1712022007350,2592075,0
1712022014427,1712022007391,2587169,0
1712022014427,1712022007430,2583440,0
1712022014427,1712022007470,2580267,0
1712022014427,1712022007510,2578426,0
1712022014427,1712022007550,2577280,0
1712022014427,1712022007592,2576396,0
1712022014427,1712022007631,2575831,0
1712022014427,1712022007671,2575757,0
1712022014427,1712022007711,2575969,0
1712022014427,1712022007751,2576803,0
1712022014427,1712022007792,2577821,0
1712022014427,1712022007832,2578575,0
1712022014427,1712022007872,2579662,0
1712022014427,1712022007912,2580828,0
1712022014427,1712022007952,2581846,0
1712022014427,1712022007993,2583120,0
1712022014427,1712022008033,2583565,0
1712022014427,1712022008073,2578557,0
1712022014427,1712022008113,2568241,0
1712022014427,1712022008153,2559092,0
1712022014427,1712022008194,2552985,0
1712022014427,1712022008234,2548374,0
1712022014427,1712022008274,2545383,0
1712022014427,1712022008314,2543989,0
1712022014427,1712022008354,2542835,0
1712022014427,1712022008395,2542236,0
1712022014427,1712022008435,2542455,0
1712022014427,1712022008475,2543327,0
1712022014427,1712022008515,2544427,0
1712022014427,1712022008556,2544800,0
1712022014427,1712022008596,2544755,0
1712022014427,1712022008636,2544734,0
1712022014427,1712022008677,2544708,0
1712022014427,1712022008717,2545988,0
1712022014427,1712022008757,2547606,0
1712022014427,1712022008798,2549900,0
1712022014427,1712022008838,2552392,0
1712022014427,1712022008878,2555001,0
1712022014427,1712022008918,2552399,0
1712022014427,1712022008959,2538925,0
1712022014427,1712022009000,2530259,0
1712022014427,1712022009039,2524271,0
1712022014427,1712022009079,2519658,0
1712022014427,1712022009120,2517315,0
1712022014427,1712022009160,2516203,0
1712022014427,1712022009201,2514512,0
1712022014427,1712022009240,2512720,0
1712022014427,1712022009281,2511548,0
1712022014427,1712022009321,2511334,0
1712022014427,1712022009361,2511766,0
1712022014427,1712022009402,2512796,0
1712022014427,1712022009442,2513678,0
1712022014427,1712022009482,2514130,0
1712022014427,1712022009522,2513568,0
1712022014427,1712022009562,2511563,0
1712022014427,1712022009604,2510599,0
1712022014427,1712022009643,2508811,0
1712022014427,1712022009683,2504847,0
1712022014427,1712022009724,2489805,0
1712022014427,1712022009764,2465273,0
1712022014427,1712022009805,2442276,0
1712022014427,1712022009844,2425995,0
1712022014427,1712022009885,2413653,0
1712022014427,1712022009925,2404686,0
1712022014427,1712022009965,2399806,0
1712022014427,1712022010006,2394192,0
1712022014427,1712022010045,2388093,0
1712022014427,1712022010086,2383716,0
1712022014427,1712022010126,2380720,0
1712022014427,1712022010166,2379211,0
1712022014427,1712022010207,2379294,0
1712022014427,1712022010247,2381257,0
1712022014427,1712022010287,2383070,0
1712022014427,1712022010327,2385457,0
1712022014427,1712022010368,2388256,0
1712022014427,1712022010408,2386306,0
1712022014427,1712022010448,2372458,0
1712022014427,1712022010488,2357369,0
1712022014427,1712022010528,2347325,0
1712022014427,1712022010568,2340648,0
1712022014427,1712022010609,2336722,0
1712022014427,1712022010649,2334791,0
1712022014427,1712022010689,2333474,0
1712022014427,1712022010729,2332955,0
1712022014427,1712022010769,2333633,0
1712022014427,1712022010810,2337006,0
1712022014427,1712022010850,2340844,0
1712022014427,1712022010890,2345512,0
1712022014427,1712022010930,2350288,0
1712022014427,1712022010970,2353929,0
1712022014427,1712022011011,2357438,0
1712022014427,1712022011050,2361323,0
1712022014427,1712022011091,2365379,0
1712022014427,1712022011131,2369268,0
1712022014427,1712022011171,2365120,0
1712022014427,1712022011212,2348476,0
1712022014427,1712022011251,2334555,0
1712022014427,1712022011291,2324848,0
1712022014427,1712022011332,2317307,0
1712022014427,1712022011372,2311160,0
1712022014427,1712022011413,2308193,0
1712022014427,1712022011452,2306131,0
1712022014427,1712022011492,2303594,0
1712022014427,1712022011533,2301963,0
1712022014427,1712022011573,2301875,0
1712022014427,1712022011614,2302736,0
1712022014427,1712022011653,2304333,0
1712022014427,1712022011694,2306253,0
1712022014427,1712022011734,2308368,0
1712022014427,1712022011774,2310467,0
1712022014427,1712022011815,2312843,0
1712022014427,1712022011855,2315424,0
1712022014427,1712022011895,2318273,0
1712022014427,1712022011935,2311246,0
1712022014427,1712022011975,2294095,0
1712022014427,1712022012016,2279651,0
1712022014427,1712022012057,2268969,0
1712022014427,1712022012097,2260177,0
1712022014427,1712022012137,2253340,0
1712022014427,1712022012177,2249414,0
1712022014427,1712022012218,2246641,0
1712022014427,1712022012258,2244191,0
1712022014427,1712022012298,2243861,0
1712022014427,1712022012338,2245570,0
1712022014427,1712022012379,2248018,0
1712022014427,1712022012420,2251007,0
1712022014427,1712022012459,2254408,0
1712022014427,1712022012499,2258605,0
1712022014427,1712022012540,2262886,0
1712022014427,1712022012580,2267337,0
1712022014427,1712022012621,2272053,0
1712022014427,1712022012661,2277197,0
1712022014427,1712022012701,2282205,0
1712022014427,1712022012741,2284058,0
1712022014427,1712022012781,2272826,0
1712022014427,1712022012822,2259790,0
1712022014427,1712022012862,2251645,0
1712022014427,1712022012902,2245986,0
1712022014427,1712022012942,2242000,0
1712022014427,1712022012982,2240976,0
1712022014427,1712022013024,2240910,0
1712022014427,1712022013063,2240829,0
1712022014427,1712022013103,2241306,0
1712022014427,1712022013144,2242974,0
1712022014427,1712022013184,2245681,0
1712022014427,1712022013225,2249464,0
1712022014427,1712022013264,2253532,0
1712022014427,1712022013304,2258143,0
1712022014427,1712022013345,2262831,0
1712022014427,1712022013385,2268099,0
1712022014427,1712022013426,2273681,0
1712022014427,1712022013465,2278831,0
1712022014427,1712022013506,2284217,0
1712022014427,1712022013546,2288158,0
1712022014427,1712022013586,2280526,0
1712022014427,1712022013627,2268275,0
1712022014427,1712022013667,2260656,0
1712022014427,1712022013707,2256080,0
1712022014427,1712022013747,2252773,0
1712022014427,1712022013787,2251461,0
1712022014427,1712022013828,2251429,0
1712022014427,1712022013868,2251289,0
1712022014427,1712022013908,2251695,0
1712022014427,1712022013948,2253488,0
1712022014427,1712022013988,2256288,0
1712022014427,1712022014029,2259811,0
1712022014427,1712022014068,2263678,0
1712022014427,1712022014108,2267770,0
1712022014427,1712022014148,2271925,0
1712022014427,1712022014188,2276492,0
1712022014427,1712022014229,2280994,0
1712022014427,1712022014269,2284814,0
1712022014427,1712022014309,2279468,0
1712022014427,1712022014349,2268691,0
1712022026491,1712022014389,2262429,0
1712022026491,1712022014430,2259763,0
1712022026491,1712022014469,2257745,0
1712022026491,1712022014509,2257571,0
1712022026491,1712022014549,2258540,0
1712022026491,1712022014590,2258938,0
1712022026491,1712022014630,2259454,0
1712022026491,1712022014670,2261110,0
1712022026491,1712022014710,2263857,0
1712022026491,1712022014750,2267282,0
1712022026491,1712022014790,2271163,0
1712022026491,1712022014831,2275103,0
1712022026491,1712022014870,2279181,0
1712022026491,1712022014910,2283413,0
1712022026491,1712022014951,2287665,0
1712022026491,1712022014991,2284349,0
1712022026491,1712022015032,2274139,0
1712022026491,1712022015071,2268049,0
1712022026491,1712022015111,2265507,0
1712022026491,1712022015151,2263930,0
1712022026491,1712022015191,2263579,0
1712022026491,1712022015232,2265109,0
1712022026491,1712022015272,2267391,0
1712022026491,1712022015312,2271731,0
1712022026491,1712022015352,2278229,0
1712022026491,1712022015392,2281414,0
1712022026491,1712022015433,2285366,0
1712022026491,1712022015472,2288524,0
1712022026491,1712022015512,2289479,0
1712022026491,1712022015553,2290822,0
1712022026491,1712022015593,2293763,0
1712022026491,1712022015633,2296713,0
1712022026491,1712022015673,2299290,0
1712022026491,1712022015713,2295607,0
1712022026491,1712022015753,2282987,0
1712022026491,1712022015793,2270898,0
1712022026491,1712022015834,2259812,0
1712022026491,1712022015874,2249026,0
1712022026491,1712022015914,2239882,0
1712022026491,1712022015954,2232724,0
1712022026491,1712022015994,2225769,0
1712022026491,1712022016035,2220225,0
1712022026491,1712022016074,2219065,0
1712022026491,1712022016114,2221023,0
1712022026491,1712022016154,2225175,0
1712022026491,1712022016194,2231877,0
1712022026491,1712022016235,2241164,0
1712022026491,1712022016275,2253597,0
1712022026491,1712022016315,2268575,0
1712022026491,1712022016355,2284727,0
1712022026491,1712022016395,2296374,0
1712022026491,1712022016436,2301803,0
1712022026491,1712022016475,2305518,0
1712022026491,1712022016516,2316338,0
1712022026491,1712022016556,2329121,0
1712022026491,1712022016596,2340572,0
1712022026491,1712022016637,2350175,0
1712022026491,1712022016676,2360721,0
1712022026491,1712022016716,2372773,0
1712022026491,1712022016757,2386553,0
1712022026491,1712022016797,2404883,0
1712022026491,1712022016837,2423146,0
1712022026491,1712022016877,2440164,0
1712022026491,1712022016917,2454743,0
1712022026491,1712022016957,2467563,0
1712022026491,1712022016998,2477180,0
1712022026491,1712022017038,2485446,0
1712022026491,1712022017078,2493394,0
1712022026491,1712022017118,2499727,0
1712022026491,1712022017158,2505185,0
1712022026491,1712022017198,2508159,0
1712022026491,1712022017239,2510223,0
1712022026491,1712022017278,2513871,0
1712022026491,1712022017318,2517726,0
1712022026491,1712022017359,2521661,0
1712022026491,1712022017399,2526317,0
1712022026491,1712022017440,2530684,0
1712022026491,1712022017479,2534713,0
1712022026491,1712022017519,2538716,0
1712022026491,1712022017559,2542844,0
1712022026491,1712022017600,2547121,0
1712022026491,1712022017640,2551460,0
1712022026491,1712022017680,2555936,0
1712022026491,1712022017720,2560351,0
1712022026491,1712022017760,2564321,0
1712022026491,1712022017800,2568407,0
1712022026491,1712022017841,2572332,0
1712022026491,1712022017881,2575866,0
1712022026491,1712022017921,2579585,0
1712022026491,1712022017961,2583630,0
1712022026491,1712022018001,2587118,0
1712022026491,1712022018042,2587725,0
1712022026491,1712022018082,2587859,0
1712022026491,1712022018122,2590334,0
1712022026491,1712022018162,2593474,0
1712022026491,1712022018202,2596339,0
1712022026491,1712022018243,2599538,0
1712022026491,1712022018282,2602714,0
1712022026491,1712022018323,2605851,0
1712022026491,1712022018363,2608761,0
1712022026491,1712022018403,2612025,0
1712022026491,1712022018444,2615346,0
1712022026491,1712022018483,2618490,0
1712022026491,1712022018523,2621642,0
1712022026491,1712022018564,2624723,0
1712022026491,1712022018604,2627968,0
1712022026491,1712022018644,2630668,0
1712022026491,1712022018684,2633235,0
1712022026491,1712022018724,2635708,0
1712022026491,1712022018764,2638182,0
1712022026491,1712022018805,2641734,0
1712022026491,1712022018845,2642149,0
1712022026491,1712022018885,2644724,0
1712022026491,1712022018925,2647589,0
1712022026491,1712022018965,2650288,0
1712022026491,1712022019005,2653028,0
1712022026491,1712022019046,2655782,0
1712022026491,1712022019085,2658499,0
1712022026491,1712022019125,2662128,0
1712022026491,1712022019165,2666610,0
1712022026491,1712022019205,2670099,0
1712022026491,1712022019246,2675204,0
1712022026491,1712022019286,2676734,0
1712022026491,1712022019326,2682174,0
1712022026491,1712022019366,2684316,0
1712022026491,1712022019406,2677260,0
1712022026491,1712022019447,2657745,0
1712022026491,1712022019486,2628822,0
1712022026491,1712022019526,2616007,0
1712022026491,1712022019566,2619468,0
1712022026491,1712022019606,2628902,0
1712022026491,1712022019647,2640163,0
1712022026491,1712022019687,2644839,0
1712022026491,1712022019727,2649666,0
1712022026491,1712022019767,2651979,0
1712022026491,1712022019807,2651838,0
1712022026491,1712022019848,2652469,0
1712022026491,1712022019887,2656248,0
1712022026491,1712022019927,2649922,0
1712022026491,1712022019967,2631173,0
1712022026491,1712022020008,2622402,0
1712022026491,1712022020048,2609323,0
1712022026491,1712022020088,2596249,0
1712022026491,1712022020128,2587824,0
1712022026491,1712022020168,2580838,0
1712022026491,1712022020208,2570674,0
1712022026491,1712022020249,2560191,0
1712022026491,1712022020289,2551162,0
1712022026491,1712022020329,2548330,0
1712022026491,1712022020369,2544299,0
1712022026491,1712022020409,2536823,0
1712022026491,1712022020450,2530482,0
1712022026491,1712022020489,2530056,0
1712022026491,1712022020529,2529177,0
1712022026491,1712022020569,2531546,0
1712022026491,1712022020609,2535544,0
1712022026491,1712022020650,2537624,0
1712022026491,1712022020690,2535228,0
1712022026491,1712022020730,2539588,0
1712022026491,1712022020770,2542992,0
1712022026491,1712022020810,2542133,0
1712022026491,1712022020851,2543365,0
1712022026491,1712022020890,2550193,0
1712022026491,1712022020930,2554357,0
1712022026491,1712022020971,2556799,0
1712022026491,1712022021011,2555608,0
1712022026491,1712022021052,2559275,0
1712022026491,1712022021091,2552972,0
1712022026491,1712022021131,2529010,0
1712022026491,1712022021171,2513120,0
1712022026491,1712022021212,2505306,0
1712022026491,1712022021252,2499273,0
1712022026491,1712022021292,2500393,0
1712022026491,1712022021332,2503002,0
1712022026491,1712022021372,2507992,0
1712022026491,1712022021412,2517830,0
1712022026491,1712022021453,2526047,0
1712022026491,1712022021492,2534577,0
1712022026491,1712022021532,2538311,0
1712022026491,1712022021573,2544407,0
1712022026491,1712022021613,2558817,0
1712022026491,1712022021654,2565519,0
1712022026491,1712022021693,2568411,0
1712022026491,1712022021733,2575482,0
1712022026491,1712022021773,2580773,0
1712022026491,1712022021814,2581126,0
1712022026491,1712022021854,2575126,0
1712022026491,1712022021894,2567573,0
1712022026491,1712022021934,2562614,0
1712022026491,1712022021974,2554711,0
1712022026491,1712022022014,2548452,0
1712022026491,1712022022055,2543716,0
1712022026491,1712022022094,2537442,0
1712022026491,1712022022134,2528217,0
1712022026491,1712022022175,2520495,0
1712022026491,1712022022215,2510983,0
1712022026491,1712022022256,2501517,0
1712022026491,1712022022295,2489745,0
1712022026491,1712022022335,2481861,0
1712022026491,1712022022375,2480608,0
1712022026491,1712022022416,2477635,0
1712022026491,1712022022456,2473634,0
1712022026491,1712022022496,2464567,0
1712022026491,1712022022536,2440796,0
1712022026491,1712022022576,2412346,0
1712022026491,1712022022616,2393071,0
1712022026491,1712022022657,2390362,0
1712022026491,1712022022697,2386259,0
1712022026491,1712022022737,2385018,0
1712022026491,1712022022777,2386624,0
1712022026491,1712022022817,2384251,0
1712022026491,1712022022858,2374207,0
1712022026491,1712022022897,2370857,0
1712022026491,1712022022937,2368388,0
1712022026491,1712022022978,2364829,0
1712022026491,1712022023018,2362378,0
1712022026491,1712022023058,2358290,0
1712022026491,1712022023098,2364309,0
1712022026491,1712022023138,2365223,0
1712022026491,1712022023178,2354781,0
1712022026491,1712022023218,2335278,0
1712022026491,1712022023259,2319673,0
1712022026491,1712022023299,2312376,0
1712022026491,1712022023339,2315614,0
1712022026491,1712022023379,2317947,0
1712022026491,1712022023419,2323091,0
1712022026491,1712022023460,2328785,0
1712022026491,1712022023500,2333914,0
1712022026491,1712022023540,2336873,0
1712022026491,1712022023580,2343244,0
1712022026491,1712022023620,2348319,0
1712022026491,1712022023661,2352792,0
1712022026491,1712022023700,2353825,0
1712022026491,1712022023741,2347221,0
1712022026491,1712022023781,2339787,0
1712022026491,1712022023821,2332612,0
1712022026491,1712022023862,2314485,0
1712022026491,1712022023901,2286346,0
1712022026491,1712022023941,2267085,0
1712022026491,1712022023982,2254241,0
1712022026491,1712022024022,2251799,0
1712022026491,1712022024062,2248162,0
1712022026491,1712022024102,2249239,0
1712022026491,1712022024142,2248499,0
1712022026491,1712022024182,2249915,0
1712022026491,1712022024222,2261632,0
1712022026491,1712022024263,2285312,0
1712022026491,1712022024303,2311720,0
1712022026491,1712022024343,2346304,0
1712022026491,1712022024383,2378751,0
1712022026491,1712022024423,2407808,0
1712022026491,1712022024464,2437659,0
1712022026491,1712022024503,2455290,0
1712022026491,1712022024543,2461371,0
1712022026491,1712022024583,2473521,0
1712022026491,1712022024623,2479694,0
1712022026491,1712022024664,2483676,0
1712022026491,1712022024704,2485654,0
1712022026491,1712022024744,2484273,0
1712022026491,1712022024784,2481352,0
1712022026491,1712022024824,2480917,0
1712022026491,1712022024865,2481591,0
1712022026491,1712022024904,2483543,0
1712022026491,1712022024944,2484458,0
1712022026491,1712022024984,2485479,0
1712022026491,1712022025024,2486936,0
1712022026491,1712022025065,2486192,0
1712022026491,1712022025104,2485402,0
1712022026491,1712022025144,2484093,0
1712022026491,1712022025185,2483257,0
1712022026491,1712022025225,2484206,0
1712022026491,1712022025266,2486004,0
1712022026491,1712022025305,2487603,0
1712022026491,1712022025345,2489438,0
1712022026491,1712022025385,2490898,0
1712022026491,1712022025426,2491949,0
1712022026491,1712022025466,2492707,0
1712022026491,1712022025505,2493262,0
1712022026491,1712022025546,2493397,0
1712022026491,1712022025586,2493791,0
1712022026491,1712022025626,2494962,0
1712022026491,1712022025667,2496646,0
1712022026491,1712022025706,2498891,0
1712022026491,1712022025746,2501299,0
1712022026491,1712022025786,2501736,0
1712022026491,1712022025826,2500462,0
1712022026491,1712022025867,2501357,0
1712022026491,1712022025907,2503239,0
1712022026491,1712022025947,2504892,0
1712022026491,1712022025987,2506326,0
1712022026491,1712022026027,2507295,0
1712022026491,1712022026068,2508770,0
1712022026491,1712022026107,2510674,0
1712022026491,1712022026147,2513409,0
1712022026491,1712022026187,2516921,0
1712022026491,1712022026228,2520754,0
1712022026491,1712022026269,2523922,0
1712022026491,1712022026308,2526485,0
1712022026491,1712022026348,2528869,0
1712022026491,1712022026388,2531437,0
1712022038512,1712022026429,2533460,0
1712022038512,1712022026470,2534308,0
1712022038512,1712022026509,2535403,0
1712022038512,1712022026550,2537266,0
1712022038512,1712022026590,2539420,0
1712022038512,1712022026630,2541966,0
1712022038512,1712022026671,2544786,0
1712022038512,1712022026710,2547642,0
1712022038512,1712022026750,2550388,0
1712022038512,1712022026790,2554674,0
1712022038512,1712022026831,2561117,0
1712022038512,1712022026871,2573215,0
1712022038512,1712022026911,2578347,0
1712022038512,1712022026951,2577210,0
1712022038512,1712022026991,2574606,0
1712022038512,1712022027031,2570552,0
1712022038512,1712022027072,2554312,0
1712022038512,1712022027112,2509623,0
1712022038512,1712022027152,2477591,0
1712022038512,1712022027192,2435513,0
1712022038512,1712022027232,2399169,0
1712022038512,1712022027273,2365181,0
1712022038512,1712022027312,2343951,0
1712022038512,1712022027352,2351886,0
1712022038512,1712022027392,2382893,0
1712022038512,1712022027433,2390355,0
1712022038512,1712022027473,2402943,0
1712022038512,1712022027513,2398590,0
1712022038512,1712022027553,2379213,0
1712022038512,1712022027593,2366746,0
1712022038512,1712022027633,2359889,0
1712022038512,1712022027674,2350704,0
1712022038512,1712022027713,2341585,0
1712022038512,1712022027753,2335861,0
1712022038512,1712022027794,2328227,0
1712022038512,1712022027834,2322640,0
1712022038512,1712022027875,2316930,0
1712022038512,1712022027914,2292382,0
1712022038512,1712022027954,2246549,0
1712022038512,1712022027994,2231091,0
1712022038512,1712022028034,2201729,0
1712022038512,1712022028075,2171315,0
1712022038512,1712022028115,2152285,0
1712022038512,1712022028155,2134048,0
1712022038512,1712022028195,2121755,0
1712022038512,1712022028235,2125452,0
1712022038512,1712022028276,2140316,0
1712022038512,1712022028316,2155739,0
1712022038512,1712022028356,2177087,0
1712022038512,1712022028396,2211764,0
1712022038512,1712022028436,2253080,0
1712022038512,1712022028477,2276353,0
1712022038512,1712022028516,2336745,0
1712022038512,1712022028556,2393991,0
1712022038512,1712022028596,2442026,0
1712022038512,1712022028637,2506104,0
1712022038512,1712022028678,2593849,0
1712022038512,1712022028717,2626358,0
1712022038512,1712022028757,2635044,0
1712022038512,1712022028797,2644984,0
1712022038512,1712022028837,2648494,0
1712022038512,1712022028878,2652600,0
1712022038512,1712022028918,2661580,0
1712022038512,1712022028958,2678891,0
1712022038512,1712022028998,2680717,0
1712022038512,1712022029038,2687509,0
1712022038512,1712022029079,2679525,0
1712022038512,1712022029118,2664764,0
1712022038512,1712022029159,2655335,0
1712022038512,1712022029199,2648623,0
1712022038512,1712022029239,2647012,0
1712022038512,1712022029280,2643689,0
1712022038512,1712022029319,2641725,0
1712022038512,1712022029359,2637939,0
1712022038512,1712022029400,2632292,0
1712022038512,1712022029440,2627512,0
1712022038512,1712022029480,2621479,0
1712022038512,1712022029520,2611236,0
1712022038512,1712022029560,2600879,0
1712022038512,1712022029600,2591952,0
1712022038512,1712022029641,2597787,0
1712022038512,1712022029681,2608258,0
1712022038512,1712022029721,2621584,0
1712022038512,1712022029761,2632748,0
1712022038512,1712022029801,2642011,0
1712022038512,1712022029841,2646116,0
1712022038512,1712022029882,2655309,0
1712022038512,1712022029921,2666874,0
1712022038512,1712022029962,2680119,0
1712022038512,1712022030002,2688339,0
1712022038512,1712022030042,2707563,0
1712022038512,1712022030083,2768482,0
1712022038512,1712022030122,2804459,0
1712022038512,1712022030162,2837854,0
1712022038512,1712022030202,2874912,0
1712022038512,1712022030242,2907097,0
1712022038512,1712022030283,2932454,0
1712022038512,1712022030322,2937028,0
1712022038512,1712022030363,2939349,0
1712022038512,1712022030403,2927897,0
1712022038512,1712022030443,2919294,0
1712022038512,1712022030484,2911434,0
1712022038512,1712022030523,2894090,0
1712022038512,1712022030563,2880119,0
1712022038512,1712022030603,2864834,0
1712022038512,1712022030643,2866066,0
1712022038512,1712022030684,2866931,0
1712022038512,1712022030724,2857827,0
1712022038512,1712022030764,2854057,0
1712022038512,1712022030804,2849565,0
1712022038512,1712022030844,2843292,0
1712022038512,1712022030885,2836239,0
1712022038512,1712022030924,2826935,0
1712022038512,1712022030964,2819225,0
1712022038512,1712022031004,2812959,0
1712022038512,1712022031044,2810303,0
1712022038512,1712022031085,2805723,0
1712022038512,1712022031125,2802322,0
1712022038512,1712022031165,2799568,0
1712022038512,1712022031205,2798569,0
1712022038512,1712022031245,2799158,0
1712022038512,1712022031286,2802509,0
1712022038512,1712022031325,2805052,0
1712022038512,1712022031365,2807532,0
1712022038512,1712022031406,2813411,0
1712022038512,1712022031446,2814652,0
1712022038512,1712022031486,2813810,0
1712022038512,1712022031526,2816520,0
1712022038512,1712022031566,2806496,0
1712022038512,1712022031606,2802997,0
1712022038512,1712022031646,2785451,0
1712022038512,1712022031687,2775469,0
1712022038512,1712022031726,2764999,0
1712022038512,1712022031767,2760191,0
1712022038512,1712022031807,2760297,0
1712022038512,1712022031847,2762540,0
1712022038512,1712022031888,2768478,0
1712022038512,1712022031927,2775742,0
1712022038512,1712022031967,2786761,0
1712022038512,1712022032007,2789888,0
1712022038512,1712022032047,2772641,0
1712022038512,1712022032088,2752186,0
1712022038512,1712022032128,2750166,0
1712022038512,1712022032168,2782547,0
1712022038512,1712022032208,2814633,0
1712022038512,1712022032248,2834107,0
1712022038512,1712022032289,2842490,0
1712022038512,1712022032328,2849977,0
1712022038512,1712022032368,2850323,0
1712022038512,1712022032408,2848180,0
1712022038512,1712022032449,2849307,0
1712022038512,1712022032489,2850203,0
1712022038512,1712022032529,2849976,0
1712022038512,1712022032569,2845487,0
1712022038512,1712022032609,2843649,0
1712022038512,1712022032649,2844648,0
1712022038512,1712022032690,2844674,0
1712022038512,1712022032729,2835956,0
1712022038512,1712022032770,2825735,0
1712022038512,1712022032810,2791440,0
1712022038512,1712022032850,2762037,0
1712022038512,1712022032891,2737881,0
1712022038512,1712022032930,2704473,0
1712022038512,1712022032970,2685295,0
1712022038512,1712022033011,2674738,0
1712022038512,1712022033051,2669453,0
1712022038512,1712022033091,2674930,0
1712022038512,1712022033131,2701607,0
1712022038512,1712022033171,2727037,0
1712022038512,1712022033211,2742086,0
1712022038512,1712022033251,2762510,0
1712022038512,1712022033292,2758292,0
1712022038512,1712022033332,2738570,0
1712022038512,1712022033372,2717425,0
1712022038512,1712022033412,2696201,0
1712022038512,1712022033455,2677548,0
1712022038512,1712022033493,2660087,0
1712022038512,1712022033532,2634510,0
1712022038512,1712022033572,2606505,0
1712022038512,1712022033613,2584182,0
1712022038512,1712022033653,2571890,0
1712022038512,1712022033694,2573222,0
1712022038512,1712022033733,2576830,0
1712022038512,1712022033773,2583136,0
1712022038512,1712022033813,2591426,0
1712022038512,1712022033854,2594132,0
1712022038512,1712022033894,2595713,0
1712022038512,1712022033934,2589454,0
1712022038512,1712022033974,2582384,0
1712022038512,1712022034014,2572647,0
1712022038512,1712022034054,2575934,0
1712022038512,1712022034095,2588457,0
1712022038512,1712022034135,2607685,0
1712022038512,1712022034175,2617262,0
1712022038512,1712022034215,2633761,0
1712022038512,1712022034255,2655924,0
1712022038512,1712022034296,2676220,0
1712022038512,1712022034335,2687997,0
1712022038512,1712022034375,2709048,0
1712022038512,1712022034416,2739074,0
1712022038512,1712022034456,2776733,0
1712022038512,1712022034497,2805381,0
1712022038512,1712022034536,2827880,0
1712022038512,1712022034576,2840963,0
1712022038512,1712022034616,2841520,0
1712022038512,1712022034657,2848547,0
1712022038512,1712022034698,2847106,0
1712022038512,1712022034737,2837714,0
1712022038512,1712022034777,2839040,0
1712022038512,1712022034817,2845007,0
1712022038512,1712022034857,2844801,0
1712022038512,1712022034898,2835984,0
1712022038512,1712022034938,2834372,0
1712022038512,1712022034978,2836051,0
1712022038512,1712022035018,2838983,0
1712022038512,1712022035058,2849034,0
1712022038512,1712022035099,2856148,0
1712022038512,1712022035138,2870915,0
1712022038512,1712022035179,2867067,0
1712022038512,1712022035219,2865049,0
1712022038512,1712022035259,2867199,0
1712022038512,1712022035300,2870500,0
1712022038512,1712022035339,2883283,0
1712022038512,1712022035379,2887380,0
1712022038512,1712022035420,2896733,0
1712022038512,1712022035460,2908130,0
1712022038512,1712022035501,2917188,0
1712022038512,1712022035540,2917616,0
1712022038512,1712022035580,2914612,0
1712022038512,1712022035620,2916957,0
1712022038512,1712022035663,2924523,0
1712022038512,1712022035701,2932264,0
1712022038512,1712022035741,2938270,0
1712022038512,1712022035781,2934706,0
1712022038512,1712022035821,2931510,0
1712022038512,1712022035861,2922036,0
1712022038512,1712022035902,2930009,0
1712022038512,1712022035941,2923105,0
1712022038512,1712022035981,2930056,0
1712022038512,1712022036021,2932924,0
1712022038512,1712022036061,2928254,0
1712022038512,1712022036102,2922233,0
1712022038512,1712022036142,2893649,0
1712022038512,1712022036182,2876369,0
1712022038512,1712022036222,2879155,0
1712022038512,1712022036262,2887341,0
1712022038512,1712022036303,2886516,0
1712022038512,1712022036342,2883130,0
1712022038512,1712022036383,2884347,0
1712022038512,1712022036423,2889660,0
1712022038512,1712022036463,2888523,0
1712022038512,1712022036504,2894337,0
1712022038512,1712022036543,2907750,0
1712022038512,1712022036583,2917041,0
1712022038512,1712022036623,2940843,0
1712022038512,1712022036663,2964161,0
1712022038512,1712022036704,2988391,0
1712022038512,1712022036744,2997706,0
1712022038512,1712022036784,2988481,0
1712022038512,1712022036824,2982085,0
1712022038512,1712022036864,2971752,0
1712022038512,1712022036905,2968872,0
1712022038512,1712022036944,2962391,0
1712022038512,1712022036984,2964630,0
1712022038512,1712022037024,2963108,0
1712022038512,1712022037064,2950908,0
1712022038512,1712022037105,2936569,0
1712022038512,1712022037145,2928843,0
1712022038512,1712022037185,2911677,0
1712022038512,1712022037225,2894892,0
1712022038512,1712022037265,2877659,0
1712022038512,1712022037306,2865383,0
1712022038512,1712022037345,2856233,0
1712022038512,1712022037385,2852737,0
1712022038512,1712022037425,2850809,0
1712022038512,1712022037466,2848035,0
1712022038512,1712022037506,2844194,0
1712022038512,1712022037546,2839750,0
1712022038512,1712022037586,2833661,0
1712022038512,1712022037626,2826328,0
1712022038512,1712022037666,2815336,0
1712022038512,1712022037707,2806370,0
1712022038512,1712022037747,2801514,0
1712022038512,1712022037787,2801651,0
1712022038512,1712022037827,2801561,0
1712022038512,1712022037870,2797610,0
1712022038512,1712022037908,2792888,0
1712022038512,1712022037947,2785865,0
1712022038512,1712022037987,2774440,0
1712022038512,1712022038027,2760994,0
1712022038512,1712022038068,2747301,0
1712022038512,1712022038108,2734616,0
1712022038512,1712022038148,2721121,0
1712022038512,1712022038188,2706486,0
1712022038512,1712022038228,2693805,0
1712022038512,1712022038268,2686206,0
1712022038512,1712022038309,2682606,0
1712022038512,1712022038348,2683877,0
1712022038512,1712022038389,2688909,0
1712022038512,1712022038429,2702145,0
1712022050509,1712022038466,2720507,0
1712022050509,1712022038507,2735877,0
1712022050509,1712022038546,2745407,0
1712022050509,1712022038586,2751036,0
1712022050509,1712022038626,2756574,0
1712022050509,1712022038667,2759473,0
1712022050509,1712022038707,2764648,0
1712022050509,1712022038747,2770933,0
1712022050509,1712022038787,2768641,0
1712022050509,1712022038827,2762897,0
1712022050509,1712022038867,2756372,0
1712022050509,1712022038908,2751367,0
1712022050509,1712022038947,2749578,0
1712022050509,1712022038988,2746557,0
1712022050509,1712022039028,2740996,0
1712022050509,1712022039068,2730335,0
1712022050509,1712022039109,2720176,0
1712022050509,1712022039148,2718141,0
1712022050509,1712022039188,2719028,0
1712022050509,1712022039228,2715881,0
1712022050509,1712022039269,2705137,0
1712022050509,1712022039309,2709234,0
1712022050509,1712022039349,2704868,0
1712022050509,1712022039389,2690156,0
1712022050509,1712022039429,2676630,0
1712022050509,1712022039469,2663309,0
1712022050509,1712022039510,2640951,0
1712022050509,1712022039550,2618934,0
1712022050509,1712022039590,2604793,0
1712022050509,1712022039630,2587539,0
1712022050509,1712022039670,2565288,0
1712022050509,1712022039711,2539598,0
1712022050509,1712022039751,2488220,0
1712022050509,1712022039791,2447207,0
1712022050509,1712022039831,2435264,0
1712022050509,1712022039871,2410669,0
1712022050509,1712022039912,2433231,0
1712022050509,1712022039951,2488008,0
1712022050509,1712022039992,2516434,0
1712022050509,1712022040032,2522508,0
1712022050509,1712022040072,2532858,0
1712022050509,1712022040113,2546277,0
1712022050509,1712022040152,2581923,0
1712022050509,1712022040192,2604361,0
1712022050509,1712022040233,2622799,0
1712022050509,1712022040273,2645369,0
1712022050509,1712022040313,2661654,0
1712022050509,1712022040353,2664419,0
1712022050509,1712022040393,2659704,0
1712022050509,1712022040433,2650741,0
1712022050509,1712022040474,2650485,0
1712022050509,1712022040514,2660149,0
1712022050509,1712022040554,2665204,0
1712022050509,1712022040594,2673752,0
1712022050509,1712022040634,2666028,0
1712022050509,1712022040674,2670780,0
1712022050509,1712022040715,2671701,0
1712022050509,1712022040755,2673840,0
1712022050509,1712022040795,2671236,0
1712022050509,1712022040835,2661901,0
1712022050509,1712022040875,2646612,0
1712022050509,1712022040916,2624672,0
1712022050509,1712022040956,2590794,0
1712022050509,1712022040996,2580939,0
1712022050509,1712022041036,2573088,0
1712022050509,1712022041076,2567440,0
1712022050509,1712022041117,2562224,0
1712022050509,1712022041156,2556646,0
1712022050509,1712022041196,2552148,0
1712022050509,1712022041236,2548646,0
1712022050509,1712022041277,2546480,0
1712022050509,1712022041317,2543837,0
1712022050509,1712022041357,2542959,0
1712022050509,1712022041397,2542439,0
1712022050509,1712022041437,2540337,0
1712022050509,1712022041477,2530459,0
1712022050509,1712022041518,2516547,0
1712022050509,1712022041557,2502192,0
1712022050509,1712022041597,2489537,0
1712022050509,1712022041638,2478552,0
1712022050509,1712022041678,2471644,0
1712022050509,1712022041718,2466287,0
1712022050509,1712022041758,2461216,0
1712022050509,1712022041798,2455962,0
1712022050509,1712022041838,2452490,0
1712022050509,1712022041878,2450390,0
1712022050509,1712022041919,2448796,0
1712022050509,1712022041959,2448675,0
1712022050509,1712022041999,2449367,0
1712022050509,1712022042039,2449843,0
1712022050509,1712022042079,2449691,0
1712022050509,1712022042120,2442498,0
1712022050509,1712022042159,2426542,0
1712022050509,1712022042199,2417241,0
1712022050509,1712022042239,2424570,0
1712022050509,1712022042280,2448495,0
1712022050509,1712022042320,2467612,0
1712022050509,1712022042360,2484226,0
1712022050509,1712022042400,2500908,0
1712022050509,1712022042440,2518760,0
1712022050509,1712022042480,2531040,0
1712022050509,1712022042521,2531478,0
1712022050509,1712022042560,2517575,0
1712022050509,1712022042600,2497337,0
1712022050509,1712022042641,2482762,0
1712022050509,1712022042681,2471429,0
1712022050509,1712022042722,2462322,0
1712022050509,1712022042761,2452084,0
1712022050509,1712022042801,2439665,0
1712022050509,1712022042841,2416792,0
1712022050509,1712022042882,2384424,0
1712022050509,1712022042922,2348362,0
1712022050509,1712022042962,2317329,0
1712022050509,1712022043002,2292073,0
1712022050509,1712022043042,2271985,0
1712022050509,1712022043082,2254776,0
1712022050509,1712022043123,2238521,0
1712022050509,1712022043162,2223884,0
1712022050509,1712022043202,2211696,0
1712022050509,1712022043243,2201727,0
1712022050509,1712022043283,2193491,0
1712022050509,1712022043323,2186417,0
1712022050509,1712022043363,2180660,0
1712022050509,1712022043403,2175512,0
1712022050509,1712022043443,2171513,0
1712022050509,1712022043484,2167216,0
1712022050509,1712022043524,2154040,0
1712022050509,1712022043564,2128897,0
1712022050509,1712022043604,2106589,0
1712022050509,1712022043644,2091750,0
1712022050509,1712022043684,2082139,0
1712022050509,1712022043725,2076148,0
1712022050509,1712022043764,2071328,0
1712022050509,1712022043804,2065616,0
1712022050509,1712022043845,2060204,0
1712022050509,1712022043885,2056099,0
1712022050509,1712022043925,2053869,0
1712022050509,1712022043965,2052906,0
1712022050509,1712022044005,2052982,0
1712022050509,1712022044045,2053848,0
1712022050509,1712022044085,2055253,0
1712022050509,1712022044126,2057098,0
1712022050509,1712022044166,2056516,0
1712022050509,1712022044206,2042647,0
1712022050509,1712022044246,2025041,0
1712022050509,1712022044286,2013907,0
1712022050509,1712022044327,2008974,0
1712022050509,1712022044366,2008016,0
1712022050509,1712022044406,2008800,0
1712022050509,1712022044447,2008867,0
1712022050509,1712022044487,2007676,0
1712022050509,1712022044528,2006982,0
1712022050509,1712022044567,2008153,0
1712022050509,1712022044607,2010413,0
1712022050509,1712022044647,2013826,0
1712022050509,1712022044688,2017581,0
1712022050509,1712022044728,2021748,0
1712022050509,1712022044768,2025821,0
1712022050509,1712022044808,2027437,0
1712022050509,1712022044848,2015138,0
1712022050509,1712022044888,1999171,0
1712022050509,1712022044929,1989564,0
1712022050509,1712022044969,1986192,0
1712022050509,1712022045009,1986748,0
1712022050509,1712022045049,1989476,0
1712022050509,1712022045089,1991164,0
1712022050509,1712022045130,1991323,0
1712022050509,1712022045169,1991520,0
1712022050509,1712022045209,1993104,0
1712022050509,1712022045250,1995836,0
1712022050509,1712022045290,1999208,0
1712022050509,1712022045331,2002793,0
1712022050509,1712022045370,2006654,0
1712022050509,1712022045410,2010576,0
1712022050509,1712022045451,2007469,0
1712022050509,1712022045491,1991778,0
1712022050509,1712022045532,1977818,0
1712022050509,1712022045571,1970931,0
1712022050509,1712022045611,1969482,0
1712022050509,1712022045651,1971617,0
1712022050509,1712022045692,1974600,0
1712022050509,1712022045732,1976194,0
1712022050509,1712022045772,1976808,0
1712022050509,1712022045812,1978063,0
1712022050509,1712022045852,1980822,0
1712022050509,1712022045892,1984496,0
1712022050509,1712022045933,1989045,0
1712022050509,1712022045973,1993808,0
1712022050509,1712022046013,1998736,0
1712022050509,1712022046053,2003327,0
1712022050509,1712022046093,1996618,0
1712022050509,1712022046134,1979184,0
1712022050509,1712022046173,1966642,0
1712022050509,1712022046214,1961691,0
1712022050509,1712022046254,1961566,0
1712022050509,1712022046294,1964141,0
1712022050509,1712022046335,1967101,0
1712022050509,1712022046374,1968729,0
1712022050509,1712022046414,1970301,0
1712022050509,1712022046454,1972851,0
1712022050509,1712022046494,1976626,0
1712022050509,1712022046535,1981284,0
1712022050509,1712022046574,1986474,0
1712022050509,1712022046615,1991850,0
1712022050509,1712022046655,1997438,0
1712022050509,1712022046695,2002851,0
1712022050509,1712022046736,1999853,0
1712022050509,1712022046775,1983414,0
1712022050509,1712022046815,1970332,0
1712022050509,1712022046855,1965527,0
1712022050509,1712022046895,1965816,0
1712022050509,1712022046936,1969165,0
1712022050509,1712022046976,1972783,0
1712022050509,1712022047016,1974940,0
1712022050509,1712022047056,1976456,0
1712022050509,1712022047096,1978926,0
1712022050509,1712022047137,1982789,0
1712022050509,1712022047176,1987547,0
1712022050509,1712022047216,1993048,0
1712022050509,1712022047256,1998355,0
1712022050509,1712022047296,2003806,0
1712022050509,1712022047337,2009385,0
1712022050509,1712022047377,2013344,0
1712022050509,1712022047417,2003195,0
1712022050509,1712022047457,1988268,0
1712022050509,1712022047497,1981031,0
1712022050509,1712022047538,1980876,0
1712022050509,1712022047577,1984712,0
1712022050509,1712022047617,1989732,0
1712022050509,1712022047657,1992701,0
1712022050509,1712022047698,1994192,0
1712022050509,1712022047738,1996074,0
1712022050509,1712022047778,1999388,0
1712022050509,1712022047818,2004077,0
1712022050509,1712022047858,2009133,0
1712022050509,1712022047898,2014299,0
1712022050509,1712022047939,2019618,0
1712022050509,1712022047978,2024945,0
1712022050509,1712022048018,2030277,0
1712022050509,1712022048058,2034030,0
1712022050509,1712022048098,2025084,0
1712022050509,1712022048139,2011675,0
1712022050509,1712022048179,2005429,0
1712022050509,1712022048219,2006223,0
1712022050509,1712022048259,2010771,0
1712022050509,1712022048299,2015679,0
1712022050509,1712022048340,2018448,0
1712022050509,1712022048379,2019506,0
1712022050509,1712022048419,2021183,0
1712022050509,1712022048459,2024634,0
1712022050509,1712022048499,2028683,0
1712022050509,1712022048540,2033105,0
1712022050509,1712022048580,2037654,0
1712022050509,1712022048620,2042289,0
1712022050509,1712022048660,2046750,0
1712022050509,1712022048700,2051745,0
1712022050509,1712022048741,2054947,0
1712022050509,1712022048780,2050756,0
1712022050509,1712022048820,2046336,0
1712022050509,1712022048860,2046642,0
1712022050509,1712022048901,2050025,0
1712022050509,1712022048941,2054636,0
1712022050509,1712022048981,2058069,0
1712022050509,1712022049021,2058542,0
1712022050509,1712022049061,2058123,0
1712022050509,1712022049101,2058833,0
1712022050509,1712022049142,2060741,0
1712022050509,1712022049181,2063881,0
1712022050509,1712022049221,2067442,0
1712022050509,1712022049262,2071310,0
1712022050509,1712022049302,2075317,0
1712022050509,1712022049342,2079398,0
1712022050509,1712022049382,2081913,0
1712022050509,1712022049422,2072305,0
1712022050509,1712022049462,2058843,0
1712022050509,1712022049502,2051951,0
1712022050509,1712022049543,2051302,0
1712022050509,1712022049582,2054309,0
1712022050509,1712022049623,2057715,0
1712022050509,1712022049663,2059279,0
1712022050509,1712022049703,2059032,0
1712022050509,1712022049744,2059255,0
1712022050509,1712022049783,2060900,0
1712022050509,1712022049823,2063521,0
1712022050509,1712022049863,2066653,0
1712022050509,1712022049903,2070173,0
1712022050509,1712022049944,2073718,0
1712022050509,1712022049984,2077433,0
1712022050509,1712022050024,2075750,0
1712022050509,1712022050064,2062409,0
1712022050509,1712022050104,2050235,0
1712022050509,1712022050145,2045030,0
1712022050509,1712022050184,2044789,0
1712022050509,1712022050225,2047347,0
1712022050509,1712022050265,2049353,0
1712022050509,1712022050305,2049083,0
1712022050509,1712022050346,2048193,0
1712022050509,1712022050385,2048517,0
1712022050509,1712022050425,2050249,0
1712022050509,1712022050465,2052910,0
1712022062613,1712022050507,2055876,0
1712022062613,1712022050548,2059217,0
1712022062613,1712022050588,2062589,0
1712022062613,1712022050628,2062334,0
1712022062613,1712022050668,2048859,0
1712022062613,1712022050708,2034506,0
1712022062613,1712022050749,2026856,0
1712022062613,1712022050788,2024701,0
1712022062613,1712022050828,2025780,0
1712022062613,1712022050869,2027274,0
1712022062613,1712022050909,2027035,0
1712022062613,1712022050950,2025945,0
1712022062613,1712022050989,2025880,0
1712022062613,1712022051029,2027215,0
1712022062613,1712022051069,2029850,0
1712022062613,1712022051109,2032903,0
1712022062613,1712022051150,2036350,0
1712022062613,1712022051190,2039610,0
1712022062613,1712022051230,2038659,0
1712022062613,1712022051270,2024580,0
1712022062613,1712022051310,2009749,0
1712022062613,1712022051351,2001642,0
1712022062613,1712022051390,1998569,0
1712022062613,1712022051430,1998720,0
1712022062613,1712022051470,1999601,0
1712022062613,1712022051511,1998945,0
1712022062613,1712022051552,1997562,0
1712022062613,1712022051591,1996895,0
1712022062613,1712022051631,1997654,0
1712022062613,1712022051671,1999348,0
1712022062613,1712022051711,2001305,0
1712022062613,1712022051752,2003171,0
1712022062613,1712022051792,2005264,0
1712022062613,1712022051832,2001730,0
1712022062613,1712022051872,1988150,0
1712022062613,1712022051912,1974039,0
1712022062613,1712022051953,1964380,0
1712022062613,1712022051992,1959485,0
1712022062613,1712022052033,1958130,0
1712022062613,1712022052073,1958006,0
1712022062613,1712022052113,1957297,0
1712022062613,1712022052154,1955756,0
1712022062613,1712022052193,1954517,0
1712022062613,1712022052233,1954401,0
1712022062613,1712022052274,1955366,0
1712022062613,1712022052314,1957335,0
1712022062613,1712022052354,1959632,0
1712022062613,1712022052394,1953681,0
1712022062613,1712022052434,1940082,0
1712022062613,1712022052474,1932917,0
1712022062613,1712022052514,1932597,0
1712022062613,1712022052555,1935896,0
1712022062613,1712022052594,1940642,0
1712022062613,1712022052635,1944134,0
1712022062613,1712022052674,1946100,0
1712022062613,1712022052715,1948539,0
1712022062613,1712022052755,1951943,0
1712022062613,1712022052795,1956608,0
1712022062613,1712022052835,1961917,0
1712022062613,1712022052875,1967510,0
1712022062613,1712022052915,1973192,0
1712022062613,1712022052956,1978959,0
1712022062613,1712022052995,1983834,0
1712022062613,1712022053035,1974582,0
1712022062613,1712022053075,1959025,0
1712022062613,1712022053116,1951529,0
1712022062613,1712022053157,1950629,0
1712022062613,1712022053196,1953058,0
1712022062613,1712022053236,1957130,0
1712022062613,1712022053276,1960115,0
1712022062613,1712022053316,1962579,0
1712022062613,1712022053357,1965629,0
1712022062613,1712022053396,1970356,0
1712022062613,1712022053437,1976141,0
1712022062613,1712022053477,1982238,0
1712022062613,1712022053517,1988494,0
1712022062613,1712022053557,1994530,0
1712022062613,1712022053597,2000467,0
1712022062613,1712022053637,2006474,0
1712022062613,1712022053677,2010770,0
1712022062613,1712022053717,2000239,0
1712022062613,1712022053758,1985522,0
1712022062613,1712022053798,1979424,0
1712022062613,1712022053838,1979581,0
1712022062613,1712022053878,1982659,0
1712022062613,1712022053918,1986542,0
1712022062613,1712022053959,1988663,0
1712022062613,1712022053998,1989865,0
1712022062613,1712022054038,1992489,0
1712022062613,1712022054078,1996559,0
1712022062613,1712022054118,2001591,0
1712022062613,1712022054159,2007060,0
1712022062613,1712022054199,2012204,0
1712022062613,1712022054239,2017355,0
1712022062613,1712022054279,2022572,0
1712022062613,1712022054319,2027420,0
1712022062613,1712022054360,2032681,0
1712022062613,1712022054399,2037788,0
1712022062613,1712022054439,2033381,0
1712022062613,1712022054479,2018309,0
1712022062613,1712022054520,2010103,0
1712022062613,1712022054560,2010035,0
1712022062613,1712022054600,2014109,0
1712022062613,1712022054640,2019202,0
1712022062613,1712022054680,2021880,0
1712022062613,1712022054720,2022969,0
1712022062613,1712022054761,2024907,0
1712022062613,1712022054801,2028711,0
1712022062613,1712022054841,2033481,0
1712022062613,1712022054881,2038582,0
1712022062613,1712022054921,2043778,0
1712022062613,1712022054962,2048980,0
1712022062613,1712022055001,2054373,0
1712022062613,1712022055041,2059395,0
1712022062613,1712022055081,2064362,0
1712022062613,1712022055121,2069454,0
1712022062613,1712022055162,2071713,0
1712022062613,1712022055202,2061333,0
1712022062613,1712022055242,2051386,0
1712022062613,1712022055282,2049981,0
1712022062613,1712022055322,2053698,0
1712022062613,1712022055363,2059493,0
1712022062613,1712022055402,2063606,0
1712022062613,1712022055442,2065223,0
1712022062613,1712022055483,2066576,0
1712022062613,1712022055523,2069507,0
1712022062613,1712022055564,2073709,0
1712022062613,1712022055603,2078363,0
1712022062613,1712022055643,2083377,0
1712022062613,1712022055683,2088309,0
1712022062613,1712022055724,2093261,0
1712022062613,1712022055764,2098154,0
1712022062613,1712022055804,2102877,0
1712022062613,1712022055844,2107460,0
1712022062613,1712022055884,2111542,0
1712022062613,1712022055924,2105358,0
1712022062613,1712022055965,2094348,0
1712022062613,1712022056005,2090202,0
1712022062613,1712022056045,2092401,0
1712022062613,1712022056085,2097419,0
1712022062613,1712022056125,2102493,0
1712022062613,1712022056166,2105260,0
1712022062613,1712022056205,2106553,0
1712022062613,1712022056246,2108731,0
1712022062613,1712022056286,2112158,0
1712022062613,1712022056326,2116508,0
1712022062613,1712022056367,2121443,0
1712022062613,1712022056406,2126949,0
1712022062613,1712022056446,2133800,0
1712022062613,1712022056486,2143389,0
1712022062613,1712022056526,2154288,0
1712022062613,1712022056567,2164843,0
1712022062613,1712022056607,2168100,0
1712022062613,1712022056647,2162552,0
1712022062613,1712022056687,2159959,0
1712022062613,1712022056727,2160958,0
1712022062613,1712022056768,2162248,0
1712022062613,1712022056807,2162989,0
1712022062613,1712022056848,2162211,0
1712022062613,1712022056888,2160785,0
1712022062613,1712022056928,2160478,0
1712022062613,1712022056969,2161792,0
1712022062613,1712022057008,2164619,0
1712022062613,1712022057048,2167770,0
1712022062613,1712022057089,2171172,0
1712022062613,1712022057129,2174695,0
1712022062613,1712022057169,2178043,0
1712022062613,1712022057209,2181636,0
1712022062613,1712022057249,2183871,0
1712022062613,1712022057289,2175699,0
1712022062613,1712022057329,2164528,0
1712022062613,1712022057370,2160181,0
1712022062613,1712022057410,2161524,0
1712022062613,1712022057450,2165001,0
1712022062613,1712022057490,2168734,0
1712022062613,1712022057530,2170088,0
1712022062613,1712022057571,2170250,0
1712022062613,1712022057610,2171258,0
1712022062613,1712022057651,2173540,0
1712022062613,1712022057691,2176507,0
1712022062613,1712022057731,2180077,0
1712022062613,1712022057772,2183800,0
1712022062613,1712022057811,2187760,0
1712022062613,1712022057851,2191867,0
1712022062613,1712022057892,2195731,0
1712022062613,1712022057932,2196329,0
1712022062613,1712022057973,2184216,0
1712022062613,1712022058012,2171636,0
1712022062613,1712022058052,2166783,0
1712022062613,1712022058092,2166905,0
1712022062613,1712022058132,2169363,0
1712022062613,1712022058173,2170875,0
1712022062613,1712022058212,2169710,0
1712022062613,1712022058252,2167478,0
1712022062613,1712022058293,2167129,0
1712022062613,1712022058333,2168210,0
1712022062613,1712022058373,2170382,0
1712022062613,1712022058413,2173059,0
1712022062613,1712022058453,2176091,0
1712022062613,1712022058493,2179361,0
1712022062613,1712022058533,2182755,0
1712022062613,1712022058574,2186192,0
1712022062613,1712022058613,2184587,0
1712022062613,1712022058654,2171401,0
1712022062613,1712022058694,2159898,0
1712022062613,1712022058734,2155577,0
1712022062613,1712022058775,2155542,0
1712022062613,1712022058814,2156851,0
1712022062613,1712022058854,2156495,0
1712022062613,1712022058894,2153607,0
1712022062613,1712022058934,2150947,0
1712022062613,1712022058975,2150457,0
1712022062613,1712022059015,2151993,0
1712022062613,1712022059055,2154600,0
1712022062613,1712022059095,2157895,0
1712022062613,1712022059135,2161198,0
1712022062613,1712022059176,2164290,0
1712022062613,1712022059215,2167392,0
1712022062613,1712022059255,2168741,0
1712022062613,1712022059295,2155819,0
1712022062613,1712022059335,2139047,0
1712022062613,1712022059376,2130817,0
1712022062613,1712022059416,2127876,0
1712022062613,1712022059456,2128946,0
1712022062613,1712022059496,2131371,0
1712022062613,1712022059536,2131185,0
1712022062613,1712022059577,2128941,0
1712022062613,1712022059616,2128126,0
1712022062613,1712022059656,2128857,0
1712022062613,1712022059696,2130121,0
1712022062613,1712022059737,2131948,0
1712022062613,1712022059777,2134035,0
1712022062613,1712022059817,2136071,0
1712022062613,1712022059857,2138227,0
1712022062613,1712022059897,2136892,0
1712022062613,1712022059937,2119858,0
1712022062613,1712022059978,2102033,0
1712022062613,1712022060017,2093699,0
1712022062613,1712022060057,2091469,0
1712022062613,1712022060098,2091849,0
1712022062613,1712022060138,2092373,0
1712022062613,1712022060179,2090802,0
1712022062613,1712022060218,2088723,0
1712022062613,1712022060258,2088342,0
1712022062613,1712022060298,2089968,0
1712022062613,1712022060339,2092866,0
1712022062613,1712022060379,2096130,0
1712022062613,1712022060419,2099428,0
1712022062613,1712022060459,2102779,0
1712022062613,1712022060499,2105421,0
1712022062613,1712022060539,2095878,0
1712022062613,1712022060580,2077309,0
1712022062613,1712022060619,2067681,0
1712022062613,1712022060659,2067860,0
1712022062613,1712022060700,2072898,0
1712022062613,1712022060740,2080657,0
1712022062613,1712022060780,2086666,0
1712022062613,1712022060820,2089584,0
1712022062613,1712022060860,2090476,0
1712022062613,1712022060900,2091924,0
1712022062613,1712022060940,2093749,0
1712022062613,1712022060981,2095556,0
1712022062613,1712022061021,2097396,0
1712022062613,1712022061061,2099864,0
1712022062613,1712022061101,2102355,0
1712022062613,1712022061141,2096467,0
1712022062613,1712022061182,2078241,0
1712022062613,1712022061221,2065782,0
1712022062613,1712022061261,2061035,0
1712022062613,1712022061302,2059618,0
1712022062613,1712022061342,2060148,0
1712022062613,1712022061382,2060869,0
1712022062613,1712022061422,2060356,0
1712022062613,1712022061462,2060507,0
1712022062613,1712022061502,2062339,0
1712022062613,1712022061542,2065241,0
1712022062613,1712022061583,2068925,0
1712022062613,1712022061622,2072743,0
1712022062613,1712022061663,2076661,0
1712022062613,1712022061703,2080553,0
1712022062613,1712022061743,2074153,0
1712022062613,1712022061784,2058730,0
1712022062613,1712022061823,2050248,0
1712022062613,1712022061863,2048508,0
1712022062613,1712022061903,2049389,0
1712022062613,1712022061943,2051723,0
1712022062613,1712022061984,2053770,0
1712022062613,1712022062024,2054882,0
1712022062613,1712022062064,2056677,0
1712022062613,1712022062104,2059720,0
1712022062613,1712022062144,2063763,0
1712022062613,1712022062185,2068352,0
1712022062613,1712022062224,2073050,0
1712022062613,1712022062265,2077546,0
1712022062613,1712022062305,2082246,0
1712022062613,1712022062345,2079241,0
1712022062613,1712022062386,2064212,0
1712022062613,1712022062425,2054390,0
1712022062613,1712022062465,2052058,0
1712022062613,1712022062506,2052778,0
1712022074631,1712022062547,2054991,0
1712022074631,1712022062587,2057228,0
1712022074631,1712022062627,2058620,0
1712022074631,1712022062667,2060231,0
1712022074631,1712022062707,2063023,0
1712022074631,1712022062747,2067031,0
1712022074631,1712022062788,2071652,0
1712022074631,1712022062828,2076550,0
1712022074631,1712022062868,2081400,0
1712022074631,1712022062908,2086053,0
1712022074631,1712022062948,2090475,0
1712022074631,1712022062989,2084013,0
1712022074631,1712022063028,2069839,0
1712022074631,1712022063068,2062603,0
1712022074631,1712022063109,2061868,0
1712022074631,1712022063149,2063034,0
1712022074631,1712022063189,2065555,0
1712022074631,1712022063229,2067989,0
1712022074631,1712022063269,2069744,0
1712022074631,1712022063309,2071876,0
1712022074631,1712022063349,2074969,0
1712022074631,1712022063390,2078990,0
1712022074631,1712022063430,2083321,0
1712022074631,1712022063470,2087433,0
1712022074631,1712022063510,2091165,0
1712022074631,1712022063550,2094723,0
1712022074631,1712022063591,2098362,0
1712022074631,1712022063630,2093586,0
1712022074631,1712022063671,2079115,0
1712022074631,1712022063711,2070428,0
1712022074631,1712022063751,2068202,0
1712022074631,1712022063792,2068297,0
1712022074631,1712022063831,2069926,0
1712022074631,1712022063871,2074187,0
1712022074631,1712022063911,2076326,0
1712022074631,1712022063951,2079342,0
1712022074631,1712022063992,2083432,0
1712022074631,1712022064032,2088154,0
1712022074631,1712022064072,2092933,0
1712022074631,1712022064112,2097386,0
1712022074631,1712022064152,2101984,0
1712022074631,1712022064193,2106355,0
1712022074631,1712022064232,2110599,0
1712022074631,1712022064272,2105504,0
1712022074631,1712022064312,2091488,0
1712022074631,1712022064352,2083676,0
1712022074631,1712022064393,2081817,0
1712022074631,1712022064432,2081592,0
1712022074631,1712022064473,2082758,0
1712022074631,1712022064513,2084943,0
1712022074631,1712022064553,2086830,0
1712022074631,1712022064594,2088693,0
1712022074631,1712022064633,2091623,0
1712022074631,1712022064673,2095503,0
1712022074631,1712022064713,2100041,0
1712022074631,1712022064753,2104594,0
1712022074631,1712022064794,2109239,0
1712022074631,1712022064833,2113985,0
1712022074631,1712022064874,2118873,0
1712022074631,1712022064914,2123542,0
1712022074631,1712022064954,2128295,0
1712022074631,1712022064995,2132872,0
1712022074631,1712022065034,2137553,0
1712022074631,1712022065074,2142325,0
1712022074631,1712022065114,2146634,0
1712022074631,1712022065155,2140042,0
1712022074631,1712022065195,2125094,0
1712022074631,1712022065234,2117352,0
1712022074631,1712022065275,2115381,0
1712022074631,1712022065315,2114644,0
1712022074631,1712022065355,2115004,0
1712022074631,1712022065396,2116416,0
1712022074631,1712022065435,2117473,0
1712022074631,1712022065475,2118748,0
1712022074631,1712022065515,2120918,0
1712022074631,1712022065555,2124147,0
1712022074631,1712022065596,2127844,0
1712022074631,1712022065636,2131765,0
1712022074631,1712022065676,2135866,0
1712022074631,1712022065716,2139832,0
1712022074631,1712022065756,2143868,0
1712022074631,1712022065797,2147981,0
1712022074631,1712022065836,2152089,0
1712022074631,1712022065876,2156562,0
1712022074631,1712022065916,2160742,0
1712022074631,1712022065956,2165232,0
1712022074631,1712022065997,2169466,0
1712022074631,1712022066037,2173810,0
1712022074631,1712022066077,2176276,0
1712022074631,1712022066117,2165500,0
1712022074631,1712022066157,2153267,0
1712022074631,1712022066198,2148362,0
1712022074631,1712022066237,2147259,0
1712022074631,1712022066277,2147394,0
1712022074631,1712022066317,2148423,0
1712022074631,1712022066358,2149101,0
1712022074631,1712022066398,2149595,0
1712022074631,1712022066438,2150740,0
1712022074631,1712022066478,2153086,0
1712022074631,1712022066518,2156306,0
1712022074631,1712022066558,2160223,0
1712022074631,1712022066599,2164140,0
1712022074631,1712022066638,2168140,0
1712022074631,1712022066679,2171990,0
1712022074631,1712022066719,2175576,0
1712022074631,1712022066759,2179260,0
1712022074631,1712022066800,2182991,0
1712022074631,1712022066839,2186668,0
1712022074631,1712022066879,2190638,0
1712022074631,1712022066919,2194255,0
1712022074631,1712022066960,2198081,0
1712022074631,1712022067000,2201817,0
1712022074631,1712022067040,2199372,0
1712022074631,1712022067080,2186815,0
1712022074631,1712022067120,2177763,0
1712022074631,1712022067160,2174987,0
1712022074631,1712022067201,2174902,0
1712022074631,1712022067240,2176151,0
1712022074631,1712022067281,2177297,0
1712022074631,1712022067321,2177270,0
1712022074631,1712022067361,2177131,0
1712022074631,1712022067402,2178009,0
1712022074631,1712022067441,2179873,0
1712022074631,1712022067481,2182695,0
1712022074631,1712022067521,2185733,0
1712022074631,1712022067562,2188941,0
1712022074631,1712022067602,2192253,0
1712022074631,1712022067642,2195689,0
1712022074631,1712022067682,2199080,0
1712022074631,1712022067722,2202599,0
1712022074631,1712022067762,2206190,0
1712022074631,1712022067803,2209948,0
1712022074631,1712022067842,2213838,0
1712022074631,1712022067883,2216711,0
1712022074631,1712022067923,2209892,0
1712022074631,1712022067963,2199578,0
1712022074631,1712022068004,2194714,0
1712022074631,1712022068043,2194305,0
1712022074631,1712022068083,2195741,0
1712022074631,1712022068123,2197916,0
1712022074631,1712022068164,2198867,0
1712022074631,1712022068204,2198601,0
1712022074631,1712022068244,2198570,0
1712022074631,1712022068284,2199580,0
1712022074631,1712022068324,2201576,0
1712022074631,1712022068364,2204030,0
1712022074631,1712022068405,2206673,0
1712022074631,1712022068444,2209451,0
1712022074631,1712022068485,2212441,0
1712022074631,1712022068525,2215403,0
1712022074631,1712022068565,2218432,0
1712022074631,1712022068606,2221598,0
1712022074631,1712022068645,2224746,0
1712022074631,1712022068685,2223065,0
1712022074631,1712022068726,2212664,0
1712022074631,1712022068766,2205106,0
1712022074631,1712022068807,2202543,0
1712022074631,1712022068846,2202950,0
1712022074631,1712022068886,2204257,0
1712022074631,1712022068926,2205651,0
1712022074631,1712022068966,2205717,0
1712022074631,1712022069007,2204960,0
1712022074631,1712022069047,2204903,0
1712022074631,1712022069087,2205866,0
1712022074631,1712022069127,2207541,0
1712022074631,1712022069167,2209791,0
1712022074631,1712022069208,2212429,0
1712022074631,1712022069248,2215039,0
1712022074631,1712022069288,2217858,0
1712022074631,1712022069328,2221181,0
1712022074631,1712022069368,2224245,0
1712022074631,1712022069409,2227279,0
1712022074631,1712022069448,2224055,0
1712022074631,1712022069489,2211636,0
1712022074631,1712022069529,2200857,0
1712022074631,1712022069569,2195592,0
1712022074631,1712022069610,2193425,0
1712022074631,1712022069649,2192627,0
1712022074631,1712022069689,2192127,0
1712022074631,1712022069729,2190433,0
1712022074631,1712022069769,2188458,0
1712022074631,1712022069810,2187273,0
1712022074631,1712022069850,2187037,0
1712022074631,1712022069890,2187619,0
1712022074631,1712022069930,2188967,0
1712022074631,1712022069970,2190504,0
1712022074631,1712022070011,2191789,0
1712022074631,1712022070050,2193008,0
1712022074631,1712022070090,2193978,0
1712022074631,1712022070130,2195050,0
1712022074631,1712022070170,2196578,0
1712022074631,1712022070211,2196679,0
1712022074631,1712022070251,2186528,0
1712022074631,1712022070291,2173617,0
1712022074631,1712022070331,2166274,0
1712022074631,1712022070371,2163047,0
1712022074631,1712022070412,2161935,0
1712022074631,1712022070451,2161322,0
1712022074631,1712022070491,2159659,0
1712022074631,1712022070531,2157401,0
1712022074631,1712022070572,2159259,0
1712022074631,1712022070612,2163141,0
1712022074631,1712022070652,2171798,0
1712022074631,1712022070692,2188155,0
1712022074631,1712022070732,2208772,0
1712022074631,1712022070772,2225512,0
1712022074631,1712022070813,2238017,0
1712022074631,1712022070852,2246073,0
1712022074631,1712022070893,2250476,0
1712022074631,1712022070933,2253166,0
1712022074631,1712022070973,2255206,0
1712022074631,1712022071014,2254729,0
1712022074631,1712022071053,2242496,0
1712022074631,1712022071093,2229157,0
1712022074631,1712022071133,2221872,0
1712022074631,1712022071173,2219030,0
1712022074631,1712022071214,2218135,0
1712022074631,1712022071254,2217797,0
1712022074631,1712022071294,2215862,0
1712022074631,1712022071334,2213348,0
1712022074631,1712022071374,2211895,0
1712022074631,1712022071415,2211798,0
1712022074631,1712022071454,2212592,0
1712022074631,1712022071494,2214028,0
1712022074631,1712022071535,2215744,0
1712022074631,1712022071575,2217536,0
1712022074631,1712022071615,2219553,0
1712022074631,1712022071655,2221529,0
1712022074631,1712022071695,2223634,0
1712022074631,1712022071735,2225925,0
1712022074631,1712022071775,2227936,0
1712022074631,1712022071816,2222472,0
1712022074631,1712022071855,2211127,0
1712022074631,1712022071896,2204507,0
1712022074631,1712022071936,2202779,0
1712022074631,1712022071976,2203443,0
1712022074631,1712022072017,2205054,0
1712022074631,1712022072056,2205270,0
1712022074631,1712022072096,2203907,0
1712022074631,1712022072136,2203197,0
1712022074631,1712022072176,2203576,0
1712022074631,1712022072217,2204936,0
1712022074631,1712022072257,2207098,0
1712022074631,1712022072297,2209330,0
1712022074631,1712022072337,2211865,0
1712022074631,1712022072377,2214384,0
1712022074631,1712022072418,2217139,0
1712022074631,1712022072457,2219762,0
1712022074631,1712022072498,2222756,0
1712022074631,1712022072538,2223462,0
1712022074631,1712022072578,2214781,0
1712022074631,1712022072619,2206444,0
1712022074631,1712022072658,2203363,0
1712022074631,1712022072698,2203879,0
1712022074631,1712022072739,2205993,0
1712022074631,1712022072779,2207931,0
1712022074631,1712022072819,2207984,0
1712022074631,1712022072859,2207305,0
1712022074631,1712022072899,2207805,0
1712022074631,1712022072939,2209194,0
1712022074631,1712022072980,2211353,0
1712022074631,1712022073020,2213977,0
1712022074631,1712022073060,2216723,0
1712022074631,1712022073100,2219695,0
1712022074631,1712022073140,2222445,0
1712022074631,1712022073180,2225323,0
1712022074631,1712022073221,2228198,0
1712022074631,1712022073260,2227660,0
1712022074631,1712022073300,2218788,0
1712022074631,1712022073341,2211861,0
1712022074631,1712022073381,2209738,0
1712022074631,1712022073422,2210888,0
1712022074631,1712022073461,2213103,0
1712022074631,1712022073501,2214361,0
1712022074631,1712022073541,2213768,0
1712022074631,1712022073582,2213178,0
1712022074631,1712022073622,2213548,0
1712022074631,1712022073662,2214702,0
1712022074631,1712022073702,2216681,0
1712022074631,1712022073742,2218977,0
1712022074631,1712022073782,2221375,0
1712022074631,1712022073823,2223778,0
1712022074631,1712022073863,2226117,0
1712022074631,1712022073903,2228416,0
1712022074631,1712022073943,2225832,0
1712022074631,1712022073983,2215627,0
1712022074631,1712022074024,2207975,0
1712022074631,1712022074063,2205239,0
1712022074631,1712022074104,2205230,0
1712022074631,1712022074144,2206165,0
1712022074631,1712022074184,2205944,0
1712022074631,1712022074225,2204414,0
1712022074631,1712022074264,2203149,0
1712022074631,1712022074305,2203155,0
1712022074631,1712022074345,2204190,0
1712022074631,1712022074385,2205854,0
1712022074631,1712022074426,2207770,0
1712022074631,1712022074465,2209640,0
1712022074631,1712022074505,2211654,0
1712022074631,1712022074546,2213531,0
1712022086674,1712022074586,2215323,0
1712022086674,1712022074626,2209155,0
1712022086674,1712022074666,2196740,0
1712022086674,1712022074706,2188468,0
1712022086674,1712022074746,2184932,0
1712022086674,1712022074787,2182866,0
1712022086674,1712022074827,2181790,0
1712022086674,1712022074867,2180267,0
1712022086674,1712022074907,2178148,0
1712022086674,1712022074947,2176777,0
1712022086674,1712022074987,2177427,0
1712022086674,1712022075028,2178967,0
1712022086674,1712022075068,2180742,0
1712022086674,1712022075108,2182510,0
1712022086674,1712022075148,2184345,0
1712022086674,1712022075188,2186321,0
1712022086674,1712022075229,2188564,0
1712022086674,1712022075268,2190643,0
1712022086674,1712022075308,2183970,0
1712022086674,1712022075348,2170839,0
1712022086674,1712022075389,2162741,0
1712022086674,1712022075429,2159088,0
1712022086674,1712022075469,2156930,0
1712022086674,1712022075509,2155623,0
1712022086674,1712022075549,2154617,0
1712022086674,1712022075589,2153332,0
1712022086674,1712022075630,2152716,0
1712022086674,1712022075669,2153275,0
1712022086674,1712022075709,2154803,0
1712022086674,1712022075750,2156903,0
1712022086674,1712022075790,2159290,0
1712022086674,1712022075830,2161856,0
1712022086674,1712022075870,2164348,0
1712022086674,1712022075910,2167135,0
1712022086674,1712022075950,2170037,0
1712022086674,1712022075990,2173150,0
1712022086674,1712022076031,2176358,0
1712022086674,1712022076070,2179720,0
1712022086674,1712022076111,2183228,0
1712022086674,1712022076151,2186556,0
1712022086674,1712022076191,2189660,0
1712022086674,1712022076232,2182615,0
1712022086674,1712022076271,2169555,0
1712022086674,1712022076311,2162769,0
1712022086674,1712022076351,2160294,0
1712022086674,1712022076391,2159278,0
1712022086674,1712022076432,2158911,0
1712022086674,1712022076472,2158094,0
1712022086674,1712022076512,2157105,0
1712022086674,1712022076552,2157043,0
1712022086674,1712022076592,2158209,0
1712022086674,1712022076633,2160315,0
1712022086674,1712022076672,2162801,0
1712022086674,1712022076712,2165568,0
1712022086674,1712022076752,2168331,0
1712022086674,1712022076793,2171106,0
1712022086674,1712022076833,2174085,0
1712022086674,1712022076873,2177085,0
1712022086674,1712022076913,2180436,0
1712022086674,1712022076953,2183894,0
1712022086674,1712022076993,2187330,0
1712022086674,1712022077034,2190900,0
1712022086674,1712022077073,2194398,0
1712022086674,1712022077113,2197946,0
1712022086674,1712022077154,2194401,0
1712022086674,1712022077194,2183351,0
1712022086674,1712022077234,2176672,0
1712022086674,1712022077274,2174580,0
1712022086674,1712022077314,2174095,0
1712022086674,1712022077354,2174055,0
1712022086674,1712022077394,2174018,0
1712022086674,1712022077435,2173365,0
1712022086674,1712022077475,2173271,0
1712022086674,1712022077515,2174401,0
1712022086674,1712022077555,2176375,0
1712022086674,1712022077595,2178879,0
1712022086674,1712022077636,2181684,0
1712022086674,1712022077675,2184586,0
1712022086674,1712022077715,2187562,0
1712022086674,1712022077756,2190579,0
1712022086674,1712022077796,2193804,0
1712022086674,1712022077836,2197235,0
1712022086674,1712022077876,2200636,0
1712022086674,1712022077916,2204222,0
1712022086674,1712022077956,2207800,0
1712022086674,1712022077996,2211424,0
1712022086674,1712022078037,2214296,0
1712022086674,1712022078077,2207992,0
1712022086674,1712022078117,2198736,0
1712022086674,1712022078157,2194116,0
1712022086674,1712022078197,2193117,0
1712022086674,1712022078238,2193221,0
1712022086674,1712022078277,2193787,0
1712022086674,1712022078317,2193535,0
1712022086674,1712022078358,2192716,0
1712022086674,1712022078398,2192821,0
1712022086674,1712022078438,2194070,0
1712022086674,1712022078478,2196116,0
1712022086674,1712022078518,2198517,0
1712022086674,1712022078558,2201066,0
1712022086674,1712022078598,2203616,0
1712022086674,1712022078639,2206266,0
1712022086674,1712022078679,2208859,0
1712022086674,1712022078719,2211552,0
1712022086674,1712022078759,2214266,0
1712022086674,1712022078799,2217266,0
1712022086674,1712022078840,2220202,0
1712022086674,1712022078880,2223279,0
1712022086674,1712022078920,2224088,0
1712022086674,1712022078960,2215570,0
1712022086674,1712022079000,2206241,0
1712022086674,1712022079041,2201885,0
1712022086674,1712022079080,2200594,0
1712022086674,1712022079121,2200238,0
1712022086674,1712022079161,2200235,0
1712022086674,1712022079201,2199197,0
1712022086674,1712022079242,2197980,0
1712022086674,1712022079281,2197642,0
1712022086674,1712022079321,2198567,0
1712022086674,1712022079362,2200008,0
1712022086674,1712022079402,2201994,0
1712022086674,1712022079443,2204292,0
1712022086674,1712022079482,2206454,0
1712022086674,1712022079522,2208776,0
1712022086674,1712022079562,2211312,0
1712022086674,1712022079603,2213923,0
1712022086674,1712022079643,2216702,0
1712022086674,1712022079683,2219680,0
1712022086674,1712022079723,2222582,0
1712022086674,1712022079763,2225733,0
1712022086674,1712022079803,2223386,0
1712022086674,1712022079844,2212632,0
1712022086674,1712022079884,2204393,0
1712022086674,1712022079924,2200693,0
1712022086674,1712022079964,2199020,0
1712022086674,1712022080004,2197698,0
1712022086674,1712022080045,2196873,0
1712022086674,1712022080085,2195383,0
1712022086674,1712022080125,2194108,0
1712022086674,1712022080165,2193761,0
1712022086674,1712022080205,2194446,0
1712022086674,1712022080246,2195971,0
1712022086674,1712022080286,2197860,0
1712022086674,1712022080326,2199890,0
1712022086674,1712022080366,2201970,0
1712022086674,1712022080406,2204313,0
1712022086674,1712022080447,2206696,0
1712022086674,1712022080486,2209440,0
1712022086674,1712022080526,2212339,0
1712022086674,1712022080566,2215236,0
1712022086674,1712022080606,2218392,0
1712022086674,1712022080647,2220306,0
1712022086674,1712022080687,2212439,0
1712022086674,1712022080727,2202056,0
1712022086674,1712022080767,2196388,0
1712022086674,1712022080807,2194031,0
1712022086674,1712022080848,2192953,0
1712022086674,1712022080887,2192365,0
1712022086674,1712022080928,2191552,0
1712022086674,1712022080968,2190445,0
1712022086674,1712022081008,2190004,0
1712022086674,1712022081049,2190893,0
1712022086674,1712022081088,2192474,0
1712022086674,1712022081128,2194796,0
1712022086674,1712022081168,2197138,0
1712022086674,1712022081208,2199796,0
1712022086674,1712022081249,2202538,0
1712022086674,1712022081289,2205265,0
1712022086674,1712022081329,2208278,0
1712022086674,1712022081369,2211335,0
1712022086674,1712022081409,2214507,0
1712022086674,1712022081450,2218000,0
1712022086674,1712022081489,2217921,0
1712022086674,1712022081529,2208582,0
1712022086674,1712022081569,2199941,0
1712022086674,1712022081609,2196526,0
1712022086674,1712022081650,2195663,0
1712022086674,1712022081690,2195619,0
1712022086674,1712022081730,2195972,0
1712022086674,1712022081770,2195105,0
1712022086674,1712022081810,2194164,0
1712022086674,1712022081851,2194327,0
1712022086674,1712022081890,2195231,0
1712022086674,1712022081930,2197215,0
1712022086674,1712022081970,2199405,0
1712022086674,1712022082011,2201913,0
1712022086674,1712022082051,2204300,0
1712022086674,1712022082091,2206865,0
1712022086674,1712022082131,2209384,0
1712022086674,1712022082171,2212022,0
1712022086674,1712022082211,2214900,0
1712022086674,1712022082252,2215939,0
1712022086674,1712022082291,2207653,0
1712022086674,1712022082332,2198245,0
1712022086674,1712022082372,2193705,0
1712022086674,1712022082412,2192520,0
1712022086674,1712022082453,2192412,0
1712022086674,1712022082492,2193000,0
1712022086674,1712022082532,2192645,0
1712022086674,1712022082572,2191708,0
1712022086674,1712022082613,2191785,0
1712022086674,1712022082653,2192791,0
1712022086674,1712022082693,2194883,0
1712022086674,1712022082733,2197260,0
1712022086674,1712022082773,2199893,0
1712022086674,1712022082813,2202540,0
1712022086674,1712022082854,2205159,0
1712022086674,1712022082893,2207697,0
1712022086674,1712022082933,2210555,0
1712022086674,1712022082974,2212559,0
1712022086674,1712022083014,2205338,0
1712022086674,1712022083055,2195212,0
1712022086674,1712022083094,2189752,0
1712022086674,1712022083134,2187831,0
1712022086674,1712022083174,2186930,0
1712022086674,1712022083215,2186880,0
1712022086674,1712022083255,2186559,0
1712022086674,1712022083295,2186134,0
1712022086674,1712022083335,2186153,0
1712022086674,1712022083375,2187386,0
1712022086674,1712022083415,2189619,0
1712022086674,1712022083456,2192279,0
1712022086674,1712022083495,2195053,0
1712022086674,1712022083535,2198095,0
1712022086674,1712022083576,2201015,0
1712022086674,1712022083616,2204066,0
1712022086674,1712022083657,2207280,0
1712022086674,1712022083696,2210786,0
1712022086674,1712022083736,2213045,0
1712022086674,1712022083776,2205546,0
1712022086674,1712022083817,2196241,0
1712022086674,1712022083857,2191899,0
1712022086674,1712022083897,2190415,0
1712022086674,1712022083937,2189802,0
1712022086674,1712022083977,2189897,0
1712022086674,1712022084017,2190130,0
1712022086674,1712022084058,2190362,0
1712022086674,1712022084097,2191125,0
1712022086674,1712022084138,2192840,0
1712022086674,1712022084178,2195297,0
1712022086674,1712022084218,2198268,0
1712022086674,1712022084259,2201359,0
1712022086674,1712022084298,2204557,0
1712022086674,1712022084338,2207806,0
1712022086674,1712022084378,2211206,0
1712022086674,1712022084419,2214772,0
1712022086674,1712022084459,2218202,0
1712022086674,1712022084499,2221956,0
1712022086674,1712022084539,2224464,0
1712022086674,1712022084579,2217845,0
1712022086674,1712022084620,2209816,0
1712022086674,1712022084660,2206604,0
1712022086674,1712022084700,2206100,0
1712022086674,1712022084740,2206178,0
1712022086674,1712022084780,2207073,0
1712022086674,1712022084820,2207400,0
1712022086674,1712022084861,2207839,0
1712022086674,1712022084901,2208779,0
1712022086674,1712022084941,2210689,0
1712022086674,1712022084981,2213270,0
1712022086674,1712022085021,2216144,0
1712022086674,1712022085062,2219213,0
1712022086674,1712022085101,2222428,0
1712022086674,1712022085142,2225560,0
1712022086674,1712022085182,2228839,0
1712022086674,1712022085222,2232274,0
1712022086674,1712022085263,2235782,0
1712022086674,1712022085302,2239288,0
1712022086674,1712022085342,2243058,0
1712022086674,1712022085383,2240638,0
1712022086674,1712022085423,2233100,0
1712022086674,1712022085463,2229312,0
1712022086674,1712022085503,2228862,0
1712022086674,1712022085543,2229736,0
1712022086674,1712022085583,2231195,0
1712022086674,1712022085624,2232217,0
1712022086674,1712022085664,2232634,0
1712022086674,1712022085704,2233378,0
1712022086674,1712022085744,2235163,0
1712022086674,1712022085784,2240664,0
1712022086674,1712022085824,2243623,0
1712022086674,1712022085865,2246799,0
1712022086674,1712022085904,2249781,0
1712022086674,1712022085944,2253101,0
1712022086674,1712022085984,2256259,0
1712022086674,1712022086024,2259619,0
1712022086674,1712022086065,2262977,0
1712022086674,1712022086105,2266502,0
1712022086674,1712022086145,2267087,0
1712022086674,1712022086185,2260865,0
1712022086674,1712022086225,2256434,0
1712022086674,1712022086266,2255890,0
1712022086674,1712022086305,2257086,0
1712022086674,1712022086345,2258959,0
1712022086674,1712022086385,2260240,0
1712022086674,1712022086425,2260569,0
1712022086674,1712022086466,2260937,0
1712022086674,1712022086506,2262114,0
1712022086674,1712022086546,2264136,0
1712022086674,1712022086586,2266341,0
1712022098711,1712022086625,2268853,0
1712022098711,1712022086666,2271456,0
1712022098711,1712022086705,2273934,0
1712022098711,1712022086745,2276388,0
1712022098711,1712022086786,2278905,0
1712022098711,1712022086826,2281580,0
1712022098711,1712022086866,2284238,0
1712022098711,1712022086906,2285321,0
1712022098711,1712022086946,2279534,0
1712022098711,1712022086986,2273496,0
1712022098711,1712022087026,2271322,0
1712022098711,1712022087067,2271301,0
1712022098711,1712022087106,2271863,0
1712022098711,1712022087146,2272326,0
1712022098711,1712022087187,2271683,0
1712022098711,1712022087227,2270856,0
1712022098711,1712022087268,2270752,0
1712022098711,1712022087307,2271540,0
1712022098711,1712022087347,2272780,0
1712022098711,1712022087387,2274416,0
1712022098711,1712022087428,2276093,0
1712022098711,1712022087468,2277927,0
1712022098711,1712022087508,2279894,0
1712022098711,1712022087548,2281760,0
1712022098711,1712022087588,2283789,0
1712022098711,1712022087628,2285042,0
1712022098711,1712022087669,2277592,0
1712022098711,1712022087708,2268225,0
1712022098711,1712022087748,2262785,0
1712022098711,1712022087789,2259895,0
1712022098711,1712022087829,2257617,0
1712022098711,1712022087870,2255923,0
1712022098711,1712022087909,2253755,0
1712022098711,1712022087949,2251260,0
1712022098711,1712022087989,2249551,0
1712022098711,1712022088029,2248789,0
1712022098711,1712022088070,2249028,0
1712022098711,1712022088110,2249644,0
1712022098711,1712022088150,2250529,0
1712022098711,1712022088190,2251531,0
1712022098711,1712022088230,2252749,0
1712022098711,1712022088271,2254165,0
1712022098711,1712022088310,2255757,0
1712022098711,1712022088350,2257296,0
1712022098711,1712022088391,2257967,0
1712022098711,1712022088431,2248033,0
1712022098711,1712022088472,2234741,0
1712022098711,1712022088511,2226442,0
1712022098711,1712022088551,2221892,0
1712022098711,1712022088591,2218236,0
1712022098711,1712022088631,2215429,0
1712022098711,1712022088672,2212126,0
1712022098711,1712022088712,2208829,0
1712022098711,1712022088752,2206564,0
1712022098711,1712022088792,2205457,0
1712022098711,1712022088832,2205639,0
1712022098711,1712022088873,2206291,0
1712022098711,1712022088912,2207139,0
1712022098711,1712022088952,2208573,0
1712022098711,1712022088993,2209850,0
1712022098711,1712022089033,2211437,0
1712022098711,1712022089074,2213383,0
1712022098711,1712022089113,2215316,0
1712022098711,1712022089153,2217648,0
1712022098711,1712022089193,2219637,0
1712022098711,1712022089234,2211335,0
1712022098711,1712022089274,2197253,0
1712022098711,1712022089314,2188765,0
1712022098711,1712022089354,2185110,0
1712022098711,1712022089394,2183388,0
1712022098711,1712022089434,2182526,0
1712022098711,1712022089475,2180987,0
1712022098711,1712022089514,2178930,0
1712022098711,1712022089554,2177827,0
1712022098711,1712022089595,2178311,0
1712022098711,1712022089635,2179744,0
1712022098711,1712022089675,2181900,0
1712022098711,1712022089715,2184176,0
1712022098711,1712022089755,2186802,0
1712022098711,1712022089795,2189380,0
1712022098711,1712022089835,2192150,0
1712022098711,1712022089876,2195026,0
1712022098711,1712022089915,2198131,0
1712022098711,1712022089956,2201520,0
1712022098711,1712022089996,2204733,0
1712022098711,1712022090036,2199407,0
1712022098711,1712022090077,2188102,0
1712022098711,1712022090116,2181646,0
1712022098711,1712022090156,2179991,0
1712022098711,1712022090197,2180288,0
1712022098711,1712022090237,2181472,0
1712022098711,1712022090277,2181733,0
1712022098711,1712022090317,2181346,0
1712022098711,1712022090357,2181848,0
1712022098711,1712022090397,2183494,0
1712022098711,1712022090437,2186115,0
1712022098711,1712022090478,2189317,0
1712022098711,1712022090518,2192716,0
1712022098711,1712022090558,2196268,0
1712022098711,1712022090598,2199671,0
1712022098711,1712022090638,2203347,0
1712022098711,1712022090679,2207029,0
1712022098711,1712022090718,2210866,0
1712022098711,1712022090759,2214808,0
1712022098711,1712022090799,2217671,0
1712022098711,1712022090839,2211261,0
1712022098711,1712022090880,2203736,0
1712022098711,1712022090919,2200756,0
1712022098711,1712022090959,2201272,0
1712022098711,1712022090999,2202909,0
1712022098711,1712022091040,2204703,0
1712022098711,1712022091080,2205091,0
1712022098711,1712022091120,2205345,0
1712022098711,1712022091160,2206432,0
1712022098711,1712022091200,2208658,0
1712022098711,1712022091240,2211510,0
1712022098711,1712022091281,2214643,0
1712022098711,1712022091321,2217789,0
1712022098711,1712022091361,2221008,0
1712022098711,1712022091401,2224349,0
1712022098711,1712022091441,2227625,0
1712022098711,1712022091482,2231043,0
1712022098711,1712022091521,2234609,0
1712022098711,1712022091561,2234529,0
1712022098711,1712022091601,2227203,0
1712022098711,1712022091642,2221783,0
1712022098711,1712022091682,2220424,0
1712022098711,1712022091722,2220853,0
1712022098711,1712022091762,2221784,0
1712022098711,1712022091802,2222727,0
1712022098711,1712022091842,2222866,0
1712022098711,1712022091883,2223445,0
1712022098711,1712022091922,2224858,0
1712022098711,1712022091962,2227114,0
1712022098711,1712022092003,2229710,0
1712022098711,1712022092043,2232537,0
1712022098711,1712022092083,2235591,0
1712022098711,1712022092123,2238579,0
1712022098711,1712022092163,2241575,0
1712022098711,1712022092203,2244713,0
1712022098711,1712022092243,2248066,0
1712022098711,1712022092284,2250804,0
1712022098711,1712022092323,2246202,0
1712022098711,1712022092364,2239390,0
1712022098711,1712022092404,2236249,0
1712022098711,1712022092444,2235489,0
1712022098711,1712022092485,2235649,0
1712022098711,1712022092524,2236027,0
1712022098711,1712022092564,2236165,0
1712022098711,1712022092604,2236115,0
1712022098711,1712022092644,2236836,0
1712022098711,1712022092685,2238353,0
1712022098711,1712022092725,2240409,0
1712022098711,1712022092765,2242772,0
1712022098711,1712022092805,2245241,0
1712022098711,1712022092845,2247931,0
1712022098711,1712022092886,2250592,0
1712022098711,1712022092925,2253392,0
1712022098711,1712022092965,2256179,0
1712022098711,1712022093005,2259342,0
1712022098711,1712022093045,2259815,0
1712022098711,1712022093086,2253011,0
1712022098711,1712022093126,2247576,0
1712022098711,1712022093166,2245738,0
1712022098711,1712022093206,2245516,0
1712022098711,1712022093246,2245651,0
1712022098711,1712022093287,2245955,0
1712022098711,1712022093326,2245683,0
1712022098711,1712022093366,2245710,0
1712022098711,1712022093406,2246664,0
1712022098711,1712022093447,2248183,0
1712022098711,1712022093487,2250278,0
1712022098711,1712022093527,2252466,0
1712022098711,1712022093567,2254753,0
1712022098711,1712022093607,2256988,0
1712022098711,1712022093650,2259397,0
1712022098711,1712022093688,2261934,0
1712022098711,1712022093727,2264516,0
1712022098711,1712022093768,2261797,0
1712022098711,1712022093808,2254657,0
1712022098711,1712022093848,2250642,0
1712022098711,1712022093889,2249565,0
1712022098711,1712022093928,2249587,0
1712022098711,1712022093968,2250206,0
1712022098711,1712022094008,2249863,0
1712022098711,1712022094049,2249279,0
1712022098711,1712022094089,2249173,0
1712022098711,1712022094129,2249949,0
1712022098711,1712022094169,2251673,0
1712022098711,1712022094209,2253435,0
1712022098711,1712022094249,2255384,0
1712022098711,1712022094290,2257386,0
1712022098711,1712022094329,2259350,0
1712022098711,1712022094369,2261697,0
1712022098711,1712022094410,2262856,0
1712022098711,1712022094450,2256185,0
1712022098711,1712022094490,2248722,0
1712022098711,1712022094530,2245321,0
1712022098711,1712022094570,2244356,0
1712022098711,1712022094610,2244394,0
1712022098711,1712022094651,2244324,0
1712022098711,1712022094691,2243379,0
1712022098711,1712022094731,2242537,0
1712022098711,1712022094771,2242603,0
1712022098711,1712022094811,2243746,0
1712022098711,1712022094851,2245531,0
1712022098711,1712022094892,2247483,0
1712022098711,1712022094931,2249450,0
1712022098711,1712022094972,2251526,0
1712022098711,1712022095012,2253879,0
1712022098711,1712022095052,2256003,0
1712022098711,1712022095093,2250210,0
1712022098711,1712022095132,2240897,0
1712022098711,1712022095172,2235790,0
1712022098711,1712022095212,2233858,0
1712022098711,1712022095253,2233270,0
1712022098711,1712022095293,2233235,0
1712022098711,1712022095333,2232124,0
1712022098711,1712022095373,2230729,0
1712022098711,1712022095413,2230166,0
1712022098711,1712022095453,2230940,0
1712022098711,1712022095494,2232395,0
1712022098711,1712022095534,2234243,0
1712022098711,1712022095574,2236123,0
1712022098711,1712022095614,2238006,0
1712022098711,1712022095654,2240169,0
1712022098711,1712022095695,2241080,0
1712022098711,1712022095734,2232817,0
1712022098711,1712022095774,2223158,0
1712022098711,1712022095815,2218220,0
1712022098711,1712022095858,2216578,0
1712022098711,1712022095896,2216079,0
1712022098711,1712022095935,2215813,0
1712022098711,1712022095975,2214294,0
1712022098711,1712022096015,2213150,0
1712022098711,1712022096056,2213075,0
1712022098711,1712022096097,2214210,0
1712022098711,1712022096136,2215940,0
1712022098711,1712022096176,2218055,0
1712022098711,1712022096216,2220213,0
1712022098711,1712022096256,2222393,0
1712022098711,1712022096297,2224721,0
1712022098711,1712022096337,2225798,0
1712022098711,1712022096377,2216638,0
1712022098711,1712022096417,2206119,0
1712022098711,1712022096457,2201059,0
1712022098711,1712022096498,2199132,0
1712022098711,1712022096538,2198257,0
1712022098711,1712022096578,2197931,0
1712022098711,1712022096618,2196988,0
1712022098711,1712022096658,2196331,0
1712022098711,1712022096699,2196756,0
1712022098711,1712022096738,2198439,0
1712022098711,1712022096778,2200839,0
1712022098711,1712022096819,2203393,0
1712022098711,1712022096859,2206233,0
1712022098711,1712022096900,2209091,0
1712022098711,1712022096939,2212047,0
1712022098711,1712022096979,2218417,0
1712022098711,1712022097019,2217554,0
1712022098711,1712022097060,2206463,0
1712022098711,1712022097100,2197975,0
1712022098711,1712022097140,2194454,0
1712022098711,1712022097180,2192586,0
1712022098711,1712022097220,2191693,0
1712022098711,1712022097260,2191558,0
1712022098711,1712022097301,2191271,0
1712022098711,1712022097340,2191453,0
1712022098711,1712022097380,2192841,0
1712022098711,1712022097420,2194960,0
1712022098711,1712022097460,2197822,0
1712022098711,1712022097501,2200891,0
1712022098711,1712022097541,2204157,0
1712022098711,1712022097581,2207488,0
1712022098711,1712022097621,2211010,0
1712022098711,1712022097661,2214731,0
1712022098711,1712022097702,2218502,0
1712022098711,1712022097741,2222255,0
1712022098711,1712022097781,2226192,0
1712022098711,1712022097821,2230117,0
1712022098711,1712022097861,2233621,0
1712022098711,1712022097902,2227196,0
1712022098711,1712022097942,2217536,0
1712022098711,1712022097982,2213285,0
1712022098711,1712022098022,2212239,0
1712022098711,1712022098065,2211750,0
1712022098711,1712022098103,2212138,0
1712022098711,1712022098142,2211985,0
1712022098711,1712022098182,2212110,0
1712022098711,1712022098222,2213100,0
1712022098711,1712022098263,2215007,0
1712022098711,1712022098303,2217554,0
1712022098711,1712022098343,2220533,0
1712022098711,1712022098383,2223679,0
1712022098711,1712022098423,2226894,0
1712022098711,1712022098463,2230136,0
1712022098711,1712022098504,2233724,0
1712022098711,1712022098543,2237298,0
1712022098711,1712022098583,2240950,0
1712022098711,1712022098624,2244715,0
1712022110722,1712022098664,2248556,0
1712022110722,1712022098704,2252509,0
1712022110722,1712022098744,2255613,0
1712022110722,1712022098784,2250297,0
1712022110722,1712022098824,2243556,0
1712022110722,1712022098864,2241207,0
1712022110722,1712022098905,2241576,0
1712022110722,1712022098944,2242524,0
1712022110722,1712022098985,2243776,0
1712022110722,1712022099025,2244281,0
1712022110722,1712022099065,2244842,0
1712022110722,1712022099106,2245992,0
1712022110722,1712022099145,2248215,0
1712022110722,1712022099185,2250911,0
1712022110722,1712022099225,2253911,0
1712022110722,1712022099265,2256999,0
1712022110722,1712022099306,2260173,0
1712022110722,1712022099346,2263348,0
1712022110722,1712022099386,2266729,0
1712022110722,1712022099426,2270207,0
1712022110722,1712022099466,2273679,0
1712022110722,1712022099507,2277199,0
1712022110722,1712022099546,2280799,0
1712022110722,1712022099586,2284180,0
1712022110722,1712022099626,2280659,0
1712022110722,1712022099667,2274866,0
1712022110722,1712022099708,2273009,0
1712022110722,1712022099747,2273788,0
1712022110722,1712022099787,2275412,0
1712022110722,1712022099827,2277202,0
1712022110722,1712022099867,2277974,0
1712022110722,1712022099908,2278062,0
1712022110722,1712022099948,2278904,0
1712022110722,1712022099988,2280720,0
1712022110722,1712022100028,2282865,0
1712022110722,1712022100068,2285341,0
1712022110722,1712022100109,2287857,0
1712022110722,1712022100148,2290277,0
1712022110722,1712022100188,2292973,0
1712022110722,1712022100228,2295366,0
1712022110722,1712022100268,2298099,0
1712022110722,1712022100309,2300610,0
1712022110722,1712022100349,2303633,0
1712022110722,1712022100389,2304963,0
1712022110722,1712022100429,2298865,0
1712022110722,1712022100469,2293106,0
1712022110722,1712022100510,2291029,0
1712022110722,1712022100549,2291046,0
1712022110722,1712022100590,2291653,0
1712022110722,1712022100630,2292224,0
1712022110722,1712022100670,2291702,0
1712022110722,1712022100711,2290936,0
1712022110722,1712022100750,2291183,0
1712022110722,1712022100790,2292085,0
1712022110722,1712022100830,2293508,0
1712022110722,1712022100871,2295293,0
1712022110722,1712022100912,2296972,0
1712022110722,1712022100951,2298730,0
1712022110722,1712022100991,2300693,0
1712022110722,1712022101031,2302612,0
1712022110722,1712022101071,2304765,0
1712022110722,1712022101112,2306940,0
1712022110722,1712022101152,2309192,0
1712022110722,1712022101192,2305219,0
1712022110722,1712022101232,2295761,0
1712022110722,1712022101272,2289130,0
1712022110722,1712022101313,2286205,0
1712022110722,1712022101352,2284039,0
1712022110722,1712022101393,2282350,0
1712022110722,1712022101433,2280582,0
1712022110722,1712022101473,2278265,0
1712022110722,1712022101514,2276484,0
1712022110722,1712022101553,2275600,0
1712022110722,1712022101593,2275610,0
1712022110722,1712022101634,2276153,0
1712022110722,1712022101674,2277006,0
1712022110722,1712022101714,2278053,0
1712022110722,1712022101754,2279174,0
1712022110722,1712022101794,2280533,0
1712022110722,1712022101834,2282073,0
1712022110722,1712022101874,2283744,0
1712022110722,1712022101915,2285514,0
1712022110722,1712022101955,2287588,0
1712022110722,1712022101995,2287259,0
1712022110722,1712022102035,2276384,0
1712022110722,1712022102075,2264869,0
1712022110722,1712022102116,2258458,0
1712022110722,1712022102155,2254928,0
1712022110722,1712022102196,2252033,0
1712022110722,1712022102236,2249530,0
1712022110722,1712022102276,2246447,0
1712022110722,1712022102317,2243379,0
1712022110722,1712022102356,2241506,0
1712022110722,1712022102396,2240823,0
1712022110722,1712022102436,2241079,0
1712022110722,1712022102477,2241755,0
1712022110722,1712022102517,2242706,0
1712022110722,1712022102557,2243893,0
1712022110722,1712022102597,2245251,0
1712022110722,1712022102637,2246833,0
1712022110722,1712022102677,2248614,0
1712022110722,1712022102718,2250584,0
1712022110722,1712022102757,2252855,0
1712022110722,1712022102797,2255157,0
1712022110722,1712022102838,2255825,0
1712022110722,1712022102878,2245189,0
1712022110722,1712022102918,2232680,0
1712022110722,1712022102958,2226159,0
1712022110722,1712022102998,2223479,0
1712022110722,1712022103038,2221835,0
1712022110722,1712022103078,2220675,0
1712022110722,1712022103119,2218507,0
1712022110722,1712022103158,2216426,0
1712022110722,1712022103198,2215505,0
1712022110722,1712022103238,2216070,0
1712022110722,1712022103279,2217316,0
1712022110722,1712022103319,2219315,0
1712022110722,1712022103359,2221440,0
1712022110722,1712022103399,2223523,0
1712022110722,1712022103439,2226142,0
1712022110722,1712022103479,2228736,0
1712022110722,1712022103520,2231599,0
1712022110722,1712022103559,2234705,0
1712022110722,1712022103599,2237676,0
1712022110722,1712022103639,2241073,0
1712022110722,1712022103680,2242055,0
1712022110722,1712022103720,2232479,0
1712022110722,1712022103760,2222851,0
1712022110722,1712022103800,2218969,0
1712022110722,1712022103840,2218493,0
1712022110722,1712022103880,2219307,0
1712022110722,1712022103921,2220041,0
1712022110722,1712022103960,2219214,0
1712022110722,1712022104000,2218447,0
1712022110722,1712022104041,2218863,0
1712022110722,1712022104081,2220530,0
1712022110722,1712022104121,2222937,0
1712022110722,1712022104161,2225551,0
1712022110722,1712022104201,2228479,0
1712022110722,1712022104241,2231310,0
1712022110722,1712022104281,2234250,0
1712022110722,1712022104322,2237221,0
1712022110722,1712022104361,2240259,0
1712022110722,1712022104402,2243397,0
1712022110722,1712022104442,2246796,0
1712022110722,1712022104482,2245906,0
1712022110722,1712022104523,2236899,0
1712022110722,1712022104562,2230055,0
1712022110722,1712022104602,2228035,0
1712022110722,1712022104642,2228148,0
1712022110722,1712022104682,2229162,0
1712022110722,1712022104723,2229776,0
1712022110722,1712022104763,2229081,0
1712022110722,1712022104803,2228923,0
1712022110722,1712022104843,2229790,0
1712022110722,1712022104883,2231679,0
1712022110722,1712022104924,2234025,0
