Timestamp,Cleaned_PPG
1712056772291,0.0
1712056772331,0.0
1712056772372,0.0
1712056772411,0.0
1712056772451,0.0
1712056772491,0.0
1712056772531,0.0
1712056772572,0.0
1712056772612,0.0
1712056772652,0.0
1712056772692,0.0
1712056772732,0.0
1712056772773,0.0
1712056772812,0.0
1712056772853,0.0
1712056772892,0.0
1712056772933,0.0
1712056772974,0.0
1712056773013,0.0
1712056773053,0.0
1712056773093,0.0
1712056773133,0.0
1712056773174,0.0
1712056773213,0.0
1712056773253,0.0
1712056773293,0.0
1712056773334,0.0
1712056773375,0.0
1712056773417,0.0
1712056773454,0.0
1712056773494,0.0
1712056773534,0.0
1712056773575,2970875.0
1712056773614,2827294.0486258967
1712056773655,2705011.0577559546
1712056773695,2549747.152573362
1712056773735,2387369.070926975
1712056773776,2235642.5711115077
1712056773815,2112621.451387001
1712056773855,2007535.7969354321
1712056773895,1892327.0438575072
1712056773935,1694029.64964857
1712056773976,1569177.495112055
1712056774016,1406854.3941624153
1712056774056,1271581.8671053678
1712056774096,1760367.0471643726
1712056774136,2344634.70407669
1712056774177,2176157.498497914
1712056774216,2022561.6695349752
1712056774256,1897950.9117386471
1712056774297,1808768.9224772612
1712056774337,526392.9634210346
1712056774378,1383772.9662281275
1712056774417,1111188.3158122292
1712056774457,242247.66502564307
1712056774497,240268.90562193468
1712056774537,257005.0000077868
1712056774578,239218.14981800877
1712056774618,228451.47612790018
1712056774658,234091.7337683402
1712056774698,224808.47939513158
1712056774738,209966.8257433693
1712056774779,194192.97370591154
1712056774818,189830.1005967725
1712056774858,173382.65097742528
1712056774899,159088.31861925777
1712056774939,149348.328056084
1712056774980,141883.27726756316
1712056775019,117924.57934081275
1712056775059,115567.47747390158
1712056775099,105898.93292586226
1712056775139,96623.3983084457
1712056775180,1128653.2540819654
1712056775220,1197268.5633830312
1712056775260,1110940.9295983324
1712056775300,1019041.6610506922
1712056775340,943372.4144215593
1712056775381,899641.8342629299
1712056775420,840579.0570145971
1712056775460,783512.1135412827
1712056775501,738506.4752588831
1712056775541,684905.5098751243
1712056775582,652668.6458102665
1712056775624,634079.6295145359
1712056775661,586777.2773034144
1712056775701,542916.3525352464
1712056775742,513703.2944529094
1712056775783,502799.5948383445
1712056775822,477164.01628556754
1712056775862,469440.44036074774
1712056775902,441993.0244870465
1712056775942,402134.51739496365
1712056775984,372033.4854714619
1712056776023,356400.5898858835
1712056776063,320301.5896146642
1712056776103,287920.55199667066
1712056776143,281071.09780031815
1712056776184,240577.5207850784
1712056776224,237434.927264316
1712056776264,222733.56314227544
1712056776304,246103.30399757624
1712056776344,229345.86293090414
1712056776385,230120.08770147385
1712056776424,215603.93806884577
1712056776464,200159.00419820473
1712056776505,203257.44903855352
1712056776544,150856.23056799732
1712056776586,164585.2361746612
1712056776625,165472.37015627278
1712056776665,153353.79059651494
1712056776705,128159.02755458048
1712056776745,138017.35167666245
1712056776786,98299.91368780751
1712056776825,118199.5418758886
1712056776865,123256.34789835522
1712056776905,141854.15580907278
1712056776946,156827.16037839
1712056776987,-411770.7157189124
1712056777026,-1215850.6619839463
1712056777066,-1668368.0401579016
1712056777106,-2049904.2533465135
1712056777146,-1998654.1371821119
1712056777187,-2049368.4036017368
1712056777226,-1984722.593163333
1712056777266,-1841135.4104549503
1712056777307,-1711564.0758823263
1712056777347,-1534814.9069458507
1712056777388,-1521527.6477430053
1712056777427,-1381600.1433762223
1712056777467,-1174725.7796825678
1712056777507,-1042966.5477183396
1712056777547,-901835.9166475884
1712056777588,-745580.1733692326
1712056777627,-542087.7117060455
1712056777668,-337568.0914615635
1712056777708,-146097.24455492338
1712056777748,147649.49462234788
1712056777789,513701.15407351684
1712056777828,1272857.8890179126
1712056777868,1285290.2996783834
1712056777908,1176018.1705813599
1712056777948,237730.48986805882
1712056777989,312495.3726977324
1712056778029,753683.4167353353
1712056778069,276925.0722421808
1712056778109,189620.14260991383
1712056778149,177930.39801679086
1712056778190,170612.12754578516
1712056778229,175890.94481917564
1712056778269,192574.6194010973
1712056778309,159612.903531014
1712056778350,109097.03103072522
1712056778391,214145.34477363247
1712056778430,234636.9783521779
1712056778470,396989.03436995856
1712056778510,443963.63864807785
1712056778550,545704.246013816
1712056778591,340918.325140032
1712056778631,417996.09172803024
1712056778670,1123797.9638724616
1712056778711,1032410.5663249521
1712056778751,569857.5018081916
1712056778792,276824.967321862
1712056778831,238973.94340983126
1712056778871,261490.3494694666
1712056778911,281180.8307078434
1712056778951,251113.57780463994
1712056778992,278614.8397002723
1712056779031,258497.8443265427
1712056779072,222911.47215699032
1712056779112,206435.58792836266
1712056779152,201104.37472960353
1712056779193,185303.14576581866
1712056779232,174063.95695815003
1712056779272,153388.09706909535
1712056779312,146717.40811841702
1712056779353,97832.18074261071
1712056779394,94443.47978174966
1712056779433,88513.80304322625
1712056779473,66412.27489596885
1712056779513,60711.62782774586
1712056779553,57674.92665626155
1712056779594,54461.52729232935
1712056779633,52047.113077725284
1712056779673,65860.30110246036
1712056779714,64975.15852556843
1712056779754,95593.40221352642
1712056779795,132432.39314387413
1712056779834,137891.99624884594
1712056779874,134063.20743704308
1712056779914,134612.55306355655
1712056779954,112766.13504117355
1712056779995,95376.55159432674
1712056780035,97725.11804137006
1712056780075,109966.55372692831
1712056780115,118129.94117833581
1712056780155,119505.29861580208
1712056780196,69030.97574341949
1712056780235,69557.09539112821
1712056780276,68776.41970253084
1712056780316,60806.956711700186
1712056780356,62692.68460482359
1712056780397,52616.698638956994
1712056780436,56924.73454741668
1712056780476,56401.86694475729
1712056780516,54664.99584031012
1712056780557,54406.569491724484
1712056780597,57562.23584402632
1712056780637,55060.15024959855
1712056780677,47984.81270145066
1712056780717,44042.020689827856
1712056780757,43361.7471392788
1712056780798,46692.93685083371
1712056780837,45184.399274192285
1712056780877,46569.23753881175
1712056780918,48718.921601804905
1712056780958,46694.085096987896
1712056780999,46377.63418381289
1712056781038,48845.86253332626
1712056781078,49987.30625719018
1712056781118,40582.36349960975
1712056781159,35921.23524638917
1712056781200,39081.93003252195
1712056781239,39986.813339414075
1712056781279,32453.21308737807
1712056781319,28593.834211670328
1712056781359,25054.880811911076
1712056781401,21866.38934113132
1712056781440,18521.62116094865
1712056781480,16569.874890821986
1712056781520,19874.149881452322
1712056781560,17600.22487993352
1712056781601,15503.233575408347
1712056781641,16021.7863587006
1712056781681,22712.089312202297
1712056781721,18393.108618790284
1712056781761,18737.550889752805
1712056781802,19811.83174832724
1712056781841,23554.25244000042
1712056781882,21364.657891242765
1712056781922,17974.93391214311
1712056781962,10302.021912626922
1712056782003,1911.7004670486785
1712056782042,-1752.1109817414545
1712056782082,-5260.4925923785195
1712056782122,-9565.224347732961
1712056782162,-42431.16845710203
1712056782204,-45441.701281469315
1712056782243,-36194.6740948027
1712056782283,-22127.569282134995
1712056782323,-16942.054339719936
1712056782363,-9377.075012111105
1712056782404,9312.0650519263
1712056782444,22725.56810340844
1712056782484,22591.40205461299
1712056782524,26655.412807581015
1712056782564,10433.437686420977
1712056782605,13452.09988700552
1712056782644,17588.840857842006
1712056782684,21801.746397523675
1712056782725,19563.123280688655
1712056782764,30829.346158023924
1712056782806,44445.281037805136
1712056782845,61622.73387110885
1712056782885,80237.00409464724
1712056782925,94869.1459485637
1712056782965,95656.84005656186
1712056783006,105608.70303828269
1712056783045,93415.5973138716
1712056783085,93552.12345189136
1712056783125,88737.37453948054
1712056783166,85127.64628188545
1712056783207,80541.418932328
1712056783246,85219.87864403147
1712056783286,80948.88847385999
1712056783326,76935.75397532433
1712056783366,79407.04333178746
1712056783407,81963.93603902217
1712056783446,110055.79594651889
1712056783486,114939.48038065247
1712056783527,111278.50755692646
1712056783567,90995.85838199826
1712056783608,80438.11359073129
1712056783647,70218.30261349864
1712056783687,59996.79174678121
1712056783727,58183.07184278965
1712056783767,57150.465934145264
1712056783809,56336.718342919834
1712056783848,69568.00923917815
1712056783888,53692.735691125505
1712056783928,41978.6723325639
1712056783968,35518.36968678376
1712056784009,40816.08455414139
1712056784048,34615.28743334534
1712056784088,29317.52425279608
1712056784128,21847.408394209575
1712056784169,14194.719577849843
1712056784210,11319.110484874807
1712056784249,22595.803011375945
1712056784289,29488.084809851833
1712056784329,48937.34982919926
1712056784369,46578.99051888473
1712056784409,47659.02416920662
1712056784449,46311.28002502024
1712056784489,46850.161358362995
1712056784529,37351.95840783883
1712056784569,35200.63561932929
1712056784609,32277.062360844575
1712056784649,21287.609225443564
1712056784689,20048.155728408135
1712056784729,28306.115070711356
1712056784769,29850.609502292238
1712056784809,30282.583712307736
1712056784849,33681.07396689337
1712056784889,33639.21013924945
1712056784929,32154.200559161603
1712056784969,39021.89298581425
1712056785009,41908.18789656181
1712056785049,45530.07610608172
1712056785089,45312.251046074554
1712056785129,42807.26386852376
1712056785169,45641.052958232816
1712056785209,45098.0901816939
1712056785249,43900.84032814205
1712056785289,43887.0226808805
1712056785329,53566.53462132951
1712056785369,54026.351608996745
1712056785409,55547.107721443754
1712056785449,45609.49061468709
1712056785489,70107.29218140198
1712056785529,65219.083903211635
1712056785569,65048.66601122962
1712056785609,72635.19743166678
1712056785649,70467.22028757073
1712056785689,67367.06432857085
1712056785729,71623.37142546615
1712056785769,72589.33951417124
1712056785809,75299.7138116667
1712056785849,66918.56671809405
1712056785889,66883.52414892707
1712056785929,56543.7893394893
1712056785969,51891.91408109479
1712056786009,53875.7680079164
1712056786049,54525.32763704751
1712056786089,50567.15100579988
1712056786129,44269.833132208325
1712056786169,40658.42366906302
1712056786209,48629.95188920852
1712056786249,47758.78681477113
1712056786289,46082.10647042887
1712056786329,47553.664282635786
1712056786369,43649.29985697009
1712056786409,36756.41779333493
1712056786449,22089.78004432423
1712056786489,13456.15135422349
1712056786529,13907.537734658457
1712056786569,18433.979527362622
1712056786609,8146.129392610863
1712056786649,15919.593339345418
1712056786689,22274.363244600594
1712056786729,29119.374003494624
1712056786769,-2527.9489215798676
1712056786809,1893.3485402059741
1712056786849,-4003.8528501093388
1712056786889,-22727.41109837964
1712056786929,-17793.02064009756
1712056786969,-13393.508700433187
1712056787009,-22088.62841376243
1712056787049,-12100.908110782504
1712056787089,-8128.225579182617
1712056787129,6338.24406770803
1712056787169,3607.784740750678
1712056787209,8877.811569130048
1712056787249,11386.6992912204
1712056787289,6311.445290973876
1712056787329,-1294.2265740893781
1712056787369,-4633.667770524044
1712056787409,-1172.975294190459
1712056787449,24899.93557611946
1712056787489,30405.188807122875
1712056787529,29012.08936951682
1712056787569,33166.6005343236
1712056787609,28505.37431094423
1712056787649,30307.324002203066
1712056787689,32757.91564645199
1712056787729,36607.125517412554
1712056787769,51214.70820730226
1712056787809,62802.9037109483
1712056787849,69918.08457261417
1712056787889,68582.12019233033
1712056787929,56418.6498868037
1712056787969,43305.23441308038
1712056788009,33722.91867167596
1712056788049,28504.395245168358
1712056788089,24476.926125582308
1712056788129,36246.079491938464
1712056788169,35231.6656815703
1712056788209,26797.658067245036
1712056788249,24599.517669933848
1712056788289,19065.009917660616
1712056788329,11845.169657772407
1712056788369,1608.9760526916943
1712056788409,6877.5137378824875
1712056788449,-945.6946618389338
1712056788489,-5210.565316609107
1712056788529,-18104.80103190895
1712056788569,-26131.336730490904
1712056788609,-42606.527758533135
1712056788649,-77563.87807898689
1712056788689,-106044.43159959698
1712056788729,-129090.5402276502
1712056788769,-140819.26058409037
1712056788809,-124595.34900414199
1712056788849,-95820.12738161162
1712056788889,-64967.004326484166
1712056788929,-25418.044916856103
1712056788969,-21259.199514571577
1712056789009,-27523.47063680552
1712056789049,-42301.16788377054
1712056789089,-22385.39696347341
1712056789129,-45337.1967960624
1712056789169,-58845.803282465786
1712056789209,-82125.828180362
1712056789249,-79574.32718543848
1712056789289,-102979.69369646627
1712056789329,-82816.4436971657
1712056789369,-79732.23100462742
1712056789409,-97611.89119408466
1712056789449,-84100.31545788236
1712056789489,-69127.30292931153
1712056789529,-58977.55693965498
1712056789569,-29843.3985688081
1712056789609,-26447.112461579498
1712056789649,-3371.8206489300355
1712056789689,8330.561914645135
1712056789729,29918.688312267885
1712056789769,36126.560636960436
1712056789809,40606.9053640645
1712056789849,40088.88539455924
1712056789889,43947.835520167835
1712056789929,64642.87799370894
1712056789969,85071.26032085437
1712056790009,86089.229412721
1712056790049,103783.91417266475
1712056790089,99407.30152782192
1712056790129,78148.491933587
1712056790169,50124.77270233072
1712056790209,18690.068194906227
1712056790249,21608.328521870077
1712056790289,8779.826156852301
1712056790329,27611.96963431919
1712056790369,6220.911576076411
1712056790409,22772.743830897845
1712056790450,42305.469205980655
1712056790491,61255.11993805738
1712056790532,37893.111497002654
1712056790573,50522.025641941465
1712056790614,39245.285222019535
1712056790655,33900.93865627749
1712056790696,16800.026228421833
1712056790737,20226.988299532328
1712056790778,-4272.247573688626
1712056790819,-25656.924328288995
1712056790860,-51633.788634104654
1712056790901,-60800.88608238287
1712056790942,-64213.03777928185
1712056790983,-64710.28138820268
1712056791024,-68888.09119128063
1712056791065,-59308.791446568444
1712056791106,-50860.26458222419
1712056791147,-54674.346882761456
1712056791188,-55433.1733935331
1712056791229,-67599.81988536846
1712056791270,-77870.19002500596
1712056791311,-82494.21178568248
1712056791352,-89296.0422884929
1712056791393,-84464.92260187492
1712056791434,-76224.64534716727
1712056791475,-67785.79834119324
1712056791516,-66047.1861558645
1712056791557,-67506.58358431747
1712056791598,-54823.66483773198
1712056791639,-82497.25696312264
1712056791680,-136720.76242900314
1712056791721,-138089.7496854514
1712056791762,-139446.4927255949
1712056791803,-140421.19998248294
1712056791844,-122867.02428140352
1712056791885,-115178.50525002368
1712056791926,-110597.17297165189
1712056791967,-91693.99931246974
1712056792008,-52147.60507612582
1712056792049,-64048.627622522414
1712056792090,-44726.541166602634
1712056792131,-33528.11041011661
1712056792172,-33735.50555608142
1712056792213,-78243.95562974364
1712056792254,-86013.62814116199
1712056792295,-75033.80980711151
1712056792336,-71839.39917577291
1712056792377,-87621.64029205637
1712056792418,-83561.47398542613
1712056792459,-78291.25873117521
1712056792500,-64716.66256753076
1712056792541,-58787.55235416116
1712056792582,-49931.4051665687
1712056792623,-42761.24206828466
1712056792664,-49999.92253409838
1712056792705,-40920.23157803528
1712056792746,-47120.56562604103
1712056792787,-60042.57185427332
1712056792828,-67872.55834270176
1712056792869,-64580.41109720664
1712056792910,-71808.1514532771
1712056792951,-65625.75445057359
1712056792992,-37020.09630022198
1712056793033,-33004.67962381197
1712056793074,-30870.032727404032
1712056793115,-20483.43235864304
1712056793156,-16002.817198138684
1712056793197,1660.8071691887453
1712056793238,-1137.9777279933915
1712056793279,4205.4478753125295
1712056793320,2624.4943328234367
1712056793361,10839.395611367654
1712056793402,16456.01190039795
1712056793443,20798.82307512127
1712056793484,26393.767694112845
1712056793525,85987.76611967478
1712056793566,88053.23863130854
1712056793607,72477.5967181581
1712056793648,71052.23712374782
1712056793689,84896.87227880582
1712056793730,82268.61923893075
1712056793771,80507.32417657692
1712056793812,76863.62612514757
1712056793853,72423.84894314501
1712056793894,78849.07749686483
1712056793935,70694.12086671405
1712056793976,78514.41012605932
1712056794017,80033.0003902032
1712056794058,84757.3109958591
1712056794099,95719.20468293875
1712056794140,87894.48170041759
1712056794181,84280.36486582924
1712056794222,91251.08612218779
1712056794263,89759.0843694713
1712056794304,102341.08365829987
1712056794345,101201.65523320902
1712056794386,108182.33465079125
1712056794427,98882.29936911073
1712056794468,81904.95780193387
1712056794509,76429.57066246867
1712056794550,79263.3287443514
1712056794591,65280.39486998413
1712056794632,61361.337951983325
1712056794673,63288.37432753574
1712056794714,59019.60458579473
1712056794755,60027.67463732138
1712056794796,58983.08244469855
1712056794837,50491.23132160725
1712056794878,48096.27827974409
1712056794919,50399.9487869218
1712056794960,46393.464345216285
1712056795001,43603.59909135755
1712056795042,43410.786869192496
1712056795083,46012.62987495866
1712056795124,40335.95162094198
1712056795165,32735.3776490679
1712056795206,29501.437446450815
1712056795247,35325.28065686207
1712056795288,39948.77890586015
1712056795329,30204.87804724928
1712056795370,24723.580380406696
1712056795411,15677.472288560122
1712056795452,26593.555848537013
1712056795493,22560.951940393075
1712056795534,12383.51293481607
1712056795575,16773.07905056281
1712056795616,17543.725165135227
1712056795657,19683.565321438015
1712056795698,14639.680278107524
1712056795739,18560.731335165445
1712056795780,16365.792638782412
1712056795821,16101.937209916301
1712056795862,17493.515832566656
1712056795903,17266.756433118135
1712056795944,17346.87520798575
1712056795985,15790.033399473876
1712056796026,18540.100575591438
1712056796067,13898.196578038856
1712056796108,4560.337128586136
1712056796149,12061.45735832164
1712056796190,4689.452930674888
1712056796231,3359.731503895484
1712056796272,-4055.21361986408
1712056796313,-5360.198916279711
1712056796354,-13934.523431896232
1712056796395,-27637.848398839124
1712056796436,-29853.01048075175
1712056796475,-21613.220007308293
1712056796514,-32170.82003687648
1712056796553,-18401.709092735313
1712056796592,-7173.793365100399
1712056796631,-19686.59578615753
1712056796670,-31374.238313301466
1712056796709,-32309.40095530916
1712056796748,-16770.951055076905
1712056796787,-9222.60889729485
1712056796826,12891.41463681031
1712056796865,16157.383967200294
1712056796904,30332.41702685086
1712056796943,40279.93888676353
1712056796982,60445.175458024256
1712056797021,65002.24334569322
1712056797060,64391.53323758952
1712056797099,68199.2338342485
1712056797138,80628.68955735862
1712056797177,83868.91876704618
1712056797216,79108.91378431534
1712056797255,64377.12984837871
1712056797294,51261.78394405916
1712056797333,46275.20127938129
1712056797372,57506.83767177537
1712056797411,56662.63902106043
1712056797450,68768.85864950716
1712056797490,77714.8446332654
1712056797530,81017.0332193207
1712056797570,79474.8667349387
1712056797610,78716.32415051013
1712056797650,87182.5305747171
1712056797690,83668.56408792501
1712056797730,78164.44947984302
1712056797770,92758.35334026441
1712056797810,60562.9434603909
1712056797850,41495.42525365576
1712056797890,53457.10321326554
1712056797930,46630.52749581123
1712056797970,46845.212976478506
1712056798010,29440.79513369687
1712056798050,23939.828401019797
1712056798090,16079.139067032374
1712056798130,1543.8887847396545
1712056798170,-16658.788643549662
1712056798210,-25748.83854013309
1712056798250,-42330.777689700946
1712056798290,-42900.602770035155
1712056798330,-38134.78157775756
1712056798370,-32654.890310207382
1712056798410,-39292.70444690436
1712056798450,-35851.94094049465
1712056798490,-36533.2050526347
1712056798530,-26509.713681368157
1712056798570,-11147.640125557315
1712056798610,-4638.547497044317
1712056798650,3999.5592862898484
1712056798690,8100.0564121110365
1712056798730,11817.428476854227
1712056798770,6589.222078558989
1712056798810,4616.284935025033
1712056798850,6343.369294278324
1712056798890,15967.966911699157
1712056798930,15274.272043497767
1712056798970,32227.210274240933
1712056799010,40610.86522596795
1712056799050,35386.01961822342
1712056799090,52459.44984167721
1712056799130,47668.46999681275
1712056799170,44720.07683946518
1712056799210,50142.09063307708
1712056799250,46282.33786581922
1712056799290,39589.22321314085
1712056799330,36445.66374670295
1712056799370,28226.65476547554
1712056799410,38927.01570758503
1712056799450,53225.261539076455
1712056799490,52366.67605805118
1712056799530,61663.26265017502
1712056799570,58827.22206646297
1712056799610,53654.16722494364
1712056799650,47392.50199399609
1712056799690,45617.91380895395
1712056799730,46131.454742476344
1712056799770,45168.16768469475
1712056799810,41656.658956137486
1712056799850,31598.843932088
1712056799890,34663.43248373177
1712056799930,26497.33970322786
1712056799970,17560.57482531015
1712056800010,20358.399157523178
1712056800050,13536.226094543003
1712056800090,14881.688539196271
1712056800130,18212.966159990057
1712056800170,-1728729.7390999254
1712056800210,-1626042.0743384259
1712056800250,-1537495.0646955515
1712056800290,-1445515.144969711
1712056800330,-1346650.7903998084
1712056800370,-1262730.6634214567
1712056800410,-1177338.2249635137
1712056800450,-1113808.0571653424
1712056800490,-1045493.0391931636
1712056800530,-1296044.5396245643
1712056800570,-1215696.6322046723
1712056800610,-1140964.9430565722
1712056800650,-1071221.04165354
1712056800690,-1006166.2520291526
1712056800730,-952943.6319953767
1712056800770,-911317.0738538387
1712056800810,-859761.9349610507
1712056800850,-801854.0143136126
1712056800890,-749061.9057601616
1712056800930,-741989.5804156447
1712056800970,-698148.3626320586
1712056801010,-656100.7571964478
1712056801050,-617370.4330780059
1712056801090,-581017.2176857004
1712056801130,-547450.5733170952
1712056801170,-515015.01451502414
1712056801210,-474278.4425373534
1712056801250,-443450.7807062054
1712056801290,-418023.3533887621
1712056801330,-391979.22096594423
1712056801370,-368477.1098124804
1712056801410,-346753.1790495855
1712056801450,-326241.0948369326
1712056801490,-298953.3165414464
1712056801530,-271176.2213825388
1712056801570,-247426.55160613125
1712056801610,-243088.5844519697
1712056801650,-232184.2953344304
1712056801690,-224502.71017949563
1712056801730,-206271.62762817368
1712056801770,-193891.0486361971
1712056801810,-177237.11350342538
1712056801850,-162056.90334798582
1712056801890,-149960.95053356374
1712056801930,-138303.1870258199
1712056801970,-126364.51233525621
1712056802010,-117643.80308432551
1712056802050,-115065.59768398292
1712056802090,-116976.16975114914
1712056802130,-115530.08514882997
1712056802170,-109670.85557305068
1712056802210,-107713.50620369986
1712056802250,-106604.11956697935
1712056802290,-106274.06662025955
1712056802330,-101863.63977516908
1712056802370,-86740.54675320582
1712056802410,-73459.74897213513
1712056802450,-75553.73266178835
1712056802490,-76263.1210666243
1712056802530,-74470.55210434366
1712056802570,-71289.60182181885
1712056802610,-60260.8392138714
1712056802650,-50453.05351969553
1712056802690,-45842.88148975652
1712056802730,-37835.562247156166
1712056802770,-36349.37769041257
1712056802810,-34887.99898347072
1712056802850,-38624.08648062777
1712056802890,-39189.87202819064
1712056802930,-40086.59988629352
1712056802970,-36660.0232469216
1712056803010,-31211.61366132833
1712056803050,-21894.461885815486
1712056803090,-17664.032335622236
1712056803130,-10992.4765088493
1712056803170,-5332.042795054847
1712056803210,-925.7861984653864
1712056803250,-1996.1542437039316
1712056803290,-8125.657910397276
1712056803330,-11628.351287791971
1712056803370,-11371.320429814048
1712056803410,-12373.449510494247
1712056803450,-8109.742456994951
1712056803490,-6029.128547166474
1712056803530,2614.407840919681
1712056803570,11679.333069914952
1712056803610,19109.063789224252
1712056803650,16134.930466859601
1712056803690,12728.49799361173
1712056803730,16790.899679674767
1712056803770,16472.968423334416
1712056803810,14570.676779584493
1712056803850,7658.252487377729
1712056803890,-3578.9014290459454
1712056803930,-8017.718916802201
1712056803970,-11503.399767722934
1712056804010,-11734.969039483927
1712056804050,2161.5589065337554
1712056804090,4722.756732453592
1712056804130,-20992.58603714872
1712056804170,-27721.419752173126
1712056804210,-26408.302157655824
1712056804250,-15910.66830249317
1712056804290,-3756.9103906014934
1712056804330,21277.80485731177
1712056804370,41185.99993050657
1712056804410,42788.58990856167
1712056804450,48196.68462574482
1712056804490,46752.68389142398
1712056804530,42241.61300059594
1712056804570,48558.06650122395
1712056804610,49711.445446424186
1712056804650,48685.330289830454
1712056804690,44418.0197777492
1712056804730,38601.298832430504
1712056804770,33693.19412429072
1712056804810,20837.986915784888
1712056804850,12102.821743265726
1712056804890,6344.60441281274
1712056804930,-1288.5167912086472
1712056804970,1195.8114356314763
1712056805010,8610.040523307398
1712056805050,6661.079777971841
1712056805090,6643.05971509777
1712056805130,10089.022448914591
1712056805170,20164.143645782955
1712056805210,39372.166975819506
1712056805250,44940.092876497656
1712056805290,46816.31635418814
1712056805330,47232.788962700404
1712056805370,49328.92690234259
1712056805410,48258.80317069357
1712056805450,41058.75778875407
1712056805490,44594.37217265321
1712056805530,39045.35600607889
1712056805570,36226.81467638258
1712056805610,25072.100534643978
1712056805650,18647.64806244662
1712056805690,5257.755213735625
1712056805730,-22005.627397794742
1712056805770,-29565.518609865103
1712056805810,-32605.338258275297
1712056805850,-41235.085639179684
1712056805890,-55221.247552745044
1712056805930,-43095.26019619079
1712056805970,-42738.48891442269
1712056806010,-35851.85490431124
1712056806050,-28356.51943887584
1712056806090,-18405.88836191641
1712056806130,6449.526408446021
1712056806170,41254.49642124865
1712056806210,65400.74800332636
1712056806250,90946.15246472554
1712056806290,91623.20074293436
1712056806330,78604.20177919185
1712056806370,70699.09785563499
1712056806410,75052.40354081988
1712056806450,70036.23404320749
1712056806490,61232.016323340125
1712056806530,62540.20299209468
1712056806570,58850.38093741331
1712056806610,52870.48511133343
1712056806650,37826.25345168915
1712056806690,23441.148163056
1712056806730,13362.600047047716
1712056806770,-5146.7693856665865
1712056806810,-24031.20046123583
1712056806850,-32742.271103543695
1712056806890,-34798.623668326996
1712056806930,-33869.54008128634
1712056806970,-37840.69286258193
1712056807010,-25832.56478565093
1712056807050,-21549.515992549248
1712056807090,-27041.664668636862
1712056807130,-26505.404585422948
1712056807170,-22976.951418919023
1712056807210,-26667.46882620873
1712056807250,-28040.96693804767
1712056807290,-31948.057961777784
1712056807330,-39075.25007072743
1712056807370,-46386.17293100711
1712056807410,-66511.70599702932
1712056807450,-71273.29808622226
1712056807490,-52695.25772765884
1712056807530,-63892.63943222677
1712056807570,-54098.58462535124
1712056807610,-44554.103796347976
1712056807650,-43628.95615503471
1712056807690,-51103.232028928585
1712056807730,-60606.01660980936
1712056807770,-73574.18208331848
1712056807810,-79992.08507452905
1712056807850,-84280.53546708636
1712056807890,-83007.24022634327
1712056807930,-77799.58478920022
1712056807970,-72529.4284481327
1712056808010,-55058.83929712465
1712056808050,-41267.996468183585
1712056808090,-35556.9019268984
1712056808130,-47918.12953428086
1712056808170,-37842.40222577797
1712056808210,-30728.153353167698
1712056808250,-71476.55750024645
1712056808290,-52774.14186432748
1712056808330,-29337.736208800226
1712056808370,-2041.9193150799256
1712056808410,7663.06875919411
1712056808448,16280.176096324343
1712056808488,11853.150136765093
1712056808529,10839.826157092117
1712056808569,5606.447370502166
1712056808609,10190.735745307058
1712056808649,8034.240113944747
1712056808689,9295.824747019447
1712056808730,6132.303655839991
1712056808769,8871.543752283324
1712056808809,21960.07404443994
1712056808849,24036.501102063805
1712056808890,28606.475684414152
1712056808930,30031.93401690107
1712056808970,27013.74907090701
1712056809010,26364.646153851878
1712056809050,18549.362990191206
1712056809090,15655.34775668569
1712056809131,10126.396735394374
1712056809170,1009.4759446778335
1712056809210,-1221.1081061027944
1712056809251,-4974.938965013251
1712056809291,-2717.0912458952516
1712056809331,4868.474145010114
1712056809371,21589.084904544055
1712056809411,45198.4574610882
1712056809451,33085.41243237397
1712056809491,16303.81807058584
1712056809532,-122.4543619826436
1712056809571,-6327.323149018921
1712056809612,-8208.590558412485
1712056809651,-21005.9470450785
1712056809692,-19156.20474743843
1712056809733,-16168.718290966004
1712056809772,-10007.032027165405
1712056809812,661.5875066705048
1712056809852,5227.553828560747
1712056809892,5864.81817893777
1712056809933,11869.599810525775
1712056809972,13971.212496366818
1712056810012,21872.44321429683
1712056810052,30480.687948065344
1712056810093,29162.722504920792
1712056810133,32894.726144811604
1712056810173,32079.737936571706
1712056810213,26848.340063696727
1712056810253,21770.36115453206
1712056810293,23730.974267573096
1712056810334,12057.51603342779
1712056810373,16208.45839520311
1712056810413,8238.797627929598
1712056810454,13805.608094910858
1712056810494,-3256.3925144160166
1712056810534,13138.81952445209
1712056810574,7278.209791842848
1712056810614,14754.587082034443
1712056810654,6984.939594378695
1712056810694,-2012.7775796770584
1712056810735,-15623.774027672363
1712056810774,-16475.594317212002
1712056810815,-23991.26721849665
1712056810855,-22256.7919509043
1712056810895,-15909.46054974338
1712056810936,4310.822700028773
1712056810975,-5615.858608643059
1712056811015,-9357.700725576608
1712056811055,-7955.368867136538
1712056811095,-18125.29396495945
1712056811136,-38921.4748450988
1712056811176,-47922.60637559276
1712056811216,-52393.531724609435
1712056811256,-53475.50758844102
1712056811296,-50086.79370751418
1712056811337,-53016.22821641853
1712056811376,-52797.715096481144
1712056811416,-54397.94588271808
1712056811456,-57575.800781126134
1712056811497,-53804.671158509795
1712056811537,-53194.12213591486
1712056811577,-60858.990539592225
1712056811617,-47712.04325889656
1712056811657,-63388.3038733867
1712056811697,-53402.76950271567
1712056811738,-57297.15394609794
1712056811778,-31427.87989998702
1712056811818,-38992.00349311787
1712056811858,-23197.39136027149
1712056811898,-28921.805605451344
1712056811939,-39223.21304446249
1712056811978,-41733.55301411101
1712056812018,-44649.42593511054
1712056812058,-49547.66281697503
1712056812099,-50156.45005982206
1712056812139,-54161.956218700856
1712056812179,-48469.45400033309
1712056812219,-52697.40800172323
1712056812259,-41418.72064761934
1712056812299,-45892.129928865004
1712056812340,-54677.910857322626
1712056812380,-41997.27256505983
1712056812420,-22182.096993771847
1712056812460,-12252.878679699497
1712056812500,3462.2030649674125
1712056812541,9806.557062469888
1712056812580,9619.83361399849
1712056812620,12765.65344262938
1712056812660,15307.448033891385
1712056812701,16579.637504690327
1712056812741,24336.887840840034
1712056812781,26679.841053671204
1712056812821,34618.573285795515
1712056812861,34580.28050771775
1712056812901,30258.66147544142
1712056812942,23521.67835939536
1712056812982,13492.180527049582
1712056813022,11073.628740956075
1712056813062,12216.281690113014
1712056813102,12991.186072898097
1712056813143,11991.55560211814
1712056813182,-2095.2765724384226
1712056813222,-13605.079499863088
1712056813263,-28762.203306289855
1712056813303,-27829.959931758698
1712056813344,-27033.868382045766
1712056813383,-23151.832539484603
1712056813423,-16047.891764694825
1712056813463,-10150.629192078952
1712056813503,-4325.105905574514
1712056813544,-201.13377692061476
1712056813584,8059.654450888978
1712056813624,14039.118230183376
1712056813664,2444.1849048510194
1712056813704,-5566.333301342791
1712056813745,-21103.308236237615
1712056813784,-39199.64113713824
1712056813824,-43616.32859387109
1712056813865,-40333.119601007784
1712056813905,-37131.175850800006
1712056813946,-34559.5069221335
1712056813985,-31692.462823139736
1712056814025,-32437.140436204616
1712056814065,-37176.0983286968
1712056814105,-51453.92698781239
1712056814146,-55552.04554189881
1712056814186,-61181.04018644383
1712056814226,-65552.82823827257
1712056814266,-71567.15321044391
1712056814306,-100864.3247133377
1712056814346,-122336.37972111348
1712056814386,-107276.07307050703
1712056814426,-77865.46990446537
1712056814466,-45214.41416248423
1712056814506,-18187.8606624268
1712056814547,4971.2322098668665
1712056814586,23065.473768281983
1712056814626,38712.915932382224
1712056814667,41368.141196070006
1712056814707,45294.27978616813
1712056814748,45374.16301422869
1712056814787,42086.203035636805
1712056814827,42224.205887468066
1712056814867,42148.571243773215
1712056814907,40792.07561593433
1712056814948,38113.301552429795
1712056814987,41943.663765849546
1712056815028,43656.96743172617
1712056815068,51621.228968289215
1712056815108,55596.34943843307
1712056815149,58038.324150815606
1712056815188,61225.204405898694
1712056815228,60006.751617023954
1712056815268,62064.77902125963
1712056815308,60628.804079537746
1712056815349,59508.83811611496
1712056815389,64515.34436130244
1712056815429,62556.64168751752
1712056815469,57893.08600109001
1712056815509,59451.462841852335
1712056815550,62929.54114487115
1712056815589,103104.52387499833
1712056815629,120633.22449193103
1712056815669,115871.2516840389
1712056815709,101318.32648667134
1712056815750,80633.1476796479
1712056815789,64189.507199370535
1712056815830,43340.65325692645
1712056815870,23519.903310632333
1712056815910,3017.471623639576
1712056815951,4881.778793099802
1712056815990,-1836.4384202705696
1712056816030,-6137.661791591905
1712056816070,-1260.0617688777857
1712056816110,-649.9656186958309
1712056816151,2334.6110643888824
1712056816191,13581.124846769031
1712056816231,28013.264321732568
1712056816271,51407.70346059324
1712056816311,90494.79549978627
1712056816352,87609.43741727062
1712056816391,80942.59093759
1712056816431,76243.35548223555
1712056816471,67678.16809748206
1712056816511,65654.59808315989
1712056816553,57968.31469351938
1712056816592,52340.393633534666
1712056816632,49285.60017924756
1712056816672,46216.875083461404
1712056816712,42583.01810441073
1712056816753,39762.71667151712
1712056816792,35909.92630278971
1712056816832,32398.83362217527
1712056816872,26021.65062369127
1712056816912,27928.898105903063
1712056816954,36870.34534142632
1712056816993,35477.437832422554
1712056817033,32366.938283982687
1712056817073,28206.63393668458
1712056817113,29398.61543121049
1712056817154,28190.769393110648
1712056817194,26892.366095050704
1712056817233,19996.568187611643
1712056817274,18903.615464664064
1712056817314,16431.108859153464
1712056817355,9500.064299046528
1712056817394,1779.3780789291486
1712056817434,-861.6445065345615
1712056817474,294.70600712299347
1712056817514,9137.61524614878
1712056817555,16282.741629128344
1712056817594,5146.904734602198
1712056817635,1209.7790467534214
1712056817675,-2931.04584746249
1712056817715,-4978.170289629139
1712056817756,-8251.407830129843
1712056817795,-16077.639861142263
1712056817835,-23485.106845088303
1712056817875,-17092.87699762825
1712056817916,-12181.37463754462
1712056817957,-2450.371141314041
1712056817996,8100.332962253131
1712056818036,14765.726827864535
1712056818076,26196.00388166355
1712056818116,43076.34856409766
1712056818157,48310.51509830495
1712056818196,58841.692196534015
1712056818236,57880.59131941665
1712056818277,53628.044071624056
1712056818317,47125.45373458229
1712056818358,31391.870882259216
1712056818397,119.4862349499017
1712056818437,-18906.620998769067
1712056818477,-35730.28660240397
1712056818518,-44671.342384672724
1712056818559,-44510.391181230545
1712056818598,-33106.93574268464
1712056818638,-31568.68034845637
1712056818678,-32965.557220294606
1712056818718,-29320.667239081115
1712056818759,-22961.47185827885
1712056818798,-31726.055708907545
1712056818838,-23982.472083437257
1712056818879,-22905.68613017816
1712056818919,-29475.136937211268
1712056818959,-31316.530770340003
1712056818999,-33504.43407710455
1712056819039,-32461.95135440631
1712056819079,-24057.486999561545
1712056819119,-11751.127018508036
1712056819160,-8534.029352094047
1712056819200,-9625.0507255462
1712056819240,-6986.478243122809
1712056819280,-12918.09426378645
1712056819320,-17494.253825401887
1712056819361,-30270.37380931899
1712056819400,-44643.325650993735
1712056819440,-49684.581954758614
1712056819481,-66790.55680284742
1712056819521,-74070.03917337302
1712056819561,-74386.10318718292
1712056819601,-60771.51012048265
1712056819641,-38689.45314980578
1712056819681,2894.9734997521155
1712056819721,24654.34930583462
1712056819762,36477.9914287827
1712056819802,39540.02125629317
1712056819842,34695.72801597882
1712056819882,19679.75390327722
1712056819922,17124.342261805665
1712056819963,17252.822850265075
1712056820002,18815.501141144894
1712056820042,19260.46686131414
1712056820083,38174.33906613896
1712056820123,34864.32823811844
1712056820164,32773.61866727378
1712056820203,32054.020632840693
1712056820243,27205.376244911924
1712056820283,26051.66856631916
1712056820324,23881.040823929943
1712056820364,21415.29078559717
1712056820404,13976.062051482964
1712056820444,8062.729978932068
1712056820488,8236.281236532144
1712056820528,-143.6747972164303
1712056820569,5761.615843333304
1712056820608,871.042689954862
1712056820648,3828.0983165986836
1712056820689,-754.1809081006795
1712056820728,2879.047193973325
1712056820769,-4783.264581652358
1712056820809,-5842.222256942652
1712056820849,1419.324502072297
1712056820889,-366.4613344091922
1712056820929,-4728.810955706984
1712056820970,-10006.153805034235
1712056821009,-24823.24541822914
1712056821049,-26729.54102502577
1712056821089,-31929.770042643417
1712056821129,-33488.84720324958
1712056821170,-31604.793895806186
1712056821210,-39263.92885922454
1712056821250,-43893.547945165075
1712056821290,-44488.441802192014
1712056821330,-62042.1299448153
1712056821371,-111043.72107550455
1712056821410,-143821.85205782996
1712056821450,-144348.77647112403
1712056821490,-144939.9614895368
1712056821531,-141247.35039607482
1712056821571,-143440.80681098788
1712056821611,-133492.08470129827
1712056821651,-128518.24099671654
1712056821691,-139914.40470273024
1712056821731,-151333.14221328823
1712056821772,-145257.20425817184
1712056821811,-143795.5513124226
1712056821851,-151264.3837068677
1712056821891,-160321.4217915514
1712056821931,-172284.75175387366
1712056821972,-160289.71945445798
1712056822012,-150891.288325164
1712056822052,-156232.0426881353
1712056822092,-164358.9925462813
1712056822132,-170034.2859413221
1712056822173,-184555.22451062826
1712056822212,-186268.91654192074
1712056822252,-182029.06827134732
1712056822292,-163721.09669177886
1712056822332,-152687.32653441187
1712056822373,-142467.90762264282
1712056822413,-135744.6304901312
1712056822453,-130334.908243516
1712056822493,-125560.41770802578
1712056822533,-116958.59322075523
1712056822574,-113630.65031501604
1712056822613,-101894.22120689927
1712056822653,-116505.44567180984
1712056822693,-130920.58547509299
1712056822734,-143303.1859425602
1712056822774,-148085.55493798666
1712056822814,-148820.58111632173
1712056822854,-149744.78876329167
1712056822894,-151331.05264201714
1712056822934,-151189.77309365757
1712056822975,-149766.49769485416
1712056823014,-142434.8663545719
1712056823054,-129768.8942582868
1712056823095,-120352.60226990446
1712056823135,-124790.98391813785
1712056823175,-122634.93561016419
1712056823215,-119919.24182467582
1712056823255,-106258.348133981
1712056823295,-111132.0701209302
1712056823335,-90906.47986181453
1712056823376,-76762.50535281538
1712056823415,-74703.20016993256
1712056823456,-76260.42459367798
1712056823496,-76002.80644153291
1712056823536,-81470.9677345478
1712056823577,-97745.06093639787
1712056823616,-108970.6080069493
1712056823656,-105433.93604915775
1712056823696,-97769.60393842403
1712056823736,-97299.26575491112
1712056823777,-92623.30409154226
1712056823817,-90662.96577906283
1712056823857,-81879.71365074348
1712056823897,-71999.74925476126
1712056823937,-63439.97030127328
1712056823978,-61086.46277275309
1712056824017,-57673.38411131129
1712056824057,-59427.10901484033
1712056824097,-50539.324833767256
1712056824137,-52091.004912352655
1712056824178,-53921.90518448525
1712056824218,-38975.6258804698
1712056824258,-37937.16553313518
1712056824298,-35259.79562651762
1712056824338,-43247.51260004006
1712056824379,-44676.20347396913
1712056824418,-37175.863024652936
1712056824458,-48353.45640172716
1712056824498,-49192.57409655303
1712056824539,-47642.837875569705
1712056824579,-36127.2104810765
1712056824619,-24070.62477612146
1712056824659,-21542.222294160165
1712056824699,1703.7281870513689
1712056824739,6019.539816486649
1712056824780,20441.035644946387
1712056824819,6289.179831261979
1712056824859,-12274.919827769743
1712056824900,-38563.37772602774
1712056824940,-62107.85148583958
1712056824980,-63105.50635035895
1712056825020,-59679.66253632121
1712056825060,-35557.95190079091
1712056825100,1337.1646160460077
1712056825140,19553.46251497371
1712056825181,30876.002163142897
1712056825220,48495.88233084604
1712056825261,50634.15719070914
1712056825301,51051.919691063464
1712056825341,67181.54377639527
1712056825382,72572.18119868706
1712056825421,83700.67134033982
1712056825461,94766.78586401045
1712056825502,78311.06067073764
1712056825541,83652.6186405432
1712056825582,92547.08159717103
1712056825622,97091.89342646766
1712056825662,114114.15837634541
1712056825702,121935.29842731263
1712056825742,126422.95750143658
1712056825783,127000.46558643156
1712056825822,126252.34355957736
1712056825863,127845.58094341145
1712056825903,120064.32510463754
1712056825943,123424.95452574384
1712056825984,123974.69078604737
1712056826023,138806.69383054227
1712056826063,130581.37388730212
1712056826103,132058.92845948949
1712056826143,140427.90170884784
1712056826184,165510.5588636296
1712056826224,186230.52729679644
1712056826264,194657.76167978835
1712056826304,173330.31184834708
1712056826344,161959.95531994966
1712056826385,131664.31014567008
1712056826424,103732.66052391077
1712056826464,86208.45908687497
1712056826504,78819.83694685111
1712056826545,81617.14692786778
1712056826586,88558.5448412185
1712056826625,87653.58510364825
1712056826665,80778.57341892109
1712056826705,85411.76219492592
1712056826745,83132.35930764396
1712056826786,84461.30473120371
1712056826826,80594.81865205616
1712056826866,77658.66595824296
1712056826906,74969.02124878671
1712056826946,70131.28749402659
1712056826987,65105.81034325692
1712056827026,51923.638932309346
1712056827066,36113.799306416884
1712056827106,29657.858915149234
1712056827146,31511.286686334992
1712056827187,31455.47277888842
1712056827227,30986.234627465717
1712056827267,28986.215588336578
1712056827307,27810.373983522877
1712056827347,28207.912283554208
1712056827388,27793.91348717874
1712056827427,32436.978103032336
1712056827467,41437.502427621046
1712056827507,37646.166261504404
1712056827547,27507.088725259295
1712056827588,19106.812129055616
1712056827628,21559.945593497017
1712056827668,28674.31001107348
1712056827708,22656.38205230795
1712056827748,29766.91184855718
1712056827789,22401.071352737956
1712056827828,10305.172303932719
1712056827868,1536.7589776893146
1712056827908,-1389.7674655667506
1712056827948,-322.13202181831
1712056827989,1045.8830142649822
1712056828029,2402.1231182483025
1712056828069,3213.812111856416
1712056828109,2936.12525116303
1712056828149,2820.351207424421
1712056828190,2806.436805872014
1712056828229,4102.99729385972
1712056828269,6675.526209906442
1712056828309,9833.340456076665
1712056828349,12674.405016236007
1712056828390,14817.764707969502
1712056828429,16213.11567153153
1712056828469,18072.71071490459
1712056828510,19850.57828977704
1712056828550,21605.594104772666
1712056828590,14552.618494843598
1712056828633,3826.9862295570783
1712056828670,-2511.2856689800974
1712056828710,-5019.922938766889
1712056828750,-5879.8986782648135
1712056828791,-5927.056078267284
1712056828830,-5183.601057748776
1712056828871,-3041.90897010779
1712056828911,-1660.3756175497547
1712056828951,-1424.1859315149486
1712056828992,-309.81160446000285
1712056829031,238.1700782473199
1712056829071,2715.606066624401
1712056829111,5280.336285043042
1712056829151,7463.6272638491355
1712056829192,9094.020802844781
1712056829231,9854.56906272797
1712056829271,11049.48239853559
1712056829311,12343.629309399752
1712056829352,6106.45142126875
1712056829392,-5437.711902779993
1712056829432,-12151.5128031075
1712056829472,-13798.572120199911
1712056829512,-13207.623358851299
1712056829552,-11855.871937229764
1712056829593,-11012.653065272607
1712056829632,-9656.443253822625
1712056829672,-8805.228570089675
1712056829713,-8687.024735129904
1712056829753,-8850.90147599834
1712056829793,-7138.940801937133
1712056829833,-4558.858082313789
1712056829873,-2189.127206688281
1712056829913,448.0196354556829
1712056829953,3142.068965076003
1712056829994,5874.828867872711
1712056830033,7957.692124066874
1712056830074,9984.118442140985
1712056830114,11458.087366393302
1712056830154,4889.509237405378
1712056830195,-7343.59604596789
1712056830234,-14895.923861118034
1712056830274,-16044.796353352955
1712056830314,-15307.024209138472
1712056830354,-14243.761742687551
1712056830395,-11777.037769332528
1712056830435,-9836.438301793765
1712056830475,-9682.015551090706
1712056830515,-10097.098053176887
1712056830555,-10181.386888022767
1712056830596,-9293.477881481871
1712056830635,-6814.001939933747
1712056830675,-4147.3413573722355
1712056830715,-1400.7572696730494
1712056830755,1061.4847751052584
1712056830796,3053.2668602587655
1712056830838,4664.947108794237
1712056830876,7035.582584120566
1712056830916,3371.442340021953
1712056830956,-9106.427900420502
1712056830997,-18586.48068078654
1712056831036,-20823.265866843518
1712056831076,-18743.96024050843
1712056831117,-14650.010677201208
1712056831157,-11431.558067187434
1712056831197,-10551.459942545975
1712056831237,-12249.68933836976
1712056831277,-15076.614449229091
1712056831317,-16534.70556253777
1712056831357,-17120.197925805813
1712056831398,-19769.081912551075
1712056831438,-21831.919273306383
1712056831478,-15020.91678453423
1712056831518,-9516.54134175321
1712056831558,798.044982991647
1712056831599,8310.941580512095
1712056831638,20207.591292707715
1712056831678,29019.461512411945
1712056831718,30758.786749182735
1712056831759,20707.652264354983
1712056831799,9163.410380230285
1712056831839,3049.456616842188
1712056831879,7155.5806304174475
1712056831919,11695.0723469418
1712056831959,14167.087029944174
1712056832000,15153.297144030686
1712056832040,10145.046871295664
1712056832080,7212.683917810209
1712056832120,2388.805896980921
1712056832160,2818.0915627281647
1712056832201,10157.158732497366
1712056832240,15921.474563414697
1712056832280,24494.14796100743
1712056832321,30097.581693233456
1712056832361,34523.29395486601
1712056832402,42270.15576472436
1712056832441,46003.046017449815
1712056832481,51418.658949637786
1712056832520,61777.818895581644
1712056832560,63388.74964943575
1712056832601,62216.537047899794
1712056832641,57622.63237931556
1712056832681,52197.54382196255
1712056832721,51215.0387445339
1712056832761,40641.7186044415
1712056832802,39058.25309932628
1712056832841,31740.320402359124
1712056832881,28415.70862578461
1712056832922,21236.68466499541
1712056832962,9839.278249708936
1712056833003,683.8765294384211
1712056833042,-5905.176010772586
1712056833082,112.38724817428738
1712056833122,8145.186755985487
1712056833162,14834.42696076259
1712056833203,17835.72498579696
1712056833243,21298.269049265888
1712056833283,19727.52055187337
1712056833323,22110.53479792364
1712056833363,21920.521820153343
1712056833404,26655.566098888405
1712056833443,14606.876635029912
1712056833483,-12651.378609388135
1712056833524,-15973.827458828455
1712056833564,-11319.371452273568
1712056833605,-542.754573406186
1712056833644,9265.249479622813
1712056833684,2586.57823612052
1712056833724,-9060.625889250077
1712056833764,-13613.469764026115
1712056833805,-7970.993038608227
1712056833844,6327.683469754178
1712056833885,-53141.611604298465
1712056833925,-42103.30664587207
1712056833965,-41363.98625727766
1712056834006,-49769.379508119775
1712056834045,-52924.04200804792
1712056834085,-55448.73207155429
1712056834125,-52397.594299298245
1712056834165,-46102.93827512092
1712056834206,-44113.00971357431
1712056834245,-37721.99501133757
1712056834286,-36967.3111706255
1712056834326,-43942.47224180843
1712056834366,-52655.39518708922
1712056834407,-55336.59877852886
1712056834446,-56774.4705069724
1712056834486,-58125.85838253051
1712056834526,-51995.31049863482
1712056834566,-40011.67621552432
1712056834607,-34857.1385882874
1712056834647,-28174.74931585556
1712056834687,-21870.003676904365
1712056834727,-7056.0959106527735
1712056834767,11072.304948063102
1712056834808,19755.0983175179
1712056834847,35309.1070232871
1712056834887,22423.40570791089
1712056834927,8716.604332521325
1712056834967,2079.7744842465036
1712056835008,19764.03181131254
1712056835047,42353.28476588335
1712056835087,41639.83713891497
1712056835128,29026.886685214005
1712056835168,116009.79430898628
1712056835208,100676.23264579521
1712056835248,98577.40498836152
1712056835288,99800.0479467893
1712056835328,95477.33633163897
1712056835368,94405.7046188272
1712056835409,81705.52359142713
1712056835448,57792.192489339504
1712056835488,42844.40629314538
1712056835528,24262.312301787082
1712056835568,14661.793020422105
1712056835609,7809.421377999941
1712056835649,6036.56847503921
1712056835689,12232.044010186102
1712056835729,18949.278938072268
1712056835769,31006.336114153964
1712056835810,32347.626874800306
1712056835849,30113.233050950803
1712056835889,13378.528894954594
1712056835929,294.05385344894603
1712056835970,-11479.903703477932
1712056836010,-11101.699217782822
1712056836050,-12391.694719206542
1712056836090,-21180.492511444958
1712056836130,-56777.207314631436
1712056836170,-44973.89844890125
1712056836211,-43082.603928118944
1712056836250,-43403.930798217654
1712056836290,-47100.093093143776
1712056836331,-45154.309090975905
1712056836371,-41234.16710567451
1712056836411,-42160.13504976849
1712056836451,-40979.53108541784
1712056836491,-34219.54412812786
1712056836531,-24894.662057922687
1712056836571,-9324.361274808645
1712056836612,6729.956178653985
1712056836651,-1849.3514060257003
1712056836692,-14918.411056930898
1712056836732,-29589.06823380338
1712056836772,-49554.97240462061
1712056836813,-60487.26079354528
1712056836852,-70392.83673770074
1712056836892,-79882.47009308264
1712056836932,-85957.5897632488
1712056836972,-90818.88715325901
1712056837013,-92069.18125107884
1712056837053,-102383.21001221891
1712056837093,-99742.31210368965
1712056837133,-96658.44705349067
1712056837173,-86937.68073147791
1712056837214,-84860.04709449387
1712056837253,-84111.5776675716
1712056837293,-81877.31832478778
1712056837333,-77123.19011260895
1712056837373,-66686.58942344086
1712056837414,-29082.444998031016
1712056837454,-56609.962437650654
1712056837494,-70984.76249635825
1712056837534,-71164.06838630466
1712056837574,-66793.52021228825
1712056837615,-63642.52970317402
1712056837654,-61793.379190644715
1712056837694,-58617.84615628747
1712056837734,-56267.7862261706
1712056837775,-55119.53195892088
1712056837815,-54935.01650301786
1712056837855,-52415.19401040394
1712056837895,-49268.43752728589
1712056837935,-44789.215667101555
1712056837975,-40187.485717394855
1712056838016,-35487.54651068803
1712056838055,-31673.659094551113
1712056838095,-26875.598766239127
1712056838136,-23497.399302696344
1712056838176,-31160.449350897223
1712056838217,-44214.4698212971
1712056838256,-54103.39704040298
1712056838296,-57542.447647755966
1712056838336,-56545.196575321956
1712056838376,-53746.739939761814
1712056838417,-50214.34660331253
1712056838457,-46513.92911103554
1712056838497,-43547.617403166834
1712056838537,-41450.74963509943
1712056838577,-39501.189302704064
1712056838618,-36318.18664127635
1712056838657,-32236.23117069318
1712056838697,-27699.605232430622
1712056838738,-23162.69359314791
1712056838778,-18231.03808997292
1712056838819,-14110.237438963028
1712056838858,-10302.385152856354
1712056838898,-6434.897870205343
1712056838938,-4949.314740525559
1712056838979,-13961.02604685165
1712056839019,-27850.33661765838
1712056839059,-37075.9541147789
1712056839099,-38652.256949901115
1712056839139,-36420.71772087389
1712056839179,-33595.46548312763
1712056839220,-30017.358277488034
1712056839259,-27324.41096715862
1712056839300,-25826.74902514252
1712056839340,-24534.562734057894
1712056839380,-23114.138073583832
1712056839421,-19900.97392467456
1712056839460,-15908.71355912718
1712056839500,-12047.449949640548
1712056839541,-8096.930147797102
1712056839581,-3983.537606571801
1712056839621,-235.55236474284902
1712056839661,3153.182335066609
1712056839701,5995.5810700543225
1712056839741,7656.185939833289
1712056839781,-1127.451845550444
1712056839822,-15123.503834366566
1712056839862,-24763.247671453515
1712056839902,-27058.126314520836
1712056839942,-25772.193779033143
1712056839982,-22444.81207227381
1712056840023,-18950.109792076517
1712056840062,-16321.487239863258
1712056840103,-15522.470851927064
1712056840143,-14251.865744603332
1712056840183,-11400.33488516137
1712056840223,-7804.445973924827
1712056840263,-4308.16997661069
1712056840303,-428.1376281771809
1712056840343,3339.1822973927483
1712056840383,6526.59095145436
1712056840424,9294.285570809618
1712056840463,11950.664856603136
1712056840503,14003.283058278263
1712056840544,6621.020431783283
1712056840584,-6942.470592943486
1712056840624,-16474.636225343915
1712056840664,-18984.966690381523
1712056840704,-17626.10497153341
1712056840744,-15283.77778120339
1712056840784,-11731.13044352131
1712056840825,-9567.769202919677
1712056840864,-10225.150346172042
1712056840904,-11477.973728478886
1712056840944,-11735.719767580042
1712056840985,-10004.412591109984
1712056841025,-7366.811005807249
1712056841065,-3986.9379982450046
1712056841105,-259.2297915495001
1712056841145,2870.014513404807
1712056841185,5535.223539856728
1712056841226,8458.539279463002
1712056841265,9030.951689741574
1712056841305,-956.0533049593214
1712056841345,-14777.088185195113
1712056841386,-23757.784003465902
1712056841426,-25958.569135919213
1712056841466,-25228.275583522627
1712056841506,-22897.411667361157
1712056841546,-20119.730223608436
1712056841586,-18583.537830623798
1712056841627,-17616.426179134287
1712056841666,-17339.83833213197
1712056841706,-16414.360437713563
1712056841747,-13779.445310242241
1712056841787,-10437.00866927416
1712056841827,-6531.430316736922
1712056841867,-2489.8344332426786
1712056841907,818.4621320574079
1712056841947,4295.4778970177285
1712056841987,6934.179878653493
1712056842028,9968.47968538804
1712056842067,11459.126021254808
1712056842108,2374.068509713048
1712056842148,-11912.886069001863
1712056842188,-21852.294768288964
1712056842229,-24562.315097332234
1712056842268,-23864.787479288876
1712056842308,-22625.044550566934
1712056842348,-20424.50933942385
1712056842388,-18847.010355496546
1712056842429,-18648.668823561165
1712056842469,-18987.66634751251
1712056842508,-18367.532995317597
1712056842549,-16177.98410307942
1712056842589,-12542.027496545343
1712056842630,-9284.181038065115
1712056842669,-5323.646380767226
1712056842709,-1698.0299322949722
1712056842749,1594.4888158871327
1712056842789,4110.738989672624
1712056842830,6666.433376131579
1712056842869,9159.060784985777
1712056842910,11040.013723491225
1712056842950,12137.254819882568
1712056842990,1571.7950174650177
1712056843031,-12754.237743669655
1712056843070,-21546.10956861521
1712056843110,-23357.284339221427
1712056843150,-22866.78854367556
1712056843190,-21530.829833497526
1712056843231,-19669.55634087394
1712056843270,-18535.889958078507
1712056843311,-18499.294570362195
1712056843351,-17677.71321845567
1712056843391,-16218.758297930937
1712056843432,-13415.254645774607
1712056843471,-9813.266143281478
1712056843511,-5867.836516800104
1712056843551,-2311.3972621865105
1712056843591,1750.711262662895
1712056843632,4726.025858245324
1712056843672,8203.895658911206
1712056843712,11160.977264439221
1712056843752,14017.537188204937
1712056843792,16626.10199689027
1712056843833,19109.98398758401
1712056843872,16898.43085165415
1712056843912,3397.986840603873
1712056843952,-9340.034240385052
1712056843992,-14821.244456541259
1712056844033,-14991.983662786195
1712056844073,-13978.098237904953
1712056844113,-12367.836710777832
1712056844153,-10246.477544634603
1712056844193,-9593.882462091744
1712056844234,-10004.629535464803
1712056844273,-9850.874279513024
1712056844313,-8394.81347888615
1712056844354,-5416.187959467992
1712056844394,-1668.9687431030907
1712056844435,1418.3747001893353
1712056844474,4840.831914616749
1712056844514,7766.5180166433565
1712056844554,10952.581964537967
1712056844594,13459.10643321462
1712056844635,15630.623302056454
1712056844675,18282.87437906675
1712056844715,20652.35289941402
1712056844755,22652.602302190382
1712056844795,14723.63451846689
1712056844836,2108.3080847733654
1712056844875,-6343.461501582991
1712056844915,-8108.185347966384
1712056844956,-6792.49829006521
1712056844996,-4405.062639385462
1712056845037,-2226.2598097515292
1712056845076,-1260.517245178111
1712056845116,-1252.477787708398
1712056845156,-1634.5951776658185
1712056845196,-1208.047682410106
1712056845237,1170.1417824360542
1712056845277,4351.428125811275
1712056845317,7730.245253473986
1712056845357,11240.075014146743
1712056845397,13880.090370977763
1712056845438,16400.11544232047
1712056845478,18677.593645865563
1712056845518,20947.779444735963
1712056845558,23409.563066897914
1712056845598,22107.129651597934
1712056845639,10317.705382685876
1712056845678,-1466.800623292802
1712056845718,-6950.255482788896
1712056845758,-7821.719444597606
1712056845798,-6620.99635717459
1712056845839,-5479.446042559575
1712056845879,-3282.516858560499
1712056845919,-2765.170831814874
1712056845959,-3523.4187664384954
1712056845999,-3621.806528444402
1712056846040,-1889.2030994486995
1712056846080,281.36957102664746
1712056846120,3497.724381531123
1712056846160,6034.1333423173055
1712056846200,9354.756139347795
1712056846241,11708.480289645493
1712056846280,13623.593515173998
1712056846320,15439.837687361753
1712056846360,17159.85838479665
1712056846401,18693.124475546647
1712056846442,19939.639537468087
1712056846481,12850.51161805261
1712056846521,-1547.5453112509567
1712056846561,-12446.196766898967
1712056846601,-16296.633979534032
1712056846642,-16736.718388437293
1712056846681,-16238.213663704693
1712056846722,-15542.544125907589
1712056846762,-14382.82021963317
1712056846802,-14418.65984434099
1712056846842,-14513.888870564755
1712056846882,-13846.904046392767
1712056846922,-12051.355289224768
1712056846962,-9363.360411528032
1712056847002,-5407.700376656838
1712056847043,-2094.188940402586
1712056847082,1335.1649247547612
1712056847122,4029.210071180016
1712056847163,6753.34039029805
1712056847203,8930.400790467393
1712056847243,11480.75082337996
1712056847283,13472.284639459103
1712056847323,15294.784872374032
1712056847363,18003.619918131968
1712056847403,18989.239652038086
1712056847444,9021.387119438965
1712056847483,-6053.426770484308
1712056847524,-14965.204909881111
1712056847564,-17935.76067122072
1712056847604,-18094.458528662333
1712056847645,-18036.777981135063
1712056847684,-17502.344295241404
1712056847724,-16367.377966714557
1712056847764,-16309.289940441959
1712056847804,-16442.225721887546
1712056847845,-15474.460069722496
1712056847885,-13507.238739675144
1712056847925,-10271.77569180238
1712056847965,-6485.357364836615
1712056848005,-3042.0416499762796
1712056848046,96.47896682145074
1712056848085,2861.083112874534
1712056848125,5977.34449618822
1712056848165,8685.526705758646
1712056848205,11602.870457885787
1712056848246,14451.121300465195
1712056848286,16990.363665401703
1712056848326,19573.908490588423
1712056848366,22196.76755570993
1712056848406,21939.28164353408
1712056848447,9848.33598354645
1712056848486,-3632.0675658935215
1712056848526,-11019.135660413653
1712056848566,-13213.738091863692
1712056848606,-13293.722899472108
1712056848647,-13000.143666922348
1712056848686,-11764.622414459242
1712056848727,-11728.719576445874
1712056848767,-11509.157590386923
1712056848807,-11768.503301065182
1712056848848,-11097.496283695567
1712056848887,-9029.244402812328
1712056848927,-6079.429979634471
1712056848967,-2294.466608368326
1712056849007,1212.815569350263
1712056849048,4187.648278247565
1712056849088,7393.047493778402
1712056849128,9710.221468612552
1712056849168,12748.251639726572
1712056849208,15086.105995903257
1712056849249,17367.762077950872
1712056849288,19928.66671420005
1712056849328,22015.89540889603
1712056849368,24612.698411639314
1712056849408,26512.719367729966
1712056849449,19753.32610260509
1712056849489,5298.482093125815
1712056849529,-5218.5101287206635
1712056849569,-9188.675215240568
1712056849609,-9094.101046978496
1712056849650,-8623.585590876406
1712056849689,-7872.5096840066835
1712056849729,-7077.427041037474
1712056849769,-7277.426548548741
1712056849810,-7860.083247421775
1712056849850,-7492.4379555427
1712056849890,-6181.001997114625
1712056849930,-3440.957377615152
1712056849970,-313.5316785555333
1712056850010,3108.7076780141797
1712056850051,6624.254556879401
1712056850090,9293.555800513364
1712056850131,12303.166558361845
1712056850171,14497.141079423483
1712056850211,16724.692538264673
1712056850252,19115.436857731314
1712056850291,20805.072276637657
1712056850331,23096.681898711016
1712056850371,25436.896770513617
1712056850412,26926.06405897718
1712056850452,18276.021303699352
1712056850492,5100.751281940378
1712056850532,-3040.188310588477
1712056850572,-5586.821091267513
1712056850612,-5518.037951249629
1712056850653,-4590.365884471685
1712056850693,-3719.213853348745
1712056850733,-3018.5700148514006
1712056850773,-3567.6992724351585
1712056850813,-4470.824568595272
1712056850854,-4173.911418620963
1712056850893,-2586.174885538174
1712056850933,-210.53008544933982
1712056850973,2838.337733207736
1712056851014,5703.9702655703295
1712056851054,8802.290321613662
1712056851094,11647.711880023126
1712056851134,14163.820765631273
1712056851174,16215.24317673361
1712056851214,17888.98502893513
1712056851255,19503.554586597485
1712056851294,21566.11649815133
1712056851334,23032.856516510714
1712056851375,23936.345014699735
1712056851415,15212.356597652426
1712056851455,4117.412009503227
1712056851495,-1771.4809728364926
1712056851535,-3054.7441023844294
1712056851575,-1738.9272194711957
1712056851615,-682.6445707883686
1712056851656,58.90650446759537
1712056851696,-212.958109481493
1712056851736,-1326.3948290692642
1712056851776,-2464.1448966814205
1712056851816,-2543.500449725194
1712056851857,-943.8731297194026
1712056851896,1509.453365559224
1712056851937,3642.7427678080276
1712056851977,6089.316545686917
1712056852017,8534.497305687983
1712056852058,10285.570596286561
1712056852097,12558.346434689127
1712056852137,13667.58667619573
1712056852177,15278.264901964925
1712056852218,16851.01502622431
1712056852258,17390.79860255099
1712056852298,8420.892388391308
1712056852338,-3473.6255907248706
1712056852378,-9917.286022812594
1712056852418,-11401.127583495807
1712056852459,-10870.213951155543
1712056852498,-10815.10309475474
1712056852539,-9339.85133825196
1712056852579,-9813.757609225344
1712056852619,-9986.453942773165
1712056852660,-10793.5934730242
1712056852699,-10418.016404194757
1712056852739,-8533.631049226504
1712056852779,-3445.1905438117683
1712056852820,-940.8532616524026
1712056852860,1460.9847668972798
1712056852900,4112.25758215785
1712056852940,6808.65749173332
1712056852980,8717.971654184395
1712056853020,10068.967840242432
1712056853061,12111.453799198149
1712056853100,14517.533775527496
1712056853140,16753.67552553024
1712056853180,10551.787749593146
1712056853220,-1570.8529023062438
1712056853261,-10699.837925641565
1712056853301,-14497.357362072915
1712056853341,-15279.38869739836
1712056853381,-16144.702242078027
1712056853421,-15567.670073532965
1712056853462,-15413.776186953066
1712056853501,-14856.682972980663
1712056853541,-15016.431895016227
1712056853581,-14830.709125253372
1712056853622,-12769.177696885075
1712056853663,-10415.288063894259
1712056853702,-7192.776121346746
1712056853742,-4164.638071716297
1712056853782,-297.4494914433453
1712056853822,2149.9765080942307
1712056853863,4539.013730614446
1712056853902,6769.20808269782
1712056853942,9581.146505358629
1712056853982,11978.547316822223
1712056854023,14091.746494639898
1712056854063,16180.607622560114
1712056854103,19031.09411106468
1712056854143,20177.7200685977
1712056854183,10618.578867406351
1712056854223,-2126.1608599142637
1712056854264,-8875.60645597335
1712056854303,-11288.461746099638
1712056854343,-12021.017221353017
1712056854384,-12156.01086315047
1712056854424,-12132.8570579628
1712056854464,-11407.928594671423
1712056854504,-11635.890418210998
1712056854544,-11409.051170001272
1712056854584,-10630.780384081416
1712056854624,-8278.045050975867
1712056854665,-5321.712743531447
1712056854704,-2490.6930297045037
1712056854744,800.3076232748572
1712056854785,3652.63434281433
1712056854825,5961.133229282452
1712056854865,8408.710824951064
1712056854905,10337.646361046936
1712056854945,12639.982409649994
1712056854985,15010.4868639349
1712056855025,17208.46145732887
1712056855066,19159.459794807248
1712056855106,21702.66467148997
1712056855146,23461.97100552311
1712056855186,14709.628302437253
1712056855226,2750.0229876823723
1712056855267,-4702.35400562943
1712056855306,-6725.458858396858
1712056855346,-7074.759730009129
1712056855386,-7347.774696914945
1712056855426,-7005.125241657253
1712056855467,-6858.035263337661
1712056855507,-6915.198784867302
1712056855547,-7780.198377356632
1712056855587,-6599.6707858133595
1712056855627,-4843.331199504435
1712056855668,-2012.1064158612862
1712056855707,586.9657538963947
1712056855747,3483.3076931117103
1712056855787,5417.534169459948
1712056855828,7716.041418996174
1712056855869,9954.121078478638
1712056855908,12372.072420852724
1712056855948,14493.540675844299
1712056855988,16486.00223467173
1712056856028,18745.09153881902
1712056856069,20673.39599389187
1712056856109,22865.380170846358
1712056856149,23460.39647581405
1712056856189,14404.698903592303
1712056856229,3292.9078887659125
1712056856270,-2744.870709257666
1712056856309,-4349.4112215577625
1712056856349,-4438.61210723035
1712056856389,-4410.005481318338
1712056856430,-3802.203625862021
1712056856470,-3929.4220736166462
1712056856510,-4083.215710885357
1712056856550,-4557.614833350992
1712056856590,-3977.414516378194
1712056856630,-2160.0210197491106
1712056856671,319.78072399040684
1712056856711,3108.0663875164464
1712056856751,6082.169418324251
1712056856791,8586.399021322373
1712056856831,10884.302215727977
1712056856872,12677.865151057485
1712056856911,14602.729244505521
1712056856951,16774.46846900438
1712056856992,18823.307578369044
1712056857032,20941.78373980103
1712056857073,22898.453628143994
1712056857112,24939.712378172437
1712056857152,26679.039547668304
1712056857192,20503.69246581709
1712056857232,9910.463618821697
1712056857273,2785.486532501178
1712056857313,651.2112376159057
1712056857353,862.1859447835013
1712056857393,1464.3893989182543
1712056857433,2562.0692779780366
1712056857474,3056.3920195687097
1712056857514,2844.9515981536824
1712056857554,1655.2032260387205
1712056857594,1832.4906829637475
1712056857634,2903.4697039420716
1712056857675,5421.6811706086155
1712056857714,7542.354371399619
1712056857755,10676.713616460795
1712056857795,13012.498148604529
1712056857835,15303.205016940832
1712056857876,17204.573392831022
1712056857915,18119.64281622204
1712056857955,19622.689238983206
1712056857996,20772.385239808355
1712056858036,22162.18270355882
1712056858077,23501.436848283745
1712056858116,19328.053975633346
1712056858156,9459.322933218675
1712056858196,2420.829323801212
1712056858237,190.7397290475201
1712056858277,350.76662264345214
1712056858317,1085.9301254483871
1712056858357,2257.5513790389523
1712056858397,2644.7398895761
1712056858437,2027.8924047062173
1712056858478,1391.8735923110507
1712056858518,1405.369589010952
1712056858558,2352.080613252474
1712056858598,4370.314861935563
1712056858638,6294.390213215491
1712056858679,8634.369432731997
1712056858718,10436.779673416633
1712056858758,12451.064868983347
1712056858798,14384.40209023445
1712056858838,16098.007433822844
1712056858879,17529.65275556734
1712056858918,19081.986922589364
1712056858959,20380.47222193703
1712056858999,22393.667847790988
1712056859039,22617.687038172968
1712056859080,13191.162249904592
1712056859119,2907.6912875422277
1712056859159,-3023.6201132959686
1712056859199,-4152.358644879889
1712056859239,-4951.019218730275
1712056859280,-5462.788295954233
1712056859320,-5091.053396217525
1712056859360,-5281.222774775699
1712056859400,-5564.828136318829
1712056859440,-6430.422970345011
1712056859480,-5692.4052293621935
1712056859520,-4696.922890634276
1712056859560,-2378.0870974527206
1712056859600,-159.75348600000143
1712056859640,2230.379334414145
1712056859681,4313.0655625045765
1712056859720,6097.917604601476
1712056859761,7752.6812831303105
1712056859801,9341.470918149455
1712056859841,10743.722355513368
1712056859882,12797.547541623935
1712056859921,14853.084501943085
1712056859961,16936.727812478086
1712056860001,18748.64220129093
1712056860041,12028.61802591267
1712056860082,415.97890263050795
1712056860121,-6768.781616947148
1712056860162,-9062.094006101135
1712056860202,-9079.100120552117
1712056860242,-9225.504249745747
1712056860283,-9665.838546160143
1712056860322,-10270.359842438484
1712056860362,-10206.548043722752
1712056860402,-11130.535713690799
1712056860442,-10908.610392338596
1712056860483,-9942.629207179882
1712056860523,-7355.049408091698
1712056860562,-4666.993615310639
1712056860603,-2461.7961868185084
1712056860643,55.91964196879417
1712056860684,2233.9724634024315
1712056860723,4393.262425091118
1712056860763,6071.3578603356145
1712056860803,8091.819780450081
1712056860843,10123.752370672766
1712056860884,11763.540652391966
1712056860923,13377.932264721952
1712056860964,15361.315647782292
1712056861004,15175.931211900432
1712056861044,5201.603502163198
1712056861085,-4953.497754485346
1712056861124,-10166.922989888582
1712056861164,-11148.526793351397
1712056861204,-11366.017089211615
1712056861245,-11399.613792551216
1712056861285,-10890.424246841809
1712056861325,-10327.98672277527
1712056861365,-10493.829420369584
1712056861405,-11482.67456500791
1712056861445,-11203.873664778192
1712056861486,-9727.222410729155
1712056861525,-7354.419380245265
1712056861565,-4396.835276117781
1712056861606,-1540.6380183603615
1712056861646,462.46682948665693
1712056861686,2803.982499845326
1712056861726,5029.6414716448635
1712056861766,7339.831479217857
1712056861806,8920.7173187898
1712056861846,10904.008909549098
1712056861887,13364.004103201441
1712056861926,14906.288033110555
1712056861967,17063.22314826562
1712056862007,15756.108719861135
1712056862047,5852.832680852618
1712056862088,-3002.4950791369192
1712056862127,-7617.534077171702
1712056862167,-8065.594981475733
1712056862207,-8060.909097486641
1712056862247,-7571.769998774631
1712056862288,-6713.985258482164
1712056862328,-6755.024640605785
1712056862368,-7765.439807848539
1712056862408,-7959.39297500439
1712056862448,-7636.046457004268
1712056862489,-5449.367308872519
1712056862528,-3107.267032017
1712056862569,-660.5722521811258
1712056862609,1660.0996448616497
1712056862649,3713.334959326079
1712056862690,5506.65990871191
1712056862729,7430.983358304482
1712056862769,9110.862751012668
1712056862810,10806.724353306694
1712056862849,12842.738695201697
1712056862890,14518.576814426575
1712056862930,13566.646209731698
1712056862970,3837.615641614888
1712056863010,-4168.444847839652
1712056863050,-7639.237305234419
1712056863091,-7203.7201249464415
1712056863130,-6677.899313244037
1712056863171,-5891.449774737004
1712056863211,-4457.593722232617
1712056863251,-4983.956834406359
1712056863292,-5342.496104652062
1712056863331,-5789.474284628639
1712056863371,-4939.899837555829
1712056863412,-3015.980092414189
1712056863452,-408.33886446850374
1712056863492,2478.9264837913215
1712056863532,4660.035490801791
1712056863572,6584.0766976366285
1712056863612,8517.626046577236
1712056863653,10560.91798367817
1712056863693,12169.523856271757
1712056863733,13889.490240310086
1712056863773,14987.045165926917
1712056863813,15970.04762943997
1712056863853,7914.17745286203
1712056863894,-1550.1213440969586
1712056863933,-7052.513859686442
1712056863973,-8303.11535323481
1712056864014,-8568.67964817211
1712056864054,-8692.717669734266
1712056864095,-7934.63777531567
1712056864134,-8008.4663244513795
1712056864174,-7984.209860047558
1712056864214,-8818.675069391727
1712056864255,-8063.209783014841
1712056864295,-6836.472463825019
1712056864335,-4404.046446150169
1712056864375,-1955.0512866084464
1712056864415,559.9668957975227
1712056864455,2770.1502112406306
1712056864496,4487.547980367672
1712056864536,6594.15006654826
1712056864576,8362.7845076737
1712056864616,10181.506880257744
1712056864656,11872.958709827159
1712056864697,13934.439896609168
1712056864736,16054.264988072915
1712056864777,8699.117006665329
1712056864817,-985.8193863641936
1712056864857,-6246.621568483766
1712056864897,-7556.196300172713
1712056864937,-8240.27498986153
1712056864977,-8623.29759222176
1712056865017,-8556.84761078516
1712056865057,-8013.712924344931
1712056865098,-8498.490658152848
1712056865137,-8634.548167067813
1712056865177,-8084.9534357255325
1712056865218,-6507.2223112026695
1712056865258,-4389.609768714523
1712056865298,-1815.9342898256145
1712056865338,797.7425615089014
1712056865378,3061.0564408937935
1712056865418,5550.1854643658735
1712056865458,7800.734103184892
1712056865499,9548.119274117518
1712056865538,11861.660198829835
1712056865579,13408.668664325727
1712056865619,14869.973553442862
1712056865659,16467.384256361984
1712056865700,18832.226610277314
1712056865739,16712.296086654067
1712056865779,6784.894092177739
1712056865819,-1151.7665315181948
1712056865859,-4463.628394695697
1712056865900,-4904.876033904962
1712056865939,-5422.065421481151
1712056865979,-5326.3433182565495
1712056866019,-5112.238079668721
1712056866060,-4815.658435797319
1712056866100,-5488.405204799958
1712056866140,-5768.984866343206
1712056866180,-4624.560265027219
1712056866220,-2922.066416775342
1712056866260,-616.3877083130646
1712056866301,1519.0050708088093
1712056866340,3928.7284138049
1712056866380,5738.260789861204
1712056866421,8027.128053230932
1712056866461,9345.533435290912
1712056866501,11445.32395560923
1712056866541,13314.707605697447
1712056866581,15184.093482778873
1712056866621,16752.655211080564
1712056866661,18961.354436551686
1712056866702,16725.306847186293
1712056866741,7808.125511045568
1712056866782,1080.7617980493233
1712056866822,-2039.4558115892578
1712056866862,-1814.1353930381592
1712056866903,-812.8186620734632
1712056866942,-538.1083480571397
1712056866982,215.62596927117556
1712056867022,-80.66759608034045
1712056867062,-79.56801089923829
1712056867103,-174.2316384036094
1712056867143,783.9574446333572
1712056867183,1953.860399207333
1712056867223,4659.333727780497
1712056867263,6851.660444647074
1712056867304,8932.305940929335
1712056867343,10798.636287009344
1712056867383,12329.116703109583
1712056867423,13726.684617784107
1712056867464,14837.0657058598
1712056867504,16512.205232393928
1712056867544,18296.95228236448
1712056867584,17234.180024775676
1712056867624,8765.74158444209
1712056867664,2492.047573534306
1712056867705,-109.04118986846879
1712056867744,13.582329999422655
1712056867784,646.0444639192428
1712056867825,669.9599273931235
1712056867865,1199.6186779655982
1712056867905,667.920950077707
1712056867945,-672.1302506616339
1712056867985,-669.317152091302
1712056868025,-368.00583400577307
1712056868065,1024.9622418424115
1712056868106,2896.100642250618
1712056868145,4896.971843471751
1712056868186,6679.762192763854
1712056868226,7930.007120547816
1712056868266,9568.775984073523
1712056868307,11077.547881512903
1712056868346,13361.960874836659
1712056868386,14429.204228862189
1712056868426,11346.138867133763
1712056868467,2861.734095144784
1712056868507,-3292.415872863494
1712056868547,-5855.524643505458
1712056868587,-6190.737632682547
1712056868629,-6434.607177709928
1712056868669,-6510.228642681148
1712056868710,-6483.247313515982
1712056868749,-7092.969576021191
1712056868790,-8067.295159147121
1712056868830,-7717.503989172867
1712056868870,-6853.515628505498
1712056868911,-5297.9232994597405
1712056868950,-3703.342822369188
1712056868990,-2054.722771361936
1712056869030,-458.38969124108553
1712056869071,1343.4503782740794
1712056869111,2874.972426004242
1712056869151,4767.871609631926
1712056869191,6440.149877566379
1712056869231,7784.201187893748
1712056869271,8020.614138765959
1712056869312,964.6092690560035
1712056869352,-8063.72930646874
1712056869392,-12327.599235560512
1712056869432,-14226.426441858057
1712056869472,-15095.425990614574
1712056869513,-15928.13245643326
1712056869552,-16159.302010450745
1712056869592,-16474.928030535113
1712056869633,-17284.785618684255
1712056869673,-17398.082556813257
1712056869713,-17023.588977715466
1712056869753,-15320.791348598665
1712056869793,-13773.670423106523
1712056869833,-11215.358843270456
1712056869873,-8807.28892112337
1712056869914,-6382.353681358276
1712056869954,-4071.79388376954
1712056869994,-2070.3076348211616
1712056870034,144.17814260395244
1712056870074,1817.2596982649993
1712056870115,3153.2089904383756
1712056870155,5027.466493982123
1712056870195,516.6272345709149
1712056870235,-8421.7876288048
1712056870275,-14573.162273427937
1712056870316,-16888.82792987721
1712056870355,-18198.32199631934
1712056870396,-19135.841532128165
1712056870436,-19421.354919725796
1712056870476,-19311.942276244517
1712056870517,-19024.11538500036
1712056870556,-19355.612342670094
1712056870596,-18523.611693915445
1712056870636,-16943.185176411644
1712056870677,-15024.989359113388
1712056870717,-12295.523269329686
1712056870757,-9781.417230953928
1712056870797,-7405.399659220362
1712056870837,-5022.97424318688
1712056870877,-2800.1715430899058
1712056870918,-682.1784217185341
1712056870957,1419.1259296496864
1712056870998,3956.950430443976
1712056871037,6087.385584330186
1712056871078,8177.604880576022
1712056871118,7630.926115324488
1712056871158,-1121.6430027347524
1712056871198,-8811.021881188499
1712056871238,-12001.789651176194
1712056871278,-13297.401453032391
1712056871319,-13852.63827087218
1712056871358,-13982.224493128713
1712056871398,-13547.85768977576
1712056871438,-13279.680725040147
1712056871479,-13207.85726806568
1712056871519,-12753.07432912779
1712056871559,-11427.598745420575
1712056871599,-9279.218338616658
1712056871639,-6597.831731199287
1712056871679,-3912.130403987132
1712056871720,-1420.8746553761885
1712056871759,951.5449707976077
1712056871799,2712.3328106990084
1712056871840,5247.03994131973
1712056871880,7341.315836059395
1712056871920,9362.898368482245
1712056871960,11720.5947026012
1712056872000,13397.290059057064
1712056872040,13784.056947044563
1712056872080,7257.905959658325
1712056872121,-467.73918178025633
1712056872160,-4107.231648505665
1712056872201,-5143.94444104447
1712056872241,-5092.360172740649
1712056872281,-5673.989794624038
1712056872322,-4466.7440728785
1712056872361,-4643.288572135381
1712056872401,-5071.507177991793
1712056872441,-5075.277853704756
1712056872481,-4105.103375470731
1712056872522,-2191.9740368176717
1712056872561,-344.48148278845474
1712056872601,2194.9535013600253
1712056872642,3843.6615505083464
1712056872682,6738.124468092341
1712056872722,7825.656923397444
1712056872762,9640.10295185307
1712056872802,11237.262164077722
1712056872842,13142.845792451873
1712056872882,14090.201999143232
1712056872923,8504.477222878486
1712056872962,1267.304253097158
1712056873002,-3068.2600654657
1712056873043,-4329.624828821514
1712056873083,-4340.051685219631
1712056873123,-4177.939658586867
1712056873163,-3427.255832133582
1712056873203,-2876.933410913218
1712056873243,-2738.8394807998557
1712056873283,-2208.7080627898686
1712056873324,-405.909380779136
1712056873363,903.7306435406208
1712056873404,2768.413085065782
1712056873444,4655.673953495454
1712056873484,7004.572958125267
1712056873525,9153.771362958476
1712056873564,11443.756134159165
1712056873604,12916.335239402018
1712056873644,14942.342917006463
1712056873684,16866.00482446258
1712056873725,18550.52106435201
1712056873765,20846.34182067658
1712056873805,17928.30474031903
1712056873845,10244.475914106471
1712056873885,2985.6320616509765
1712056873926,1039.7205346976407
1712056873965,-717.4059199930634
1712056874005,-989.5697011714801
1712056874045,-1491.2075458620675
1712056874086,-1201.0472020639572
1712056874126,-1330.7086312135216
1712056874166,-1460.798982729204
1712056874206,-1124.9223554786295
1712056874246,-544.6413431549445
1712056874286,1164.1581362106372
1712056874327,3608.3825332298875
1712056874367,6036.091917190235
1712056874407,8256.96314581018
1712056874447,10338.299904718762
1712056874487,12416.895764476852
1712056874528,13648.150257108733
1712056874567,14704.130664827768
1712056874608,16005.814003300387
1712056874647,18120.559474702226
1712056874688,19527.887015013956
1712056874729,18958.062913253903
1712056874768,11468.536788023543
1712056874808,4028.9801996902097
1712056874848,348.2671013472136
1712056874888,-493.34420684934594
1712056874929,-1124.2629224653356
1712056874969,-1225.2863559157122
1712056875009,-692.6827106191777
1712056875049,-1277.411171251908
1712056875089,-3.196644048439339
1712056875130,-387.2666638912633
1712056875169,1046.4836907088757
1712056875209,2002.8920039818622
1712056875249,4461.188933534548
1712056875290,6473.4144242359325
1712056875331,8637.360794265987
1712056875370,10974.860505037708
1712056875410,13230.448823519284
1712056875450,14896.30424561794
1712056875490,16518.099521251395
1712056875531,18250.515589230927
1712056875571,19342.85032260255
1712056875611,21476.44769455935
1712056875651,23316.13545931829
1712056875691,20536.459185679443
1712056875732,12264.062000935432
1712056875771,6088.319026887417
1712056875811,4024.7564705400728
1712056875851,4349.662585349986
1712056875891,4310.68834323436
1712056875932,4421.905317593832
1712056875972,5108.892828971846
1712056876012,5298.699769725557
1712056876052,4905.200655715074
1712056876092,4704.849051916506
1712056876133,5768.839508478995
1712056876173,6862.226382709807
1712056876212,9015.181521823863
1712056876253,10413.46343137999
1712056876293,12180.911517671775
1712056876334,13691.89779533795
1712056876373,14371.954523378052
1712056876413,15495.294280436821
1712056876453,16321.43380865804
1712056876494,18083.653724126518
1712056876534,18378.016611333238
1712056876574,13341.168513934826
1712056876614,5435.447642891202
1712056876654,982.1344998488203
1712056876694,-483.3088901967276
1712056876735,4.3025971706956625
1712056876775,-416.504540017806
1712056876815,77.89996515819803
1712056876855,398.627080473816
1712056876895,-621.3040083539672
1712056876936,-1218.339323665714
1712056876975,-1100.1261671353132
1712056877016,318.0044808778912
1712056877056,1797.1122604361735
1712056877096,6039.387125222478
1712056877136,7334.32545247348
1712056877176,8927.0461169302
1712056877216,9919.815721089952
1712056877256,11100.08449944784
1712056877296,11917.831361846998
1712056877337,13406.32389903767
1712056877376,13839.591413372895
1712056877416,7049.146633463446
1712056877456,-797.89701599814
1712056877497,-6145.177862961777
1712056877537,-7205.245760931633
1712056877577,-7556.526232170407
1712056877617,-7769.783283425262
1712056877657,-7508.944309616927
1712056877697,-7333.651712416671
1712056877738,-7600.879619374406
1712056877777,-8065.787262719823
1712056877817,-7706.179114388302
1712056877858,-6793.991407526657
1712056877898,-4584.382548683556
1712056877938,-2856.336775973439
1712056877978,-134.01025919103995
1712056878018,1242.69308731216
1712056878058,3623.0517341517843
1712056878098,5416.162557725096
1712056878139,7000.3748264559545
1712056878178,9047.369378171396
1712056878219,10221.782834219513
1712056878258,12215.018477012869
1712056878299,12986.425410483964
1712056878339,6972.607560155913
1712056878379,-2581.447428340558
1712056878419,-7918.695910706185
1712056878459,-10006.147911465727
1712056878499,-10049.918126416393
1712056878540,-10421.747800632147
1712056878579,-10565.718114143703
1712056878619,-10529.789337189402
1712056878659,-10859.562573886244
1712056878700,-10831.036005451577
1712056878740,-10802.436571897473
1712056878780,-9099.280604452593
1712056878820,-7546.400115865283
1712056878860,-5213.114708355162
1712056878900,-2894.785346520599
1712056878941,-958.336029779166
1712056878980,960.6727109258063
1712056879021,3058.9910303463694
1712056879061,4485.576011242112
1712056879101,6216.345847883029
1712056879141,8026.266676116269
1712056879181,9925.09023755812
1712056879221,7474.461307658348
1712056879261,-2462.3216726400424
1712056879301,-9823.38603647938
1712056879342,-12477.502661486156
1712056879381,-13054.557429074775
1712056879422,-12749.870807577157
1712056879462,-12923.208529937081
1712056879502,-12167.730777649675
1712056879543,-11950.634139466798
1712056879582,-12378.672121722717
1712056879622,-11901.533594206907
1712056879663,-10973.34288204112
1712056879702,-9513.097106124274
1712056879743,-6649.506885297596
1712056879783,-3865.8620887061115
1712056879823,-1343.7144566369243
1712056879863,1152.5897943736054
1712056879903,3336.280501177069
1712056879944,5163.149869895773
1712056879983,6884.920338934753
1712056880023,8826.761012817267
1712056880063,9960.309252248146
1712056880104,3301.0593540766276
1712056880144,-5313.243526460137
1712056880184,-10139.549201160902
1712056880224,-10613.932620913256
1712056880264,-9825.156941581517
1712056880304,-9224.343771669082
1712056880345,-7628.4395366143435
1712056880384,-6922.629536839668
1712056880424,-7247.03184943134
1712056880465,-7821.0675082607195
1712056880505,-6769.831485882867
1712056880545,-5057.267100600759
1712056880585,-2981.5100372827146
1712056880625,-1255.2777466503903
1712056880664,945.4699674134608
1712056880704,2650.291278545512
1712056880745,4571.7140536780935
1712056880785,6159.790418120101
1712056880825,7766.900312481681
1712056880865,4571.661452648696
1712056880905,-4570.309940253384
1712056880946,-10779.965207332745
1712056880985,-12794.63119070232
1712056881025,-12711.807250170037
1712056881066,-12447.70656740712
1712056881106,-11876.045590609312
1712056881147,-11176.933424476301
1712056881186,-11886.594750070013
1712056881226,-12027.030683691613
1712056881266,-11692.558719892986
1712056881306,-10006.382964963326
1712056881347,-7507.650959068909
1712056881387,-4894.374668400269
1712056881427,-2603.3864654842764
1712056881467,-138.3284146497026
1712056881507,1551.3083605007268
1712056881548,3337.9214791306295
1712056881587,5309.096779110376
1712056881627,6748.1587394038215
1712056881668,1174.5575229735114
1712056881708,-7100.847799722804
1712056881748,-12391.788088698406
1712056881788,-14443.628056219546
1712056881828,-14701.982634611893
1712056881868,-14580.488128748257
1712056881908,-13518.027198625961
1712056881949,-12943.202065432211
1712056881989,-12715.587100659963
1712056882029,-12818.732384350616
1712056882069,-12109.23692326597
1712056882109,-10366.227915471885
1712056882150,-8173.181193280965
1712056882190,-5555.295203960035
1712056882230,-3037.036584048532
1712056882270,-1009.6083729118109
1712056882310,1386.3808115192223
1712056882351,3764.222511677537
1712056882390,5768.690837511327
1712056882430,7878.749739949359
1712056882470,10034.755975220818
1712056882511,9026.824886541814
1712056882552,295.2732244913932
1712056882591,-7629.769840557827
1712056882631,-11007.745285296114
1712056882671,-11652.790819796268
1712056882711,-12094.908607780468
1712056882752,-12776.698692994658
1712056882792,-11995.912569162901
1712056882832,-11707.266118190251
1712056882872,-11404.136741536902
1712056882912,-11585.17724766233
1712056882953,-10410.59139050683
1712056882992,-8450.859900689218
1712056883033,-5704.776012556162
1712056883073,-3171.5373393129557
1712056883113,-795.5814333704766
1712056883154,716.3766365670599
1712056883193,2685.191311545437
1712056883233,4863.712531125173
1712056883273,7169.9821699867025
1712056883313,9328.035811031703
1712056883354,11317.801612208597
1712056883394,13363.252506332006
1712056883434,9900.15951246256
1712056883474,1548.913159072632
1712056883514,-5244.8619586916175
1712056883555,-7135.416713998653
1712056883594,-8068.50687201391
1712056883634,-9187.94418763835
1712056883674,-8430.292539453134
1712056883714,-8239.822342821164
1712056883755,-7872.001788252033
1712056883794,-8014.57722192863
1712056883835,-7255.738211194985
1712056883875,-6138.290514690569
1712056883915,-4418.306066355435
1712056883956,-2438.0953032672405
1712056883995,-203.33582638157532
1712056884035,2343.8461544727907
1712056884075,4509.633825486526
1712056884115,6520.525901136221
1712056884156,8003.728398435749
1712056884195,10152.310856137425
1712056884236,11779.126883607358
1712056884276,13959.332590999547
1712056884316,11229.051394261653
1712056884357,3360.579140349757
1712056884396,-1873.4216298114043
1712056884436,-3517.813033154933
1712056884476,-3681.567707401933
1712056884516,-4113.677119814791
1712056884557,-3299.1093077801634
1712056884597,-2909.8938709809445
1712056884637,-2256.044295891188
1712056884677,-2369.945191616891
1712056884717,-1279.6968474038877
1712056884758,-15.29181264899671
1712056884797,2146.783407649491
1712056884837,4219.6253013229
1712056884877,6240.888091651257
1712056884917,8499.557890571887
1712056884958,10094.644400898367
1712056884998,12270.174285361078
1712056885038,14098.12258920283
1712056885078,16080.95269316947
1712056885118,17846.71642746264
1712056885159,19978.683507288806
1712056885198,21972.479180440772
1712056885238,20394.568894635653
1712056885278,13120.594969422556
1712056885319,6858.7291110160295
1712056885359,5100.23687141831
1712056885399,4805.158392876387
1712056885439,5396.293187724659
1712056885479,5538.305299270898
1712056885519,5685.480803960003
1712056885560,5590.865824589273
1712056885599,4730.3490425786
1712056885639,5243.484650834696
1712056885680,6000.429529966321
1712056885720,7359.589964102255
1712056885760,9093.948978112312
1712056885800,10490.3839661167
1712056885840,11538.386570069939
1712056885880,12592.657374287723
1712056885920,13630.965941174421
1712056885961,14899.965043049306
1712056886000,16405.83873112104
1712056886041,17241.09663132485
1712056886081,12969.970578782726
1712056886121,5892.403560683597
1712056886162,2489.39629213186
1712056886201,1194.9901115761604
1712056886241,1129.6385931863915
1712056886281,866.2089197617024
1712056886321,1062.1212339880876
1712056886362,1477.684414552059
1712056886402,707.7805496649817
1712056886442,489.1744820366148
1712056886482,418.183921138756
1712056886522,1818.0252824130002
1712056886563,3377.049096869305
1712056886602,4909.643994791433
1712056886642,6955.118559292518
1712056886682,8672.6494968771
1712056886723,9827.829429611564
1712056886763,11384.32368800696
1712056886803,13237.141527906526
1712056886843,14658.62992801913
1712056886883,16136.67934723571
1712056886923,11380.377399967052
1712056886964,3811.7620064765215
1712056887004,-188.91237147711217
1712056887044,-1907.155410656007
1712056887084,-1751.8295572549105
1712056887124,-1596.2073444381822
1712056887165,-1375.0922095403075
1712056887204,-937.5645211795345
1712056887244,-1390.60386042553
1712056887284,-1910.0952895369846
1712056887325,-1093.8620148245245
1712056887365,-226.44751632935368
1712056887405,1238.1945589948446
1712056887445,3060.090707279509
1712056887485,4847.808512454387
1712056887525,6489.6555621731095
1712056887566,7788.390856190817
1712056887606,9300.263152925996
1712056887646,10426.170724787982
1712056887686,12230.788857263047
1712056887726,13504.111762505723
1712056887767,15386.73391144257
1712056887806,14977.046827502549
1712056887847,7584.394850485027
1712056887887,768.6359472456388
1712056887927,-3221.3765248490963
1712056887968,-4463.44534052629
1712056888007,-4873.136891206494
1712056888047,-5324.554425434675
1712056888087,-5382.89849554887
1712056888127,-5482.45337931253
1712056888168,-5538.820600101259
1712056888208,-5997.343534921529
1712056888248,-5650.70561507903
1712056888288,-5034.709676839411
1712056888328,-2745.4908462085295
1712056888369,-1386.482759071514
1712056888408,382.17676082020625
1712056888449,2088.16703959601
1712056888489,4203.555081632687
1712056888529,5726.338946253993
1712056888570,6910.592873154208
1712056888609,8448.25896214554
1712056888649,9906.14835572103
1712056888690,11779.005370268133
1712056888730,13434.88641405967
1712056888770,12076.042239076458
1712056888813,4277.423515656497
1712056888850,-3542.766758574173
1712056888890,-6617.62103444594
1712056888930,-7261.644916652236
1712056888971,-7262.253352074418
1712056889011,-7717.905785877258
1712056889051,-7753.577808756148
1712056889091,-7579.909924162086
1712056889131,-7705.958319366444
1712056889172,-7931.418782933615
1712056889211,-7093.53192501748
1712056889252,-5542.82246810873
1712056889292,-2483.3309532252606
1712056889332,-1050.3964162389748
1712056889373,689.7117874338292
1712056889412,2427.2419355569873
1712056889452,4188.722890805453
1712056889492,6020.202683865558
1712056889532,7930.341256746091
1712056889573,10215.130361608928
1712056889612,12017.293397520203
1712056889653,11511.295731910504
1712056889693,3114.2524174072314
1712056889733,-4179.752686445368
1712056889774,-7923.632474969374
1712056889813,-8594.913734334521
1712056889853,-8253.768468189053
1712056889893,-8634.443869785639
1712056889933,-8188.901212454308
1712056889974,-8466.33062537061
1712056890013,-8760.989702540217
1712056890053,-9137.701648366638
1712056890094,-8422.083723184187
1712056890134,-6389.023126358632
1712056890174,-4468.516164191533
1712056890214,-2124.9744953378104
1712056890254,-355.79670914798044
1712056890294,1795.3979349602014
1712056890334,3556.6918036094867
1712056890375,5219.751169803087
1712056890414,6606.864390921779
1712056890455,7975.189629918896
1712056890495,9823.45125891501
1712056890535,11552.117157754954
1712056890575,8536.44267473626
1712056890615,134.85540904616937
1712056890655,-5624.018893094733
1712056890695,-7565.658798901364
1712056890735,-7047.4742583404295
1712056890776,-6256.9002229925245
1712056890815,-5297.403105414007
1712056890856,-4973.847322630696
1712056890896,-4976.121522239875
1712056890936,-5593.52916055033
1712056890977,-5171.099830480758
1712056891019,-4199.27367232088
1712056891056,-2546.2831872631796
1712056891096,-133.8023593844846
1712056891136,2080.7673480301164
1712056891177,4087.0850656083785
1712056891217,5851.822823493043
1712056891257,7457.919853474945
1712056891297,8921.45075302152
1712056891337,11083.15794152394
1712056891378,11451.638959326781
1712056891417,4326.474951783661
1712056891457,-2901.8736191531643
1712056891497,-6214.201426055282
1712056891537,-6199.061216042843
1712056891578,-5516.428743453696
1712056891618,-4561.472199727781
1712056891658,-3762.3786223852076
1712056891698,-3815.3305680197664
1712056891738,-4419.113229237497
1712056891779,-5165.269029744435
1712056891818,-4220.831774378428
1712056891858,-2536.5108102955855
1712056891898,-507.3675030460581
1712056891939,1605.8203915199265
1712056891979,3764.8232756506186
1712056892019,5653.026305083651
1712056892059,6589.970889880089
1712056892099,8000.468598826788
1712056892139,9410.336515405681
1712056892180,8691.629489937564
1712056892220,934.2621368048713
1712056892260,-6846.095318139065
1712056892300,-10686.601086345501
1712056892340,-11044.925974452402
1712056892381,-10578.32837449992
1712056892420,-10359.822299927939
1712056892460,-9386.751910383813
1712056892500,-8833.127305665053
1712056892541,-9377.814075222239
1712056892581,-9182.586397069972
1712056892621,-8532.088667261647
1712056892661,-7194.711814025417
1712056892699,-4769.616009668214
1712056892739,-2603.7306804568507
1712056892780,-366.86980521981604
1712056892819,1958.7737238486297
1712056892859,3309.9939724195283
1712056892900,4564.410709852353
1712056892940,6684.026350105647
1712056892981,8590.821263548918
1712056893020,6683.492787895491
1712056893060,-1056.17973972857
1712056893100,-8322.21472958033
1712056893140,-11330.185543620959
1712056893181,-11779.653510208009
1712056893221,-12473.37586789811
1712056893261,-12050.8035870702
1712056893301,-11894.277933902573
1712056893341,-11634.874069239711
1712056893382,-11923.012557847425
1712056893421,-11334.869987057522
1712056893461,-9893.012630206533
1712056893502,-7796.937910471344
1712056893542,-5099.8367438907735
1712056893582,-3109.6996594266966
1712056893622,-848.991409430746
1712056893662,1414.9094537664205
1712056893702,3159.50442277221
1712056893742,5089.637286735
1712056893783,6572.690584858414
1712056893823,8960.04378789477
1712056893863,10387.856579844374
1712056893903,7603.731803667266
1712056893943,-1027.5486553360242
1712056893984,-7474.860485760495
1712056894023,-9935.100847176276
1712056894063,-10874.963108478114
1712056894104,-11481.758782466874
1712056894144,-11630.106574912556
1712056894184,-10951.295013495022
1712056894224,-11234.762124519562
1712056894264,-10972.681439897977
1712056894304,-10434.366145099048
1712056894344,-9753.644192179665
1712056894385,-7743.500389751513
1712056894424,-5830.421756687341
1712056894465,-3461.941680017393
1712056894505,-1169.39092841628
1712056894545,596.5183869034518
1712056894586,2604.7717847153544
1712056894625,4309.946903334465
1712056894665,6260.284127026331
1712056894706,7869.64552785689
1712056894746,4986.558671305887
1712056894786,-3335.6990745342337
1712056894826,-9057.697589077288
1712056894866,-10730.719869867899
1712056894906,-10881.248382401187
1712056894947,-11068.128813825548
1712056894987,-10869.356077412143
1712056895027,-10326.409196180524
1712056895067,-10076.92085301783
1712056895107,-10197.129023290006
1712056895147,-9483.925263304263
1712056895188,-8271.623849773547
1712056895228,-5952.637707184069
1712056895268,-3609.7348080505617
1712056895308,-1044.9461846463382
1712056895348,1242.7275832309388
1712056895389,3139.764572218992
1712056895428,5408.974676108919
1712056895468,7337.458377805306
1712056895508,9968.562625595834
1712056895549,6819.357112264726
1712056895589,-1364.1517493636347
1712056895629,-6455.261260901578
1712056895669,-8388.713730821386
1712056895709,-8149.807606492192
1712056895749,-8050.329798575258
1712056895790,-7403.923539018026
1712056895829,-6442.859513147501
1712056895869,-6163.141126735136
1712056895909,-5871.300444992026
1712056895949,-5421.94098226307
1712056895990,-3825.2474958996754
1712056896030,-2136.8158836858347
1712056896070,380.9048097282648
1712056896110,2418.0488603017293
1712056896150,4824.9486193927005
1712056896191,5957.278819754953
1712056896230,7853.910006551072
1712056896270,10007.245915620122
1712056896310,10858.323262512917
1712056896350,6026.117501743371
1712056896391,-1632.065246256534
1712056896431,-5806.63967257808
1712056896471,-6325.113563410938
1712056896511,-5864.718472887296
1712056896551,-5335.060988325626
1712056896592,-4466.15139191132
1712056896631,-3405.332787546795
1712056896671,-3252.196607511025
1712056896711,-3069.363330863882
1712056896752,-2357.1579344067723
1712056896792,-662.2403574902564
1712056896832,1920.7756551364437
1712056896872,4508.2386726636905
1712056896912,6455.733580015833
1712056896952,8617.388375849463
1712056896993,10634.597681939136
1712056897032,12492.274040249176
1712056897072,13902.64865119406
1712056897113,15767.851111137541
1712056897153,15311.699583435897
1712056897193,8376.807121258229
1712056897233,2322.5989678441547
1712056897273,-170.540496381931
1712056897313,357.04133121017367
1712056897353,791.160782252904
1712056897394,1807.5340209752321
1712056897433,1945.6326396772638
1712056897474,2131.67198017193
1712056897514,1626.3214668906294
1712056897554,1408.3904695068486
1712056897595,2851.808335752692
1712056897634,4420.348466473166
1712056897674,6533.518852404319
1712056897714,8438.746002645697
1712056897754,10197.788393965457
1712056897795,11206.86875893455
1712056897835,12927.998092240654
1712056897875,14460.351101351902
1712056897915,14458.373384120641
1712056897955,9128.774549413705
1712056897996,2460.7882951148786
1712056898035,32.31099821487442
1712056898075,-326.5997583139688
1712056898115,389.91962825343944
1712056898156,1336.3079041014425
1712056898196,2264.8755446688738
1712056898236,2399.7214753944427
1712056898276,1876.6640544508118
1712056898316,1222.3423525483813
1712056898356,2601.9251280580647
1712056898397,4089.2105797068216
1712056898437,6015.272200116655
1712056898477,8047.844806826673
1712056898517,9645.050157322548
1712056898557,11534.954046505736
1712056898598,12474.90304039768
1712056898637,13575.215227682842
1712056898677,15084.172256387305
1712056898717,13450.723086281912
1712056898757,6129.003446302377
1712056898798,-314.54745114455
1712056898838,-2393.2578826404642
1712056898878,-2654.8145746863447
1712056898918,-2386.7414422289003
1712056898958,-2138.0979007324204
1712056898999,-1448.939291697694
1712056899038,-1529.825599183794
1712056899078,-1713.3368476801552
1712056899118,-1727.6487075635232
1712056899159,-576.53462935891
1712056899199,1316.3690573358908
1712056899239,2445.881647316506
1712056899279,4217.48151163687
1712056899319,5225.463870204054
1712056899359,6971.041725717951
1712056899400,8274.547697772738
1712056899440,9742.172820398118
1712056899480,11461.53074836824
1712056899520,12630.254372832831
1712056899560,14457.209682133514
1712056899601,13175.260255800094
1712056899640,4556.972368424991
1712056899680,-2696.607022162527
1712056899720,-5620.982201247476
1712056899761,-6256.912408554694
1712056899801,-6689.930344920605
1712056899841,-6668.691918364726
1712056899881,-6681.532791092526
1712056899921,-6203.669315148611
1712056899961,-6773.295145111624
1712056900002,-6197.554954354651
1712056900042,-5328.050514856819
1712056900082,-3910.180838731816
1712056900122,-1876.094243587926
1712056900162,-158.62682043062523
1712056900203,1747.1277264188975
1712056900242,3748.213871041313
1712056900282,5482.881530312821
1712056900323,6889.131481978577
1712056900363,8655.459247162566
1712056900404,10157.439467234537
1712056900443,11961.78430410847
1712056900483,13471.349149407819
1712056900523,13616.786268149503
1712056900563,6196.877763518132
1712056900604,-1396.1111130700447
1712056900644,-5381.232218911406
1712056900684,-5815.976800606586
1712056900724,-6029.694164481945
1712056900764,-6583.135247033089
1712056900805,-6033.654926545685
1712056900845,-5816.119155805558
1712056900885,-5822.341043870896
1712056900925,-5881.3091824182775
1712056900965,-5369.817693378776
1712056901006,-3866.732567633735
1712056901045,-2006.1040248270147
1712056901086,79.77146753459238
1712056901126,2184.9189807237126
1712056901166,4068.228138526203
1712056901207,5856.703916536644
1712056901246,7412.920444387477
1712056901286,8431.585677851923
1712056901326,9690.634527525399
1712056901366,13995.147356161848
1712056901407,13932.541447289288
1712056901447,6948.62851122627
1712056901487,-1034.7228988115676
1712056901527,-4978.824843162671
1712056901567,-5231.817178414669
1712056901608,-4844.983504269738
1712056901647,-4179.725960664917
1712056901687,-3401.8716913778335
1712056901727,-3289.9862777628005
1712056901767,-3989.0943028354086
1712056901808,-4777.821997497464
1712056901847,-3910.2694405743387
1712056901888,-2339.449648132315
1712056901928,-674.7391880995128
1712056901968,1321.257673617918
1712056902009,3521.6627425043844
1712056902048,5714.905386215076
1712056902088,6973.551311609801
1712056902128,8380.230486735702
1712056902168,9299.56428172416
1712056902209,11025.930792483501
1712056902249,12363.770313294139
1712056902289,7419.950830532471
1712056902329,-248.38042166596279
1712056902369,-5559.290313731646
1712056902410,-6498.061935341451
1712056902449,-6197.116431224626
1712056902489,-5631.998041521991
1712056902529,-4795.1719621298835
1712056902569,-3731.3705925242975
1712056902610,-4145.131245314609
1712056902650,-4852.932169782929
1712056902690,-4761.080468815286
1712056902730,-3485.503758085426
1712056902770,-1620.2107321447693
1712056902811,-127.58798800432123
1712056902850,1525.7364886514843
1712056902890,3549.511929906672
1712056902931,5028.620326838456
1712056902971,6490.349444806809
1712056903012,7940.901640437543
1712056903051,9503.657556465827
1712056903091,11299.058438030072
1712056903131,12245.858638522215
1712056903171,6200.997454331722
1712056903212,-2232.7802367147524
1712056903251,-7371.776472058147
1712056903291,-8290.089128556196
1712056903332,-8095.369409419596
1712056903372,-7633.0887308055535
1712056903412,-6984.717449577525
1712056903452,-6424.315474367468
1712056903492,-6442.4371689660475
1712056903532,-7099.45685873949
1712056903572,-6404.923100873595
1712056903613,-5277.227995941415
1712056903652,-3081.6848542406224
1712056903692,-1156.5900780544616
1712056903733,535.7526717833243
1712056903773,2762.603709283052
1712056903813,3918.3878958919086
1712056903853,5341.510574763175
1712056903893,6556.230980062857
1712056903933,7859.1719924754
1712056903973,10269.406002378091
1712056904014,11789.289779523388
1712056904053,11852.922477860004
1712056904094,4327.030895290896
1712056904134,-4222.550503256731
1712056904174,-8502.509488406125
1712056904215,-9379.349274395965
1712056904254,-8918.041267243214
1712056904294,-8584.78844309412
1712056904334,-8253.362308459822
1712056904374,-8102.114748686086
1712056904415,-8402.917248971295
1712056904455,-8953.170949792024
1712056904495,-8389.32671860326
1712056904535,-7370.020940884016
1712056904575,-5332.226695944555
1712056904616,-3689.6793962637894
1712056904655,-1485.3423734544776
1712056904695,313.4464430396911
1712056904736,2009.6548336190172
1712056904777,3496.551773680141
1712056904818,5478.358702617232
1712056904857,6417.731019890867
1712056904897,8054.126688395394
1712056904937,10470.714840346249
1712056904977,11948.547908897512
1712056905018,13848.992539597675
1712056905058,8705.372208216693
1712056905098,-184.7293849713169
1712056905138,-6018.266508508008
1712056905178,-7516.392234283499
1712056905219,-6849.7893216595985
1712056905258,-7182.571015630849
1712056905298,-6470.689936332172
1712056905338,-6128.26444172021
1712056905379,-6550.161865511909
1712056905420,-6830.399981384166
1712056905459,-6386.68467934127
1712056905499,-5246.037454072386
1712056905539,-3917.8568854269106
1712056905579,-1895.5253908606246
1712056905620,82.4848701688461
1712056905660,2249.4186214823276
1712056905700,4101.803773997119
1712056905740,6270.716136146337
1712056905780,7506.024551135488
1712056905821,9347.369413244538
1712056905860,10958.5477123796
1712056905900,12944.75011455128
1712056905941,15105.076030109543
1712056905981,17185.803178214002
1712056906022,13531.350863211788
1712056906061,5030.033917378634
1712056906101,-1346.1085901397746
1712056906142,-2462.94187088171
1712056906182,-1714.335472641047
1712056906222,-1131.788592150202
1712056906262,-511.2386420411058
1712056906302,35.680743993259966
1712056906342,-74.01687671151012
1712056906382,-917.0604666760191
1712056906423,-989.6333246596623
1712056906463,103.62374508799985
1712056906503,1375.21162334783
1712056906543,3570.379646014422
1712056906583,5407.557038311381
1712056906624,6890.195240838919
1712056906663,8620.413131593727
1712056906703,9413.148419215344
1712056906744,10578.401798565872
1712056906784,11561.938108692179
1712056906825,13090.948918840382
1712056906864,13831.377598628867
1712056906904,8701.328197997995
1712056906944,695.8939994075336
1712056906985,-4086.549189735204
1712056907025,-5065.231078773504
1712056907065,-3792.5138949272223
1712056907105,-3037.4805762227625
1712056907145,-2509.6223801597953
1712056907186,-2290.3987777489237
1712056907226,-3242.4338417437393
1712056907266,-4167.64874122804
1712056907306,-4020.2798742204905
1712056907346,-2762.403658428462
1712056907386,-1273.6794842043892
1712056907427,495.23831639182754
1712056907466,2327.6957370494492
1712056907506,4147.61643800186
1712056907547,5983.344279928366
1712056907587,7110.393337082351
1712056907627,7765.637934873113
1712056907667,9283.088747075526
1712056907707,10694.172506019939
1712056907747,11327.729658255354
1712056907787,6114.094221698819
1712056907828,-3230.420669298386
1712056907867,-9056.611482611857
1712056907908,-10512.583702132106
1712056907948,-10521.730985811213
1712056907988,-9639.562692484353
1712056908029,-8760.582253627479
1712056908068,-8541.533919801237
1712056908108,-8837.54082292621
1712056908148,-9224.008387780748
1712056908188,-9310.089708641404
1712056908229,-8147.798778669443
1712056908268,-6741.40793379792
1712056908309,-4807.94656546833
1712056908349,-2914.354112124536
1712056908389,-1331.0108946859837
1712056908430,813.4294566335157
1712056908469,2587.9627393689007
1712056908509,3999.508818932576
1712056908550,5664.914671181701
1712056908589,7035.249062583782
1712056908630,8360.635264965706
1712056908670,10077.748667058302
1712056908710,10497.538191192318
1712056908750,2456.242005564738
1712056908790,-6908.429266895633
1712056908831,-11679.6559689797
1712056908870,-13167.732506522909
1712056908911,-13166.611637941794
1712056908951,-13932.703188084066
1712056908991,-14072.67919760407
1712056909032,-13566.361064611003
1712056909071,-14250.750736985356
1712056909111,-14407.93467339524
1712056909151,-13915.212857707404
1712056909191,-12017.983507438097
1712056909232,-10084.928092500195
1712056909272,-8535.03992624348
1712056909312,-6347.899144007824
1712056909352,-4442.384157921188
1712056909392,-2794.709529061569
1712056909433,-395.5364774526097
1712056909472,542.2646489441395
1712056909513,2059.067576440517
1712056909553,3852.8329256335273
1712056909593,5504.85007923143
1712056909634,7795.972126103239
1712056909673,9423.6114098127
1712056909713,5896.829802398803
1712056909754,-3897.214394987095
1712056909794,-11227.92146875104
1712056909834,-14310.058021460194
1712056909874,-14221.503210178576
1712056909914,-14258.013958381489
1712056909954,-14200.420474548824
1712056909994,-14302.244972718181
1712056910035,-14476.960419257404
1712056910074,-15051.810055373237
1712056910115,-15267.179770078976
1712056910155,-13409.212076263968
1712056910195,-11343.58858659002
1712056910236,-8763.056995610008
1712056910275,-6444.468778241426
1712056910315,-4618.256265685894
1712056910356,-2335.2635291577317
1712056910396,-336.3533956720494
1712056910436,1213.0482197967358
1712056910476,3036.780405680649
1712056910516,4806.071193494834
1712056910556,7008.891503856052
1712056910596,8655.646040966036
1712056910637,11148.08355161245
1712056910677,13287.054793444928
1712056910717,11180.260924980976
1712056910757,2888.196950900601
1712056910797,-5228.418274368625
1712056910838,-7986.053922868101
1712056910877,-8080.2556173997
1712056910917,-8025.778002161067
1712056910958,-7569.357973963954
1712056910998,-7165.636496031191
1712056911039,-6935.991942215711
1712056911078,-7919.1976461792365
1712056911118,-8007.480445623165
1712056911158,-7414.251521636266
1712056911199,-5426.740640228149
1712056911239,-3200.817322988063
1712056911279,-1047.4338547463994
1712056911319,1326.1445593065582
1712056911359,3192.0152582116425
1712056911399,5035.9442764369305
1712056911440,6118.345726315398
1712056911479,7227.279380285647
1712056911520,8948.356151638087
1712056911560,10094.628505481407
1712056911600,11847.258599068504
1712056911641,13862.89174058591
1712056911680,13416.692740581231
1712056911720,5803.1864702431485
1712056911760,-1506.196842115838
1712056911801,-4083.4698817683384
1712056911841,-3699.7395781534724
1712056911881,-3108.7869275449775
1712056911921,-2704.8250317766797
1712056911961,-1821.0637726148125
1712056912001,-1684.0172467890661
1712056912042,-2511.1402112911455
1712056912082,-2881.8869065272156
1712056912122,-2149.626810132293
1712056912162,-758.441668700194
1712056912202,1271.7110003840644
1712056912243,3107.426768677775
1712056912283,5209.721003799699
1712056912323,6635.018000557553
1712056912363,7893.4452416147105
1712056912403,9562.2102996069
1712056912444,11229.189237820916
1712056912483,12326.804578111274
1712056912523,13575.95223218808
1712056912563,12477.173975987826
1712056912604,4806.258836492663
1712056912645,-2248.914720456116
1712056912684,-5218.337456734851
1712056912724,-5212.056009829044
1712056912764,-4603.061209495179
1712056912804,-4179.673160545295
1712056912845,-3240.0269487220794
1712056912885,-3795.9925197386183
1712056912925,-3950.3627652055584
1712056912965,-4128.940019350033
1712056913005,-2696.953121333383
1712056913046,-753.3284945662599
1712056913085,1343.0242104707286
1712056913125,3478.7925206646323
1712056913165,4942.523530871142
1712056913205,6572.418109764811
1712056913246,8170.4052151069045
1712056913286,9157.514846325386
1712056913326,10381.683223438915
1712056913366,12283.549398814328
1712056913406,12876.134012964554
1712056913447,6935.307986460626
1712056913486,-1897.967713021906
1712056913526,-6571.98054738529
1712056913566,-7582.700899794698
1712056913607,-7758.833376685157
1712056913647,-7591.702193269972
1712056913687,-7571.128163864836
1712056913727,-7199.869807573501
1712056913767,-7445.609614987858
1712056913807,-7336.658965150826
1712056913848,-7122.136378843803
1712056913887,-6132.407121016644
1712056913927,-4379.390600645682
1712056913968,-2189.8022554083727
1712056914007,-68.32922690780833
1712056914048,1492.8967227130197
1712056914088,3055.9090121400077
1712056914128,4684.183608674677
1712056914168,5695.773429337889
1712056914208,7210.60531759914
1712056914249,9060.93522415054
1712056914288,10769.2970329097
1712056914329,12215.246004450833
1712056914368,9716.46744731185
1712056914409,-7.2197801023721695
1712056914450,-6653.224914127495
1712056914489,-9428.88040107023
1712056914529,-10235.46757514542
1712056914569,-10406.005832913797
1712056914609,-10606.484975606902
1712056914650,-10521.888020193204
1712056914690,-11156.792228691978
1712056914729,-11504.271174354479
1712056914769,-11171.386590888724
1712056914810,-10318.171856422443
1712056914850,-8752.20029856544
1712056914890,-6607.388793729944
1712056914930,-5012.503799128579
1712056914970,-2714.0202381098643
1712056915010,-963.344645897625
1712056915051,907.2183399023488
1712056915090,2702.9353051353246
1712056915131,4670.9035522029735
1712056915171,6254.092398860492
1712056915211,7744.074342553271
1712056915252,9748.312989678001
1712056915291,11399.416652860818
1712056915331,12829.167238201713
1712056915371,6593.714357795194
1712056915411,-2298.3157902504317
1712056915452,-7318.738951683976
1712056915492,-8727.508823974524
1712056915532,-8834.390132797416
1712056915572,-8736.509112499654
1712056915612,-8390.37207955704
1712056915653,-8528.54578326107
1712056915692,-8516.384157786611
1712056915732,-9501.705537407659
1712056915773,-9418.969950197032
1712056915813,-7634.3610095686745
1712056915853,-6099.3918404823635
1712056915893,-3805.540589612676
1712056915933,-1475.168598456774
1712056915973,685.8393404129893
1712056916013,2356.3735821724404
1712056916054,3387.5279696611688
1712056916094,5401.049343107734
1712056916134,6328.415455115493
1712056916174,8335.348122840747
1712056916214,10512.6094438266
1712056916255,12716.222379503073
1712056916294,14089.270916995127
1712056916334,10973.544683703221
1712056916375,1522.3451751647517
1712056916415,-5152.002508578356
1712056916455,-7256.145336877322
1712056916495,-7304.170267273206
1712056916535,-6802.390885514207
1712056916575,-6561.816141494084
1712056916615,-6034.005158776417
1712056916656,-6150.917454378447
1712056916696,-7203.659998574993
1712056916736,-7398.881794859422
1712056916776,-6547.998393218964
1712056916816,-4699.7335668315645
1712056916857,-2652.7751831258647
1712056916896,-99.5914917329792
1712056916936,2429.0583456205204
1712056916977,4328.019443684258
1712056917016,5991.045323218685
1712056917057,7529.508547283942
1712056917097,8984.192517041229
1712056917137,10740.533536560368
1712056917177,12750.345813067397
1712056917217,14279.037985277595
1712056917258,15990.993706752546
1712056917297,14868.445881633554
1712056917338,6631.793537603458
1712056917378,-653.3857382247224
1712056917418,-3050.411021291977
1712056917459,-3093.6701724543236
1712056917498,-1734.039957354311
1712056917538,-1219.8567829919048
1712056917579,-80.30534591292962
1712056917619,-147.97314626490697
1712056917659,-769.8011272544973
1712056917699,-1062.5745541916694
1712056917739,-1031.6923124343157
1712056917779,660.7708604123909
1712056917820,2094.667987656314
1712056917860,4505.829191152938
1712056917900,6147.900381622836
1712056917940,8051.804423932452
1712056917980,9423.682801987045
1712056918020,10907.535127570387
1712056918061,11928.06400091853
1712056918100,13180.648392358562
1712056918141,15059.980151032098
1712056918181,16154.847676785197
1712056918221,12826.205964950845
1712056918262,4106.3354106550105
1712056918301,-1845.8677434262354
1712056918341,-4174.980688189389
1712056918382,-3537.957503455691
1712056918422,-2804.380670077633
1712056918463,-2288.9246423381846
1712056918502,-1998.000193677377
1712056918542,-2356.1244852561504
1712056918582,-2455.052311520558
1712056918622,-2880.653030097019
1712056918663,-2139.373297621729
1712056918703,-1116.382802881766
1712056918743,1237.555134350434
1712056918783,2396.0648384301458
1712056918823,4033.3405282415915
1712056918864,5813.451575169805
1712056918903,6989.4198966976255
1712056918943,8397.386234562378
1712056918984,9212.890698630828
1712056919024,11255.877490657149
1712056919064,12679.050792830065
1712056919104,8961.223832565593
1712056919144,-650.0282870735973
1712056919184,-6998.537093615159
1712056919224,-9348.065211934503
1712056919265,-9160.315763931023
1712056919304,-9090.045161409536
1712056919344,-8444.203386362642
1712056919385,-7995.614668314112
1712056919425,-8667.327056589304
1712056919465,-9304.621539749205
1712056919505,-9361.331140534021
1712056919545,-8108.803825586103
