dataReceived,timestamp,ppg,status
1712056784387,1712056772291,2097152,0
1712056784387,1712056772331,2526739,0
1712056784387,1712056772372,2514217,0
1712056784387,1712056772411,2507314,0
1712056784387,1712056772451,2279311,0
1712056784387,1712056772491,2091582,0
1712056784387,1712056772531,2052400,0
1712056784387,1712056772572,2048632,0
1712056784387,1712056772612,2047039,0
1712056784387,1712056772652,2045419,0
1712056784387,1712056772692,2030784,0
1712056784387,1712056772732,2030984,0
1712056784387,1712056772773,2031520,0
1712056784387,1712056772812,2033697,0
1712056784387,1712056772853,2041626,0
1712056784387,1712056772892,2040162,0
1712056784387,1712056772933,2065468,0
1712056784387,1712056772974,2109020,0
1712056784387,1712056773013,2139484,0
1712056784387,1712056773053,2082446,0
1712056784387,1712056773093,1922674,0
1712056784387,1712056773133,1914142,0
1712056784387,1712056773174,1953845,0
1712056784387,1712056773213,2142801,0
1712056784387,1712056773253,3085538,0
1712056784387,1712056773293,4166215,0
1712056784387,1712056773334,4189551,0
1712056784387,1712056773375,3532439,0
1712056784387,1712056773417,3978854,0
1712056784387,1712056773454,3709164,0
1712056784387,1712056773494,2955669,0
1712056784387,1712056773534,2926680,0
1712056784387,1712056773575,2970875,0
1712056784387,1712056773614,3014581,0
1712056784387,1712056773655,3068986,0
1712056784387,1712056773695,3081450,0
1712056784387,1712056773735,3077565,0
1712056784387,1712056773776,3078991,0
1712056784387,1712056773815,3102987,0
1712056784387,1712056773855,3133448,0
1712056784387,1712056773895,3145007,0
1712056784387,1712056773935,3066560,0
1712056784387,1712056773976,3045658,0
1712056784387,1712056774016,2979837,0
1712056784387,1712056774056,2933371,0
1712056784387,1712056774096,3487474,0
1712056784387,1712056774136,4189401,0
1712056784387,1712056774177,4178881,0
1712056784387,1712056774216,4177269,0
1712056784387,1712056774256,4172994,0
1712056784387,1712056774297,4177868,0
1712056784387,1712056774337,2987553,0
1712056784387,1712056774378,3884633,0
1712056784387,1712056774417,3715837,0
1712056784387,1712056774457,2939971,0
1712056784387,1712056774497,2944090,0
1712056784387,1712056774537,2963820,0
1712056784387,1712056774578,2973676,0
1712056784387,1712056774618,2985111,0
1712056784387,1712056774658,3009104,0
1712056784387,1712056774698,3023827,0
1712056784387,1712056774738,3019320,0
1712056784387,1712056774779,3013133,0
1712056784387,1712056774818,3020199,0
1712056784387,1712056774858,3013980,0
1712056784387,1712056774899,3012355,0
1712056784387,1712056774939,3011667,0
1712056784387,1712056774980,3005932,0
1712056784387,1712056775019,2999352,0
1712056784387,1712056775059,3001242,0
1712056784387,1712056775099,3000476,0
1712056784387,1712056775139,3002854,0
1712056784387,1712056775180,4046015,0
1712056784387,1712056775220,4186555,0
1712056784387,1712056775260,4179563,0
1712056784387,1712056775300,4171326,0
1712056784387,1712056775340,4168984,0
1712056784387,1712056775381,4168978,0
1712056784387,1712056775420,4169925,0
1712056784387,1712056775460,4169448,0
1712056784387,1712056775501,4169735,0
1712056784387,1712056775541,4169123,0
1712056784387,1712056775582,4168877,0
1712056784387,1712056775624,4170913,0
1712056784387,1712056775661,4170345,0
1712056784387,1712056775701,4169201,0
1712056784387,1712056775742,4169146,0
1712056784387,1712056775783,4171400,0
1712056784387,1712056775822,4173361,0
1712056784387,1712056775862,4176518,0
1712056784387,1712056775902,4180241,0
1712056784387,1712056775942,4172053,0
1712056784387,1712056775984,4169131,0
1712056784387,1712056776023,4167376,0
1712056784387,1712056776063,4166147,0
1712056784387,1712056776103,4165705,0
1712056784387,1712056776143,4166707,0
1712056784387,1712056776184,4168579,0
1712056784387,1712056776224,4169020,0
1712056784387,1712056776264,4169651,0
1712056784387,1712056776304,4170927,0
1712056784387,1712056776344,4173723,0
1712056784387,1712056776385,4175740,0
1712056784387,1712056776424,4176858,0
1712056784387,1712056776464,4178095,0
1712056784387,1712056776505,4177710,0
1712056784387,1712056776544,4174010,0
1712056784387,1712056776586,4171943,0
1712056784387,1712056776625,4169737,0
1712056784387,1712056776665,4169381,0
1712056784387,1712056776705,4170768,0
1712056784387,1712056776745,4169731,0
1712056784387,1712056776786,4168893,0
1712056784387,1712056776825,4168854,0
1712056784387,1712056776865,4169230,0
1712056784387,1712056776905,4169897,0
1712056784387,1712056776946,4173213,0
1712056784387,1712056776987,3619979,0
1712056784387,1712056777026,2745704,0
1712056784387,1712056777066,2185096,0
1712056784387,1712056777106,1895562,0
1712056784387,1712056777146,1864436,0
1712056784387,1712056777187,1861350,0
1712056784387,1712056777226,1878612,0
1712056784387,1712056777266,1883342,0
1712056784387,1712056777307,1885913,0
1712056784387,1712056777347,1888756,0
1712056784387,1712056777388,1894504,0
1712056784387,1712056777427,1901993,0
1712056784387,1712056777467,1914115,0
1712056784387,1712056777507,1940007,0
1712056784387,1712056777547,1995700,0
1712056784387,1712056777588,2097850,0
1712056784387,1712056777627,2242233,0
1712056784387,1712056777668,2414785,0
1712056784387,1712056777708,2625070,0
1712056784387,1712056777748,2910938,0
1712056784387,1712056777789,3286620,0
1712056784387,1712056777828,4053460,0
1712056784387,1712056777868,4179389,0
1712056784387,1712056777908,4169883,0
1712056784387,1712056777948,3337328,0
1712056784387,1712056777989,3409767,0
1712056784387,1712056778029,3882532,0
1712056784387,1712056778069,3408458,0
1712056784387,1712056778109,3345507,0
1712056784387,1712056778149,3356055,0
1712056784387,1712056778190,3371645,0
1712056784387,1712056778229,3399377,0
1712056784387,1712056778269,3432020,0
1712056784387,1712056778309,3463044,0
1712056784387,1712056778350,3476743,0
1712056784387,1712056778391,3456255,0
1712056784387,1712056778430,3461582,0
1712056784387,1712056778470,3503543,0
1712056784387,1712056778510,3505211,0
1712056784387,1712056778550,3630377,0
1712056784387,1712056778591,3464205,0
1712056784387,1712056778631,3617552,0
1712056784387,1712056778670,4193844,0
1712056784387,1712056778711,4193430,0
1712056784387,1712056778751,3896158,0
1712056784387,1712056778792,3690314,0
1712056784387,1712056778831,3692757,0
1712056784387,1712056778871,3734426,0
1712056784387,1712056778911,3736130,0
1712056784387,1712056778951,3728560,0
1712056784387,1712056778992,3721589,0
1712056784387,1712056779031,3717529,0
1712056784387,1712056779072,3715212,0
1712056784387,1712056779112,3708734,0
1712056784387,1712056779152,3704187,0
1712056784387,1712056779193,3700346,0
1712056784387,1712056779232,3697458,0
1712056784387,1712056779272,3693079,0
1712056784387,1712056779312,3688540,0
1712056784387,1712056779353,3687029,0
1712056784387,1712056779394,3690413,0
1712056784387,1712056779433,3689367,0
1712056784387,1712056779473,3686287,0
1712056784387,1712056779513,3683891,0
1712056784387,1712056779553,3682567,0
1712056784387,1712056779594,3682174,0
1712056784387,1712056779633,3683852,0
1712056784387,1712056779673,3685736,0
1712056784387,1712056779714,3686540,0
1712056784387,1712056779754,3687891,0
1712056784387,1712056779795,3692490,0
1712056784387,1712056779834,3695793,0
1712056784387,1712056779874,3697040,0
1712056784387,1712056779914,3698802,0
1712056784387,1712056779954,3701400,0
1712056784387,1712056779995,3705161,0
1712056784387,1712056780035,3709163,0
1712056784387,1712056780075,3712842,0
1712056784387,1712056780115,3716999,0
1712056784387,1712056780155,3721449,0
1712056784387,1712056780196,3724252,0
1712056784387,1712056780235,3724807,0
1712056784387,1712056780276,3723542,0
1712056784387,1712056780316,3721743,0
1712056784387,1712056780356,3720488,0
1712056784387,1712056780397,3719101,0
1712056784387,1712056780436,3721719,0
1712056784387,1712056780476,3724968,0
1712056784387,1712056780516,3726416,0
1712056784387,1712056780557,3727659,0
1712056784387,1712056780597,3730910,0
1712056784387,1712056780637,3732717,0
1712056784387,1712056780677,3730461,0
1712056784387,1712056780717,3728810,0
1712056784387,1712056780757,3731538,0
1712056784387,1712056780798,3735462,0
1712056784387,1712056780837,3739150,0
1712056784387,1712056780877,3743541,0
1712056784387,1712056780918,3747158,0
1712056784387,1712056780958,3749988,0
1712056784387,1712056780999,3753480,0
1712056784387,1712056781038,3756965,0
1712056784387,1712056781078,3759580,0
1712056784387,1712056781118,3757978,0
1712056784387,1712056781159,3755916,0
1712056784387,1712056781200,3755549,0
1712056784387,1712056781239,3757173,0
1712056784387,1712056781279,3756973,0
1712056784387,1712056781319,3757998,0
1712056784387,1712056781359,3760204,0
1712056784387,1712056781401,3760058,0
1712056784387,1712056781440,3759771,0
1712056784387,1712056781480,3759582,0
1712056784387,1712056781520,3762237,0
1712056784387,1712056781560,3761680,0
1712056784387,1712056781601,3760522,0
1712056784387,1712056781641,3761964,0
1712056784387,1712056781681,3764231,0
1712056784387,1712056781721,3764996,0
1712056784387,1712056781761,3765718,0
1712056784387,1712056781802,3766343,0
1712056784387,1712056781841,3766247,0
1712056784387,1712056781882,3765447,0
1712056784387,1712056781922,3762931,0
1712056784387,1712056781962,3755152,0
1712056784387,1712056782003,3746898,0
1712056784387,1712056782042,3742390,0
1712056784387,1712056782082,3739587,0
1712056784387,1712056782122,3735233,0
1712056784387,1712056782162,3730722,0
1712056784387,1712056782204,3733627,0
1712056784387,1712056782243,3738469,0
1712056784387,1712056782283,3738174,0
1712056784387,1712056782323,3738558,0
1712056784387,1712056782363,3741461,0
1712056784387,1712056782404,3751376,0
1712056784387,1712056782444,3767943,0
1712056784387,1712056782484,3778629,0
1712056784387,1712056782524,3783178,0
1712056784387,1712056782564,3775486,0
1712056784387,1712056782605,3765515,0
1712056784387,1712056782644,3756706,0
1712056784387,1712056782684,3755747,0
1712056784387,1712056782725,3759690,0
1712056784387,1712056782764,3765396,0
1712056784387,1712056782806,3778092,0
1712056784387,1712056782845,3792094,0
1712056784387,1712056782885,3803827,0
1712056784387,1712056782925,3818932,0
1712056784387,1712056782965,3838355,0
1712056784387,1712056783006,3856749,0
1712056784387,1712056783045,3867393,0
1712056784387,1712056783085,3873894,0
1712056784387,1712056783125,3875577,0
1712056784387,1712056783166,3875850,0
1712056784387,1712056783207,3877341,0
1712056784387,1712056783246,3879864,0
1712056784387,1712056783286,3881402,0
1712056784387,1712056783326,3884505,0
1712056784387,1712056783366,3885975,0
1712056784387,1712056783407,3888700,0
1712056784387,1712056783446,3891550,0
1712056784387,1712056783486,3893656,0
1712056784387,1712056783527,3895593,0
1712056784387,1712056783567,3897751,0
1712056784387,1712056783608,3900526,0
1712056784387,1712056783647,3903166,0
1712056784387,1712056783687,3905018,0
1712056784387,1712056783727,3905647,0
1712056784387,1712056783767,3908182,0
1712056784387,1712056783809,3913314,0
1712056784387,1712056783848,3915711,0
1712056784387,1712056783888,3918428,0
1712056784387,1712056783928,3921744,0
1712056784387,1712056783968,3924483,0
1712056784387,1712056784009,3928118,0
1712056784387,1712056784048,3931724,0
1712056784387,1712056784088,3933650,0
1712056784387,1712056784128,3936325,0
1712056784387,1712056784169,3939677,0
1712056784387,1712056784210,3943368,0
1712056784387,1712056784249,3946775,0
1712056784387,1712056784289,3949866,0
1712056796523,1712056784329,3952588,0
1712056796523,1712056784369,3956108,0
1712056796523,1712056784409,3959224,0
1712056796523,1712056784449,3961781,0
1712056796523,1712056784489,3964953,0
1712056796523,1712056784529,3967303,0
1712056796523,1712056784569,3967682,0
1712056796523,1712056784609,3964882,0
1712056796523,1712056784649,3962121,0
1712056796523,1712056784689,3963261,0
1712056796523,1712056784729,3966702,0
1712056796523,1712056784769,3970515,0
1712056796523,1712056784809,3973255,0
1712056796523,1712056784849,3976083,0
1712056796523,1712056784889,3978357,0
1712056796523,1712056784929,3980017,0
1712056796523,1712056784969,3982558,0
1712056796523,1712056785009,3986190,0
1712056796523,1712056785049,3988489,0
1712056796523,1712056785089,3993171,0
1712056796523,1712056785129,3995962,0
1712056796523,1712056785169,3998423,0
1712056796523,1712056785209,4001105,0
1712056796523,1712056785249,4002692,0
1712056796523,1712056785289,4005152,0
1712056796523,1712056785329,4009651,0
1712056796523,1712056785369,4015158,0
1712056796523,1712056785409,4017290,0
1712056796523,1712056785449,4016738,0
1712056796523,1712056785489,4013002,0
1712056796523,1712056785529,4011957,0
1712056796523,1712056785569,4012294,0
1712056796523,1712056785609,4013608,0
1712056796523,1712056785649,4015653,0
1712056796523,1712056785689,4019102,0
1712056796523,1712056785729,4023660,0
1712056796523,1712056785769,4027015,0
1712056796523,1712056785809,4030041,0
1712056796523,1712056785849,4033474,0
1712056796523,1712056785889,4036454,0
1712056796523,1712056785929,4035892,0
1712056796523,1712056785969,4034284,0
1712056796523,1712056786009,4035092,0
1712056796523,1712056786049,4035575,0
1712056796523,1712056786089,4037325,0
1712056796523,1712056786129,4037902,0
1712056796523,1712056786169,4038465,0
1712056796523,1712056786209,4042465,0
1712056796523,1712056786249,4046685,0
1712056796523,1712056786289,4049129,0
1712056796523,1712056786329,4049965,0
1712056796523,1712056786369,4050814,0
1712056796523,1712056786409,4044789,0
1712056796523,1712056786449,4035588,0
1712056796523,1712056786489,4028677,0
1712056796523,1712056786529,4028681,0
1712056796523,1712056786569,4032004,0
1712056796523,1712056786609,4032898,0
1712056796523,1712056786649,4036582,0
1712056796523,1712056786689,4042352,0
1712056796523,1712056786729,4046727,0
1712056796523,1712056786769,4049049,0
1712056796523,1712056786809,4051107,0
1712056796523,1712056786849,4053215,0
1712056796523,1712056786889,4054099,0
1712056796523,1712056786929,4055948,0
1712056796523,1712056786969,4058688,0
1712056796523,1712056787009,4061802,0
1712056796523,1712056787049,4064841,0
1712056796523,1712056787089,4069209,0
1712056796523,1712056787129,4074548,0
1712056796523,1712056787169,4074371,0
1712056796523,1712056787209,4074159,0
1712056796523,1712056787249,4076531,0
1712056796523,1712056787289,4077717,0
1712056796523,1712056787329,4073213,0
1712056796523,1712056787369,4068409,0
1712056796523,1712056787409,4066429,0
1712056796523,1712056787449,4067080,0
1712056796523,1712056787489,4068421,0
1712056796523,1712056787529,4070171,0
1712056796523,1712056787569,4073730,0
1712056796523,1712056787609,4074650,0
1712056796523,1712056787649,4075953,0
1712056796523,1712056787689,4076512,0
1712056796523,1712056787729,4079684,0
1712056796523,1712056787769,4087758,0
1712056796523,1712056787809,4095032,0
1712056796523,1712056787849,4103167,0
1712056796523,1712056787889,4107237,0
1712056796523,1712056787929,4102454,0
1712056796523,1712056787969,4093357,0
1712056796523,1712056788009,4091321,0
1712056796523,1712056788049,4091329,0
1712056796523,1712056788089,4090222,0
1712056796523,1712056788129,4095215,0
1712056796523,1712056788169,4093035,0
1712056796523,1712056788209,4085561,0
1712056796523,1712056788249,4078993,0
1712056796523,1712056788289,4074593,0
1712056796523,1712056788329,4070881,0
1712056796523,1712056788369,4069902,0
1712056796523,1712056788409,4071200,0
1712056796523,1712056788449,4068618,0
1712056796523,1712056788489,4064663,0
1712056796523,1712056788529,4057522,0
1712056796523,1712056788569,4052415,0
1712056796523,1712056788609,4043145,0
1712056796523,1712056788649,4015290,0
1712056796523,1712056788689,3999386,0
1712056796523,1712056788729,3998964,0
1712056796523,1712056788769,4007877,0
1712056796523,1712056788809,4024209,0
1712056796523,1712056788849,4030598,0
1712056796523,1712056788889,4038236,0
1712056796523,1712056788929,4045755,0
1712056796523,1712056788969,4056459,0
1712056796523,1712056789009,4056769,0
1712056796523,1712056789049,4057380,0
1712056796523,1712056789089,4050399,0
1712056796523,1712056789129,4039225,0
1712056796523,1712056789169,4028812,0
1712056796523,1712056789209,4023913,0
1712056796523,1712056789249,4025030,0
1712056796523,1712056789289,4024305,0
1712056796523,1712056789329,4028589,0
1712056796523,1712056789369,4032301,0
1712056796523,1712056789409,4026647,0
1712056796523,1712056789449,4026052,0
1712056796523,1712056789489,4025577,0
1712056796523,1712056789529,4025863,0
1712056796523,1712056789569,4030157,0
1712056796523,1712056789609,4040651,0
1712056796523,1712056789649,4052369,0
1712056796523,1712056789689,4065122,0
1712056796523,1712056789729,4076318,0
1712056796523,1712056789769,4088426,0
1712056796523,1712056789809,4096862,0
1712056796523,1712056789849,4104566,0
1712056796523,1712056789889,4111360,0
1712056796523,1712056789929,4115700,0
1712056796523,1712056789969,4119927,0
1712056796523,1712056790009,4122350,0
1712056796523,1712056790049,4126356,0
1712056796523,1712056790089,4129934,0
1712056796523,1712056790129,4131526,0
1712056796523,1712056790169,4132409,0
1712056796523,1712056790209,4129877,0
1712056796523,1712056790249,4123933,0
1712056796523,1712056790289,4108424,0
1712056796523,1712056790329,4094305,0
1712056796523,1712056790369,4089175,0
1712056796523,1712056790409,4087413,0
1712056796523,1712056790450,4090603,0
1712056796523,1712056790491,4086201,0
1712056796523,1712056790532,4076726,0
1712056796523,1712056790573,4063111,0
1712056796523,1712056790614,4057048,0
1712056796523,1712056790655,4052410,0
1712056796523,1712056790696,4050779,0
1712056796523,1712056790737,4047566,0
1712056796523,1712056790778,4046597,0
1712056796523,1712056790819,4040527,0
1712056796523,1712056790860,4027928,0
1712056796523,1712056790901,4011321,0
1712056796523,1712056790942,3999279,0
1712056796523,1712056790983,3990223,0
1712056796523,1712056791024,3983141,0
1712056796523,1712056791065,3976437,0
1712056796523,1712056791106,3970518,0
1712056796523,1712056791147,3964029,0
1712056796523,1712056791188,3956333,0
1712056796523,1712056791229,3947049,0
1712056796523,1712056791270,3937866,0
1712056796523,1712056791311,3932552,0
1712056796523,1712056791352,3927079,0
1712056796523,1712056791393,3919050,0
1712056796523,1712056791434,3918018,0
1712056796523,1712056791475,3915529,0
1712056796523,1712056791516,3914094,0
1712056796523,1712056791557,3910933,0
1712056796523,1712056791598,3908433,0
1712056796523,1712056791639,3904145,0
1712056796523,1712056791680,3901059,0
1712056796523,1712056791721,3898691,0
1712056796523,1712056791762,3901841,0
1712056796523,1712056791803,3892059,0
1712056796523,1712056791844,3874987,0
1712056796523,1712056791885,3866881,0
1712056796523,1712056791926,3864972,0
1712056796523,1712056791967,3864336,0
1712056796523,1712056792008,3865002,0
1712056796523,1712056792049,3866685,0
1712056796523,1712056792090,3871754,0
1712056796523,1712056792131,3876293,0
1712056796523,1712056792172,3880363,0
1712056796523,1712056792213,3886067,0
1712056796523,1712056792254,3892510,0
1712056796523,1712056792295,3898963,0
1712056796523,1712056792336,3901911,0
1712056796523,1712056792377,3905538,0
1712056796523,1712056792418,3909560,0
1712056796523,1712056792459,3907920,0
1712056796523,1712056792500,3909175,0
1712056796523,1712056792541,3911787,0
1712056796523,1712056792582,3914836,0
1712056796523,1712056792623,3917430,0
1712056796523,1712056792664,3919257,0
1712056796523,1712056792705,3919300,0
1712056796523,1712056792746,3911902,0
1712056796523,1712056792787,3900924,0
1712056796523,1712056792828,3895635,0
1712056796523,1712056792869,3894825,0
1712056796523,1712056792910,3896951,0
1712056796523,1712056792951,3900661,0
1712056796523,1712056792992,3904031,0
1712056796523,1712056793033,3905970,0
1712056796523,1712056793074,3907155,0
1712056796523,1712056793115,3909360,0
1712056796523,1712056793156,3914073,0
1712056796523,1712056793197,3925299,0
1712056796523,1712056793238,3933210,0
1712056796523,1712056793279,3939423,0
1712056796523,1712056793320,3942187,0
1712056796523,1712056793361,3948867,0
1712056796523,1712056793402,3954066,0
1712056796523,1712056793443,3955399,0
1712056796523,1712056793484,3954786,0
1712056796523,1712056793525,3952437,0
1712056796523,1712056793566,3947781,0
1712056796523,1712056793607,3945805,0
1712056796523,1712056793648,3946375,0
1712056796523,1712056793689,3945219,0
1712056796523,1712056793730,3947820,0
1712056796523,1712056793771,3948675,0
1712056796523,1712056793812,3950486,0
1712056796523,1712056793853,3955334,0
1712056796523,1712056793894,3959750,0
1712056796523,1712056793935,3963302,0
1712056796523,1712056793976,3967296,0
1712056796523,1712056794017,3968662,0
1712056796523,1712056794058,3971804,0
1712056796523,1712056794099,3975152,0
1712056796523,1712056794140,3979952,0
1712056796523,1712056794181,3983464,0
1712056796523,1712056794222,3987661,0
1712056796523,1712056794263,3990615,0
1712056796523,1712056794304,3993414,0
1712056796523,1712056794345,3995927,0
1712056796523,1712056794386,3998768,0
1712056796523,1712056794427,4001433,0
1712056796523,1712056794468,4003465,0
1712056796523,1712056794509,4004748,0
1712056796523,1712056794550,4005660,0
1712056796523,1712056794591,4006543,0
1712056796523,1712056794632,4008214,0
1712056796523,1712056794673,4010082,0
1712056796523,1712056794714,4008597,0
1712056796523,1712056794755,4010819,0
1712056796523,1712056794796,4011863,0
1712056796523,1712056794837,4013511,0
1712056796523,1712056794878,4014760,0
1712056796523,1712056794919,4014827,0
1712056796523,1712056794960,4015809,0
1712056796523,1712056795001,4021928,0
1712056796523,1712056795042,4029492,0
1712056796523,1712056795083,4033114,0
1712056796523,1712056795124,4034144,0
1712056796523,1712056795165,4036891,0
1712056796523,1712056795206,4040639,0
1712056796523,1712056795247,4042265,0
1712056796523,1712056795288,4043889,0
1712056796523,1712056795329,4045136,0
1712056796523,1712056795370,4046145,0
1712056796523,1712056795411,4046719,0
1712056796523,1712056795452,4048202,0
1712056796523,1712056795493,4050984,0
1712056796523,1712056795534,4053127,0
1712056796523,1712056795575,4053030,0
1712056796523,1712056795616,4052236,0
1712056796523,1712056795657,4053764,0
1712056796523,1712056795698,4056136,0
1712056796523,1712056795739,4059160,0
1712056796523,1712056795780,4061048,0
1712056796523,1712056795821,4062506,0
1712056796523,1712056795862,4064340,0
1712056796523,1712056795903,4065210,0
1712056796523,1712056795944,4065845,0
1712056796523,1712056795985,4065661,0
1712056796523,1712056796026,4065697,0
1712056796523,1712056796067,4067132,0
1712056796523,1712056796108,4068871,0
1712056796523,1712056796149,4070286,0
1712056796523,1712056796190,4071635,0
1712056796523,1712056796231,4074274,0
1712056796523,1712056796272,4073929,0
1712056796523,1712056796313,4072694,0
1712056796523,1712056796354,4071909,0
1712056796523,1712056796395,4071586,0
1712056796523,1712056796436,4071843,0
1712056808511,1712056796475,4073428,0
1712056808511,1712056796514,4075212,0
1712056808511,1712056796553,4072465,0
1712056808511,1712056796592,4065198,0
1712056808511,1712056796631,4059994,0
1712056808511,1712056796670,4058273,0
1712056808511,1712056796709,4058573,0
1712056808511,1712056796748,4058056,0
1712056808511,1712056796787,4058230,0
1712056808511,1712056796826,4058531,0
1712056808511,1712056796865,4063042,0
1712056808511,1712056796904,4071012,0
1712056808511,1712056796943,4077080,0
1712056808511,1712056796982,4084494,0
1712056808511,1712056797021,4094456,0
1712056808511,1712056797060,4101186,0
1712056808511,1712056797099,4110059,0
1712056808511,1712056797138,4116877,0
1712056808511,1712056797177,4124719,0
1712056808511,1712056797216,4129342,0
1712056808511,1712056797255,4130662,0
1712056808511,1712056797294,4131255,0
1712056808511,1712056797333,4132135,0
1712056808511,1712056797372,4139276,0
1712056808511,1712056797411,4148486,0
1712056808511,1712056797450,4155712,0
1712056808511,1712056797490,4158969,0
1712056808511,1712056797530,4164552,0
1712056808511,1712056797570,4165165,0
1712056808511,1712056797610,4161132,0
1712056808511,1712056797650,4160577,0
1712056808511,1712056797690,4158798,0
1712056808511,1712056797730,4159371,0
1712056808511,1712056797770,4161069,0
1712056808511,1712056797810,4160852,0
1712056808511,1712056797850,4161838,0
1712056808511,1712056797890,4163279,0
1712056808511,1712056797930,4164479,0
1712056808511,1712056797970,4166221,0
1712056808511,1712056798010,4168015,0
1712056808511,1712056798050,4170939,0
1712056808511,1712056798090,4172511,0
1712056808511,1712056798130,4175099,0
1712056808511,1712056798170,4176526,0
1712056808511,1712056798210,4176811,0
1712056808511,1712056798250,4176669,0
1712056808511,1712056798290,4176413,0
1712056808511,1712056798330,4176489,0
1712056808511,1712056798370,4176117,0
1712056808511,1712056798410,4176142,0
1712056808511,1712056798450,4170993,0
1712056808511,1712056798490,4163427,0
1712056808511,1712056798530,4157762,0
1712056808511,1712056798570,4155576,0
1712056808511,1712056798610,4154589,0
1712056808511,1712056798650,4152629,0
1712056808511,1712056798690,4151144,0
1712056808511,1712056798730,4153380,0
1712056808511,1712056798770,4155326,0
1712056808511,1712056798810,4158464,0
1712056808511,1712056798850,4162714,0
1712056808511,1712056798890,4166419,0
1712056808511,1712056798930,4169217,0
1712056808511,1712056798970,4172107,0
1712056808511,1712056799010,4174221,0
1712056808511,1712056799050,4178210,0
1712056808511,1712056799090,4184898,0
1712056808511,1712056799130,4188668,0
1712056808511,1712056799170,4189051,0
1712056808511,1712056799210,4188258,0
1712056808511,1712056799250,4187887,0
1712056808511,1712056799290,4187032,0
1712056808511,1712056799330,4186047,0
1712056808511,1712056799370,4186629,0
1712056808511,1712056799410,4187778,0
1712056808511,1712056799450,4188838,0
1712056808511,1712056799490,4189537,0
1712056808511,1712056799530,4192743,0
1712056808511,1712056799570,4194340,0
1712056808511,1712056799610,4195240,0
1712056808511,1712056799650,4195243,0
1712056808511,1712056799690,4195247,0
1712056808511,1712056799730,4195268,0
1712056808511,1712056799770,4195244,0
1712056808511,1712056799810,4195264,0
1712056808511,1712056799850,4195295,0
1712056808511,1712056799890,4195251,0
1712056808511,1712056799930,4195289,0
1712056808511,1712056799970,4195246,0
1712056808511,1712056800010,4195237,0
1712056808511,1712056800050,4195221,0
1712056808511,1712056800090,4195201,0
1712056808511,1712056800130,4195265,0
1712056808511,1712056800170,2451463,0
1712056808511,1712056800210,2451760,0
1712056808511,1712056800250,2452478,0
1712056808511,1712056800290,2452936,0
1712056808511,1712056800330,2453343,0
1712056808511,1712056800370,2453537,0
1712056808511,1712056800410,2453671,0
1712056808511,1712056800450,2453664,0
1712056808511,1712056800490,2453587,0
1712056808511,1712056800530,2138827,0
1712056808511,1712056800570,2138656,0
1712056808511,1712056800610,2138818,0
1712056808511,1712056800650,2139120,0
1712056808511,1712056800690,2139475,0
1712056808511,1712056800730,2140420,0
1712056808511,1712056800770,2122012,0
1712056808511,1712056800810,2122319,0
1712056808511,1712056800850,2122161,0
1712056808511,1712056800890,2122478,0
1712056808511,1712056800930,2081450,0
1712056808511,1712056800970,2081527,0
1712056808511,1712056801010,2082957,0
1712056808511,1712056801050,2084608,0
1712056808511,1712056801090,2084370,0
1712056808511,1712056801130,2083651,0
1712056808511,1712056801170,2084751,0
1712056808511,1712056801210,2086312,0
1712056808511,1712056801250,2085802,0
1712056808511,1712056801290,2084652,0
1712056808511,1712056801330,2083658,0
1712056808511,1712056801370,2084058,0
1712056808511,1712056801410,2083819,0
1712056808511,1712056801450,2085114,0
1712056808511,1712056801490,2089852,0
1712056808511,1712056801530,2097252,0
1712056808511,1712056801570,2101100,0
1712056808511,1712056801610,2099555,0
1712056808511,1712056801650,2096308,0
1712056808511,1712056801690,2095119,0
1712056808511,1712056801730,2096427,0
1712056808511,1712056801770,2099501,0
1712056808511,1712056801810,2103295,0
1712056808511,1712056801850,2105703,0
1712056808511,1712056801890,2108457,0
1712056808511,1712056801930,2111309,0
1712056808511,1712056801970,2110872,0
1712056808511,1712056802010,2107410,0
1712056808511,1712056802050,2102021,0
1712056808511,1712056802090,2092777,0
1712056808511,1712056802130,2086100,0
1712056808511,1712056802170,2083875,0
1712056808511,1712056802210,2081622,0
1712056808511,1712056802250,2081443,0
1712056808511,1712056802290,2080622,0
1712056808511,1712056802330,2080514,0
1712056808511,1712056802370,2083444,0
1712056808511,1712056802410,2087788,0
1712056808511,1712056802450,2090493,0
1712056808511,1712056802490,2091906,0
1712056808511,1712056802530,2091405,0
1712056808511,1712056802570,2087487,0
1712056808511,1712056802610,2082680,0
1712056808511,1712056802650,2079650,0
1712056808511,1712056802690,2075981,0
1712056808511,1712056802730,2076157,0
1712056808511,1712056802770,2076220,0
1712056808511,1712056802810,2077406,0
1712056808511,1712056802850,2077830,0
1712056808511,1712056802890,2076082,0
1712056808511,1712056802930,2077079,0
1712056808511,1712056802970,2078438,0
1712056808511,1712056803010,2079976,0
1712056808511,1712056803050,2081475,0
1712056808511,1712056803090,2083482,0
1712056808511,1712056803130,2085480,0
1712056808511,1712056803170,2087286,0
1712056808511,1712056803210,2089230,0
1712056808511,1712056803250,2091392,0
1712056808511,1712056803290,2092511,0
1712056808511,1712056803330,2094043,0
1712056808511,1712056803370,2095219,0
1712056808511,1712056803410,2096692,0
1712056808511,1712056803450,2098542,0
1712056808511,1712056803490,2100229,0
1712056808511,1712056803530,2102976,0
1712056808511,1712056803570,2105933,0
1712056808511,1712056803610,2109720,0
1712056808511,1712056803650,2113998,0
1712056808511,1712056803690,2116540,0
1712056808511,1712056803730,2118760,0
1712056808511,1712056803770,2121217,0
1712056808511,1712056803810,2123298,0
1712056808511,1712056803850,2124818,0
1712056808511,1712056803890,2127248,0
1712056808511,1712056803930,2130837,0
1712056808511,1712056803970,2132021,0
1712056808511,1712056804010,2131246,0
1712056808511,1712056804050,2143637,0
1712056808511,1712056804090,2146274,0
1712056808511,1712056804130,2118397,0
1712056808511,1712056804170,2105924,0
1712056808511,1712056804210,2105058,0
1712056808511,1712056804250,2109755,0
1712056808511,1712056804290,2122470,0
1712056808511,1712056804330,2145261,0
1712056808511,1712056804370,2167821,0
1712056808511,1712056804410,2177112,0
1712056808511,1712056804450,2181231,0
1712056808511,1712056804490,2183422,0
1712056808511,1712056804530,2184219,0
1712056808511,1712056804570,2185307,0
1712056808511,1712056804610,2186087,0
1712056808511,1712056804650,2188601,0
1712056808511,1712056804690,2187003,0
1712056808511,1712056804730,2185065,0
1712056808511,1712056804770,2180011,0
1712056808511,1712056804810,2173670,0
1712056808511,1712056804850,2168225,0
1712056808511,1712056804890,2164949,0
1712056808511,1712056804930,2165727,0
1712056808511,1712056804970,2168833,0
1712056808511,1712056805010,2168592,0
1712056808511,1712056805050,2167645,0
1712056808511,1712056805090,2169855,0
1712056808511,1712056805130,2175576,0
1712056808511,1712056805170,2186435,0
1712056808511,1712056805210,2195938,0
1712056808511,1712056805250,2199627,0
1712056808511,1712056805290,2201229,0
1712056808511,1712056805330,2201632,0
1712056808511,1712056805370,2201806,0
1712056808511,1712056805410,2202287,0
1712056808511,1712056805450,2203675,0
1712056808511,1712056805490,2204174,0
1712056808511,1712056805530,2204343,0
1712056808511,1712056805570,2205023,0
1712056808511,1712056805610,2206236,0
1712056808511,1712056805650,2200190,0
1712056808511,1712056805690,2182368,0
1712056808511,1712056805730,2166581,0
1712056808511,1712056805770,2159525,0
1712056808511,1712056805810,2151373,0
1712056808511,1712056805850,2140652,0
1712056808511,1712056805890,2127274,0
1712056808511,1712056805930,2127172,0
1712056808511,1712056805970,2128256,0
1712056808511,1712056806010,2129573,0
1712056808511,1712056806050,2138893,0
1712056808511,1712056806090,2143732,0
1712056808511,1712056806130,2157011,0
1712056808511,1712056806170,2189311,0
1712056808511,1712056806210,2219694,0
1712056808511,1712056806250,2240931,0
1712056808511,1712056806290,2251877,0
1712056808511,1712056806330,2250887,0
1712056808511,1712056806370,2250359,0
1712056808511,1712056806410,2251086,0
1712056808511,1712056806450,2251196,0
1712056808511,1712056806490,2250313,0
1712056808511,1712056806530,2251830,0
1712056808511,1712056806570,2250434,0
1712056808511,1712056806610,2245780,0
1712056808511,1712056806650,2239522,0
1712056808511,1712056806690,2234829,0
1712056808511,1712056806730,2227060,0
1712056808511,1712056806770,2216348,0
1712056808511,1712056806810,2206084,0
1712056808511,1712056806850,2197791,0
1712056808511,1712056806890,2192191,0
1712056808511,1712056806930,2188347,0
1712056808511,1712056806970,2184916,0
1712056808511,1712056807010,2181688,0
1712056808511,1712056807050,2177687,0
1712056808511,1712056807090,2175378,0
1712056808511,1712056807130,2172567,0
1712056808511,1712056807170,2168280,0
1712056808511,1712056807210,2166273,0
1712056808511,1712056807250,2163365,0
1712056808511,1712056807290,2162869,0
1712056808511,1712056807330,2154809,0
1712056808511,1712056807370,2144782,0
1712056808511,1712056807410,2135624,0
1712056808511,1712056807450,2129357,0
1712056808511,1712056807490,2125565,0
1712056808511,1712056807530,2121218,0
1712056808511,1712056807570,2117832,0
1712056808511,1712056807610,2113602,0
1712056808511,1712056807650,2104934,0
1712056808511,1712056807690,2096000,0
1712056808511,1712056807730,2085359,0
1712056808511,1712056807770,2078251,0
1712056808511,1712056807810,2075402,0
1712056808511,1712056807850,2073138,0
1712056808511,1712056807890,2072403,0
1712056808511,1712056807930,2072543,0
1712056808511,1712056807970,2070111,0
1712056808511,1712056808010,2077023,0
1712056808511,1712056808050,2086049,0
1712056808511,1712056808090,2091249,0
1712056808511,1712056808130,2089652,0
1712056808511,1712056808170,2085664,0
1712056808511,1712056808210,2081853,0
1712056808511,1712056808250,2022847,0
1712056808511,1712056808290,2030906,0
1712056808511,1712056808330,2050433,0
1712056808511,1712056808370,2063088,0
1712056808511,1712056808410,2075350,0
1712056820510,1712056808448,2084981,0
1712056820510,1712056808488,2092078,0
1712056820510,1712056808529,2098007,0
1712056820510,1712056808569,2101249,0
1712056820510,1712056808609,2104645,0
1712056820510,1712056808649,2107678,0
1712056820510,1712056808689,2110532,0
1712056820510,1712056808730,2112972,0
1712056820510,1712056808769,2116820,0
1712056820510,1712056808809,2121162,0
1712056820510,1712056808849,2124741,0
1712056820510,1712056808890,2125665,0
1712056820510,1712056808930,2125595,0
1712056820510,1712056808970,2124518,0
1712056820510,1712056809010,2123084,0
1712056820510,1712056809050,2121951,0
1712056820510,1712056809090,2120525,0
1712056820510,1712056809131,2118985,0
1712056820510,1712056809170,2118324,0
1712056820510,1712056809210,2118387,0
1712056820510,1712056809251,2118931,0
1712056820510,1712056809291,2121167,0
1712056820510,1712056809331,2124880,0
1712056820510,1712056809371,2130026,0
1712056820510,1712056809411,2135509,0
1712056820510,1712056809451,2139401,0
1712056820510,1712056809491,2142569,0
1712056820510,1712056809532,2145956,0
1712056820510,1712056809571,2147733,0
1712056820510,1712056809612,2149822,0
1712056820510,1712056809651,2152445,0
1712056820510,1712056809692,2154358,0
1712056820510,1712056809733,2157233,0
1712056820510,1712056809772,2156416,0
1712056820510,1712056809812,2154924,0
1712056820510,1712056809852,2153259,0
1712056820510,1712056809892,2150993,0
1712056820510,1712056809933,2149667,0
1712056820510,1712056809972,2148871,0
1712056820510,1712056810012,2148787,0
1712056820510,1712056810052,2148336,0
1712056820510,1712056810093,2147107,0
1712056820510,1712056810133,2145517,0
1712056820510,1712056810173,2142004,0
1712056820510,1712056810213,2138628,0
1712056820510,1712056810253,2134592,0
1712056820510,1712056810293,2129956,0
1712056820510,1712056810334,2126643,0
1712056820510,1712056810373,2121928,0
1712056820510,1712056810413,2115751,0
1712056820510,1712056810454,2106896,0
1712056820510,1712056810494,2098777,0
1712056820510,1712056810534,2099729,0
1712056820510,1712056810574,2102015,0
1712056820510,1712056810614,2106797,0
1712056820510,1712056810654,2099758,0
1712056820510,1712056810694,2087209,0
1712056820510,1712056810735,2075193,0
1712056820510,1712056810774,2069476,0
1712056820510,1712056810815,2067658,0
1712056820510,1712056810855,2069049,0
1712056820510,1712056810895,2070550,0
1712056820510,1712056810936,2072399,0
1712056820510,1712056810975,2073776,0
1712056820510,1712056811015,2073157,0
1712056820510,1712056811055,2069225,0
1712056820510,1712056811095,2062525,0
1712056820510,1712056811136,2057742,0
1712056820510,1712056811176,2056492,0
1712056820510,1712056811216,2055023,0
1712056820510,1712056811256,2053001,0
1712056820510,1712056811296,2052305,0
1712056820510,1712056811337,2051953,0
1712056820510,1712056811376,2051051,0
1712056820510,1712056811416,2050047,0
1712056820510,1712056811456,2048515,0
1712056820510,1712056811497,2047786,0
1712056820510,1712056811537,2047327,0
1712056820510,1712056811577,2047094,0
1712056820510,1712056811617,2044026,0
1712056820510,1712056811657,2037831,0
1712056820510,1712056811697,2036793,0
1712056820510,1712056811738,2040164,0
1712056820510,1712056811778,2043093,0
1712056820510,1712056811818,2043883,0
1712056820510,1712056811858,2043120,0
1712056820510,1712056811898,2040256,0
1712056820510,1712056811939,2033149,0
1712056820510,1712056811978,2025455,0
1712056820510,1712056812018,2019696,0
1712056820510,1712056812058,2017790,0
1712056820510,1712056812099,2015172,0
1712056820510,1712056812139,2012559,0
1712056820510,1712056812179,2011650,0
1712056820510,1712056812219,2010418,0
1712056820510,1712056812259,2007721,0
1712056820510,1712056812299,2005622,0
1712056820510,1712056812340,2005393,0
1712056820510,1712056812380,2007910,0
1712056820510,1712056812420,2007677,0
1712056820510,1712056812460,2008634,0
1712056820510,1712056812500,2014600,0
1712056820510,1712056812541,2019174,0
1712056820510,1712056812580,2024893,0
1712056820510,1712056812620,2030991,0
1712056820510,1712056812660,2038543,0
1712056820510,1712056812701,2045620,0
1712056820510,1712056812741,2051210,0
1712056820510,1712056812781,2055915,0
1712056820510,1712056812821,2059037,0
1712056820510,1712056812861,2059557,0
1712056820510,1712056812901,2053293,0
1712056820510,1712056812942,2041852,0
1712056820510,1712056812982,2032210,0
1712056820510,1712056813022,2024452,0
1712056820510,1712056813062,2020355,0
1712056820510,1712056813102,2025916,0
1712056820510,1712056813143,2033857,0
1712056820510,1712056813182,2030916,0
1712056820510,1712056813222,2020537,0
1712056820510,1712056813263,2013274,0
1712056820510,1712056813303,2008680,0
1712056820510,1712056813344,2007471,0
1712056820510,1712056813383,2007566,0
1712056820510,1712056813423,2009799,0
1712056820510,1712056813463,2010888,0
1712056820510,1712056813503,2011193,0
1712056820510,1712056813544,2010799,0
1712056820510,1712056813584,2010287,0
1712056820510,1712056813624,2009488,0
1712056820510,1712056813664,2009265,0
1712056820510,1712056813704,2009334,0
1712056820510,1712056813745,2005336,0
1712056820510,1712056813784,1997091,0
1712056820510,1712056813824,1990435,0
1712056820510,1712056813865,1986694,0
1712056820510,1712056813905,1985617,0
1712056820510,1712056813946,1985197,0
1712056820510,1712056813985,1985170,0
1712056820510,1712056814025,1985325,0
1712056820510,1712056814065,1983108,0
1712056820510,1712056814105,1981620,0
1712056820510,1712056814146,1980334,0
1712056820510,1712056814186,1981169,0
1712056820510,1712056814226,1983404,0
1712056820510,1712056814266,1984956,0
1712056820510,1712056814306,1986103,0
1712056820510,1712056814346,1982898,0
1712056820510,1712056814386,1984541,0
1712056820510,1712056814426,1987779,0
1712056820510,1712056814466,1990159,0
1712056820510,1712056814506,1995809,0
1712056820510,1712056814547,2002826,0
1712056820510,1712056814586,2010290,0
1712056820510,1712056814626,2018089,0
1712056820510,1712056814667,2025980,0
1712056820510,1712056814707,2034094,0
1712056820510,1712056814748,2041081,0
1712056820510,1712056814787,2045724,0
1712056820510,1712056814827,2050237,0
1712056820510,1712056814867,2054411,0
1712056820510,1712056814907,2059216,0
1712056820510,1712056814948,2064502,0
1712056820510,1712056814987,2068948,0
1712056820510,1712056815028,2072160,0
1712056820510,1712056815068,2074768,0
1712056820510,1712056815108,2077524,0
1712056820510,1712056815149,2079390,0
1712056820510,1712056815188,2081131,0
1712056820510,1712056815228,2082496,0
1712056820510,1712056815268,2084061,0
1712056820510,1712056815308,2085931,0
1712056820510,1712056815349,2087079,0
1712056820510,1712056815389,2088327,0
1712056820510,1712056815429,2089214,0
1712056820510,1712056815469,2089937,0
1712056820510,1712056815509,2089853,0
1712056820510,1712056815550,2091333,0
1712056820510,1712056815589,2093464,0
1712056820510,1712056815629,2097518,0
1712056820510,1712056815669,2099305,0
1712056820510,1712056815709,2104707,0
1712056820510,1712056815750,2105789,0
1712056820510,1712056815789,2107450,0
1712056820510,1712056815830,2109533,0
1712056820510,1712056815870,2109149,0
1712056820510,1712056815910,2100582,0
1712056820510,1712056815951,2095828,0
1712056820510,1712056815990,2091121,0
1712056820510,1712056816030,2087793,0
1712056820510,1712056816070,2084508,0
1712056820510,1712056816110,2080739,0
1712056820510,1712056816151,2083243,0
1712056820510,1712056816191,2093243,0
1712056820510,1712056816231,2111322,0
1712056820510,1712056816271,2144698,0
1712056820510,1712056816311,2173821,0
1712056820510,1712056816352,2177722,0
1712056820510,1712056816391,2173358,0
1712056820510,1712056816431,2171953,0
1712056820510,1712056816471,2169411,0
1712056820510,1712056816511,2168646,0
1712056820510,1712056816553,2168704,0
1712056820510,1712056816592,2168614,0
1712056820510,1712056816632,2167902,0
1712056820510,1712056816672,2168228,0
1712056820510,1712056816712,2167458,0
1712056820510,1712056816753,2167129,0
1712056820510,1712056816792,2167814,0
1712056820510,1712056816832,2167170,0
1712056820510,1712056816872,2167279,0
1712056820510,1712056816912,2167732,0
1712056820510,1712056816954,2168732,0
1712056820510,1712056816993,2168927,0
1712056820510,1712056817033,2168923,0
1712056820510,1712056817073,2169067,0
1712056820510,1712056817113,2169440,0
1712056820510,1712056817154,2170003,0
1712056820510,1712056817194,2170771,0
1712056820510,1712056817233,2171185,0
1712056820510,1712056817274,2171789,0
1712056820510,1712056817314,2171910,0
1712056820510,1712056817355,2171967,0
1712056820510,1712056817394,2171963,0
1712056820510,1712056817434,2171846,0
1712056820510,1712056817474,2171984,0
1712056820510,1712056817514,2172260,0
1712056820510,1712056817555,2172371,0
1712056820510,1712056817594,2172472,0
1712056820510,1712056817635,2172491,0
1712056820510,1712056817675,2172628,0
1712056820510,1712056817715,2172614,0
1712056820510,1712056817756,2172599,0
1712056820510,1712056817795,2172729,0
1712056820510,1712056817835,2172707,0
1712056820510,1712056817875,2173049,0
1712056820510,1712056817916,2175218,0
1712056820510,1712056817957,2178760,0
1712056820510,1712056817996,2180895,0
1712056820510,1712056818036,2176943,0
1712056820510,1712056818076,2173637,0
1712056820510,1712056818116,2173045,0
1712056820510,1712056818157,2173531,0
1712056820510,1712056818196,2167563,0
1712056820510,1712056818236,2161384,0
1712056820510,1712056818277,2159010,0
1712056820510,1712056818317,2154852,0
1712056820510,1712056818358,2152538,0
1712056820510,1712056818397,2154521,0
1712056820510,1712056818437,2152872,0
1712056820510,1712056818477,2145449,0
1712056820510,1712056818518,2134920,0
1712056820510,1712056818559,2128233,0
1712056820510,1712056818598,2128051,0
1712056820510,1712056818638,2120017,0
1712056820510,1712056818678,2114092,0
1712056820510,1712056818718,2115404,0
1712056820510,1712056818759,2120049,0
1712056820510,1712056818798,2126986,0
1712056820510,1712056818838,2133304,0
1712056820510,1712056818879,2138900,0
1712056820510,1712056818919,2139891,0
1712056820510,1712056818959,2142010,0
1712056820510,1712056818999,2144886,0
1712056820510,1712056819039,2146800,0
1712056820510,1712056819079,2146883,0
1712056820510,1712056819119,2144245,0
1712056820510,1712056819160,2143028,0
1712056820510,1712056819200,2143445,0
1712056820510,1712056819240,2144371,0
1712056820510,1712056819280,2145968,0
1712056820510,1712056819320,2147246,0
1712056820510,1712056819361,2148338,0
1712056820510,1712056819400,2148385,0
1712056820510,1712056819440,2148982,0
1712056820510,1712056819481,2149775,0
1712056820510,1712056819521,2152039,0
1712056820510,1712056819561,2154192,0
1712056820510,1712056819601,2155334,0
1712056820510,1712056819641,2156777,0
1712056820510,1712056819681,2158025,0
1712056820510,1712056819721,2159942,0
1712056820510,1712056819762,2161846,0
1712056820510,1712056819802,2162849,0
1712056820510,1712056819842,2164101,0
1712056820510,1712056819882,2163353,0
1712056820510,1712056819922,2164044,0
1712056820510,1712056819963,2163378,0
1712056820510,1712056820002,2162469,0
1712056820510,1712056820042,2161136,0
1712056820510,1712056820083,2160239,0
1712056820510,1712056820123,2159369,0
1712056820510,1712056820164,2158646,0
1712056820510,1712056820203,2157903,0
1712056820510,1712056820243,2156334,0
1712056820510,1712056820283,2154491,0
1712056820510,1712056820324,2153037,0
1712056820510,1712056820364,2150906,0
1712056820510,1712056820404,2149585,0
1712056820510,1712056820444,2148852,0
1712056832557,1712056820488,2148656,0
1712056832557,1712056820528,2148356,0
1712056832557,1712056820569,2148950,0
1712056832557,1712056820608,2149507,0
1712056832557,1712056820648,2150533,0
1712056832557,1712056820689,2151683,0
1712056832557,1712056820728,2150957,0
1712056832557,1712056820769,2150168,0
1712056832557,1712056820809,2148227,0
1712056832557,1712056820849,2148178,0
1712056832557,1712056820889,2142947,0
1712056832557,1712056820929,2134520,0
1712056832557,1712056820970,2123406,0
1712056832557,1712056821009,2117497,0
1712056832557,1712056821049,2110905,0
1712056832557,1712056821089,2110925,0
1712056832557,1712056821129,2107248,0
1712056832557,1712056821170,2102366,0
1712056832557,1712056821210,2095475,0
1712056832557,1712056821250,2089216,0
1712056832557,1712056821290,2083115,0
1712056832557,1712056821330,2069913,0
1712056832557,1712056821371,2013709,0
1712056832557,1712056821410,1975338,0
1712056832557,1712056821450,1965221,0
1712056832557,1712056821490,1953052,0
1712056832557,1712056821531,1945975,0
1712056832557,1712056821571,1939345,0
1712056832557,1712056821611,1936989,0
1712056832557,1712056821651,1935484,0
1712056832557,1712056821691,1914590,0
1712056832557,1712056821731,1896284,0
1712056832557,1712056821772,1891897,0
1712056832557,1712056821811,1885168,0
1712056832557,1712056821851,1870372,0
1712056832557,1712056821891,1848553,0
1712056832557,1712056821931,1825454,0
1712056832557,1712056821972,1821938,0
1712056832557,1712056822012,1815492,0
1712056832557,1712056822052,1807088,0
1712056832557,1712056822092,1801995,0
1712056832557,1712056822132,1784141,0
1712056832557,1712056822173,1761595,0
1712056832557,1712056822212,1755485,0
1712056832557,1712056822252,1748301,0
1712056832557,1712056822292,1744628,0
1712056832557,1712056822332,1743589,0
1712056832557,1712056822373,1740441,0
1712056832557,1712056822413,1737541,0
1712056832557,1712056822453,1735300,0
1712056832557,1712056822493,1733368,0
1712056832557,1712056822533,1732236,0
1712056832557,1712056822574,1731594,0
1712056832557,1712056822613,1727872,0
1712056832557,1712056822653,1712614,0
1712056832557,1712056822693,1688137,0
1712056832557,1712056822734,1667935,0
1712056832557,1712056822774,1655495,0
1712056832557,1712056822814,1644144,0
1712056832557,1712056822854,1635284,0
1712056832557,1712056822894,1628416,0
1712056832557,1712056822934,1621734,0
1712056832557,1712056822975,1613684,0
1712056832557,1712056823014,1607553,0
1712056832557,1712056823054,1607119,0
1712056832557,1712056823095,1605597,0
1712056832557,1712056823135,1603982,0
1712056832557,1712056823175,1603015,0
1712056832557,1712056823215,1601988,0
1712056832557,1712056823255,1603136,0
1712056832557,1712056823295,1599604,0
1712056832557,1712056823335,1598600,0
1712056832557,1712056823376,1596855,0
1712056832557,1712056823415,1596046,0
1712056832557,1712056823456,1593484,0
1712056832557,1712056823496,1587546,0
1712056832557,1712056823536,1574112,0
1712056832557,1712056823577,1559795,0
1712056832557,1712056823616,1546862,0
1712056832557,1712056823656,1543196,0
1712056832557,1712056823696,1544449,0
1712056832557,1712056823736,1541923,0
1712056832557,1712056823777,1539241,0
1712056832557,1712056823817,1537730,0
1712056832557,1712056823857,1538155,0
1712056832557,1712056823897,1547529,0
1712056832557,1712056823937,1550473,0
1712056832557,1712056823978,1552252,0
1712056832557,1712056824017,1550848,0
1712056832557,1712056824057,1551046,0
1712056832557,1712056824097,1550866,0
1712056832557,1712056824137,1543171,0
1712056832557,1712056824178,1540036,0
1712056832557,1712056824218,1540401,0
1712056832557,1712056824258,1540534,0
1712056832557,1712056824298,1544993,0
1712056832557,1712056824338,1536950,0
1712056832557,1712056824379,1537202,0
1712056832557,1712056824418,1529960,0
1712056832557,1712056824458,1513144,0
1712056832557,1712056824498,1509598,0
1712056832557,1712056824539,1515641,0
1712056832557,1712056824579,1525352,0
1712056832557,1712056824619,1533435,0
1712056832557,1712056824659,1537173,0
1712056832557,1712056824699,1558925,0
1712056832557,1712056824739,1577435,0
1712056832557,1712056824780,1592451,0
1712056832557,1712056824819,1590922,0
1712056832557,1712056824859,1576545,0
1712056832557,1712056824900,1570833,0
1712056832557,1712056824940,1569344,0
1712056832557,1712056824980,1575641,0
1712056832557,1712056825020,1564382,0
1712056832557,1712056825060,1586005,0
1712056832557,1712056825100,1606106,0
1712056832557,1712056825140,1607086,0
1712056832557,1712056825181,1612234,0
1712056832557,1712056825220,1626749,0
1712056832557,1712056825261,1637123,0
1712056832557,1712056825301,1648491,0
1712056832557,1712056825341,1665025,0
1712056832557,1712056825382,1685934,0
1712056832557,1712056825421,1708198,0
1712056832557,1712056825461,1726750,0
1712056832557,1712056825502,1738562,0
1712056832557,1712056825541,1748904,0
1712056832557,1712056825582,1757205,0
1712056832557,1712056825622,1762492,0
1712056832557,1712056825662,1770776,0
1712056832557,1712056825702,1780855,0
1712056832557,1712056825742,1790533,0
1712056832557,1712056825783,1798003,0
1712056832557,1712056825822,1803948,0
1712056832557,1712056825863,1809692,0
1712056832557,1712056825903,1816940,0
1712056832557,1712056825943,1825205,0
1712056832557,1712056825984,1832778,0
1712056832557,1712056826023,1839260,0
1712056832557,1712056826063,1844404,0
1712056832557,1712056826103,1849234,0
1712056832557,1712056826143,1853212,0
1712056832557,1712056826184,1856148,0
1712056832557,1712056826224,1854072,0
1712056832557,1712056826264,1850618,0
1712056832557,1712056826304,1852546,0
1712056832557,1712056826344,1859314,0
1712056832557,1712056826385,1865564,0
1712056832557,1712056826424,1871053,0
1712056832557,1712056826464,1875713,0
1712056832557,1712056826504,1879280,0
1712056832557,1712056826545,1881012,0
1712056832557,1712056826586,1882808,0
1712056832557,1712056826625,1885834,0
1712056832557,1712056826665,1888969,0
1712056832557,1712056826705,1890868,0
1712056832557,1712056826745,1892225,0
1712056832557,1712056826786,1893068,0
1712056832557,1712056826826,1892847,0
1712056832557,1712056826866,1892585,0
1712056832557,1712056826906,1892693,0
1712056832557,1712056826946,1893298,0
1712056832557,1712056826987,1892790,0
1712056832557,1712056827026,1882728,0
1712056832557,1712056827066,1870183,0
1712056832557,1712056827106,1866009,0
1712056832557,1712056827146,1867705,0
1712056832557,1712056827187,1869807,0
1712056832557,1712056827227,1871671,0
1712056832557,1712056827267,1872711,0
1712056832557,1712056827307,1873067,0
1712056832557,1712056827347,1873410,0
1712056832557,1712056827388,1874659,0
1712056832557,1712056827427,1876678,0
1712056832557,1712056827467,1879327,0
1712056832557,1712056827507,1882341,0
1712056832557,1712056827547,1885738,0
1712056832557,1712056827588,1888867,0
1712056832557,1712056827628,1891353,0
1712056832557,1712056827668,1893543,0
1712056832557,1712056827708,1895564,0
1712056832557,1712056827748,1897447,0
1712056832557,1712056827789,1891831,0
1712056832557,1712056827828,1880299,0
1712056832557,1712056827868,1872241,0
1712056832557,1712056827908,1869738,0
1712056832557,1712056827948,1870281,0
1712056832557,1712056827989,1871433,0
1712056832557,1712056828029,1872871,0
1712056832557,1712056828069,1874452,0
1712056832557,1712056828109,1875365,0
1712056832557,1712056828149,1876031,0
1712056832557,1712056828190,1876774,0
1712056832557,1712056828229,1878403,0
1712056832557,1712056828269,1881272,0
1712056832557,1712056828309,1884712,0
1712056832557,1712056828349,1888089,0
1712056832557,1712056828390,1891270,0
1712056832557,1712056828429,1894044,0
1712056832557,1712056828469,1896835,0
1712056832557,1712056828510,1899669,0
1712056832557,1712056828550,1902173,0
1712056832557,1712056828590,1896334,0
1712056832557,1712056828633,1886094,0
1712056832557,1712056828670,1879344,0
1712056832557,1712056828710,1876504,0
1712056832557,1712056828750,1875496,0
1712056832557,1712056828791,1875361,0
1712056832557,1712056828830,1876455,0
1712056832557,1712056828871,1877925,0
1712056832557,1712056828911,1878491,0
1712056832557,1712056828951,1878367,0
1712056832557,1712056828992,1877847,0
1712056832557,1712056829031,1878242,0
1712056832557,1712056829071,1879876,0
1712056832557,1712056829111,1882303,0
1712056832557,1712056829151,1884905,0
1712056832557,1712056829192,1886738,0
1712056832557,1712056829231,1888001,0
1712056832557,1712056829271,1889633,0
1712056832557,1712056829311,1891213,0
1712056832557,1712056829352,1885996,0
1712056832557,1712056829392,1875305,0
1712056832557,1712056829432,1867912,0
1712056832557,1712056829472,1865288,0
1712056832557,1712056829512,1865030,0
1712056832557,1712056829552,1865443,0
1712056832557,1712056829593,1866175,0
1712056832557,1712056829632,1866598,0
1712056832557,1712056829672,1866276,0
1712056832557,1712056829713,1865605,0
1712056832557,1712056829753,1865320,0
1712056832557,1712056829793,1866125,0
1712056832557,1712056829833,1868317,0
1712056832557,1712056829873,1870921,0
1712056832557,1712056829913,1873740,0
1712056832557,1712056829953,1876659,0
1712056832557,1712056829994,1879293,0
1712056832557,1712056830033,1881577,0
1712056832557,1712056830074,1883942,0
1712056832557,1712056830114,1886030,0
1712056832557,1712056830154,1879899,0
1712056832557,1712056830195,1868196,0
1712056832557,1712056830234,1859881,0
1712056832557,1712056830274,1857362,0
1712056832557,1712056830314,1857977,0
1712056832557,1712056830354,1859273,0
1712056832557,1712056830395,1860797,0
1712056832557,1712056830435,1861654,0
1712056832557,1712056830475,1860959,0
1712056832557,1712056830515,1859702,0
1712056832557,1712056830555,1859283,0
1712056832557,1712056830596,1860038,0
1712056832557,1712056830635,1861817,0
1712056832557,1712056830675,1864185,0
1712056832557,1712056830715,1866491,0
1712056832557,1712056830755,1868982,0
1712056832557,1712056830796,1870974,0
1712056832557,1712056830838,1872892,0
1712056832557,1712056830876,1874990,0
1712056832557,1712056830916,1871862,0
1712056832557,1712056830956,1860367,0
1712056832557,1712056830997,1850395,0
1712056832557,1712056831036,1846820,0
1712056832557,1712056831076,1847766,0
1712056832557,1712056831117,1850148,0
1712056832557,1712056831157,1852317,0
1712056832557,1712056831197,1853732,0
1712056832557,1712056831237,1852304,0
1712056832557,1712056831277,1848571,0
1712056832557,1712056831317,1846458,0
1712056832557,1712056831357,1846546,0
1712056832557,1712056831398,1846502,0
1712056832557,1712056831438,1847295,0
1712056832557,1712056831478,1849483,0
1712056832557,1712056831518,1854304,0
1712056832557,1712056831558,1862214,0
1712056832557,1712056831599,1871972,0
1712056832557,1712056831638,1882425,0
1712056832557,1712056831678,1890693,0
1712056832557,1712056831718,1892998,0
1712056832557,1712056831759,1882481,0
1712056832557,1712056831799,1872489,0
1712056832557,1712056831839,1871106,0
1712056832557,1712056831879,1875111,0
1712056832557,1712056831919,1881444,0
1712056832557,1712056831959,1886343,0
1712056832557,1712056832000,1887897,0
1712056832557,1712056832040,1885199,0
1712056832557,1712056832080,1881426,0
1712056832557,1712056832120,1879732,0
1712056832557,1712056832160,1879976,0
1712056832557,1712056832201,1883467,0
1712056832557,1712056832240,1890513,0
1712056832557,1712056832280,1902727,0
1712056832557,1712056832321,1911331,0
1712056832557,1712056832361,1920306,0
1712056832557,1712056832402,1928215,0
1712056832557,1712056832441,1936023,0
1712056832557,1712056832481,1943379,0
1712056844602,1712056832520,1949633,0
1712056844602,1712056832560,1953960,0
1712056844602,1712056832601,1956620,0
1712056844602,1712056832641,1953831,0
1712056844602,1712056832681,1946540,0
1712056844602,1712056832721,1941741,0
1712056844602,1712056832761,1940891,0
1712056844602,1712056832802,1940791,0
1712056844602,1712056832841,1941246,0
1712056844602,1712056832881,1941391,0
1712056844602,1712056832922,1940820,0
1712056844602,1712056832962,1937669,0
1712056844602,1712056833003,1931724,0
1712056844602,1712056833042,1927309,0
1712056844602,1712056833082,1927902,0
1712056844602,1712056833122,1930938,0
1712056844602,1712056833162,1935925,0
1712056844602,1712056833203,1940501,0
1712056844602,1712056833243,1944751,0
1712056844602,1712056833283,1948154,0
1712056844602,1712056833323,1951157,0
1712056844602,1712056833363,1954296,0
1712056844602,1712056833404,1957348,0
1712056844602,1712056833443,1953755,0
1712056844602,1712056833483,1944870,0
1712056844602,1712056833524,1946142,0
1712056844602,1712056833564,1954178,0
1712056844602,1712056833605,1950301,0
1712056844602,1712056833644,1942498,0
1712056844602,1712056833684,1930220,0
1712056844602,1712056833724,1929467,0
1712056844602,1712056833764,1941698,0
1712056844602,1712056833805,1954535,0
1712056844602,1712056833844,1963097,0
1712056844602,1712056833885,1971972,0
1712056844602,1712056833925,1975025,0
1712056844602,1712056833965,1978991,0
1712056844602,1712056834006,1985630,0
1712056844602,1712056834045,1989680,0
1712056844602,1712056834085,1991358,0
1712056844602,1712056834125,1988729,0
1712056844602,1712056834165,1987238,0
1712056844602,1712056834206,1985333,0
1712056844602,1712056834245,1982015,0
1712056844602,1712056834286,1979708,0
1712056844602,1712056834326,1973791,0
1712056844602,1712056834366,1972004,0
1712056844602,1712056834407,1970793,0
1712056844602,1712056834446,1972875,0
1712056844602,1712056834486,1976117,0
1712056844602,1712056834526,1980409,0
1712056844602,1712056834566,1985495,0
1712056844602,1712056834607,1989924,0
1712056844602,1712056834647,1993240,0
1712056844602,1712056834687,1995118,0
1712056844602,1712056834727,1996193,0
1712056844602,1712056834767,1997380,0
1712056844602,1712056834808,1999108,0
1712056844602,1712056834847,2001234,0
1712056844602,1712056834887,2005244,0
1712056844602,1712056834927,2010221,0
1712056844602,1712056834967,2013712,0
1712056844602,1712056835008,2017042,0
1712056844602,1712056835047,2019379,0
1712056844602,1712056835087,2018588,0
1712056844602,1712056835128,2018744,0
1712056844602,1712056835168,2021448,0
1712056844602,1712056835208,2025495,0
1712056844602,1712056835248,2028499,0
1712056844602,1712056835288,2033979,0
1712056844602,1712056835328,2038968,0
1712056844602,1712056835368,2042793,0
1712056844602,1712056835409,2038570,0
1712056844602,1712056835448,2025246,0
1712056844602,1712056835488,2007974,0
1712056844602,1712056835528,1986436,0
1712056844602,1712056835568,1969391,0
1712056844602,1712056835609,1957042,0
1712056844602,1712056835649,1950572,0
1712056844602,1712056835689,1949837,0
1712056844602,1712056835729,1951467,0
1712056844602,1712056835769,1951153,0
1712056844602,1712056835810,1953553,0
1712056844602,1712056835849,1953925,0
1712056844602,1712056835889,1944934,0
1712056844602,1712056835929,1932263,0
1712056844602,1712056835970,1919557,0
1712056844602,1712056836010,1913821,0
1712056844602,1712056836050,1907936,0
1712056844602,1712056836090,1900088,0
1712056844602,1712056836130,1894160,0
1712056844602,1712056836170,1889281,0
1712056844602,1712056836211,1881080,0
1712056844602,1712056836250,1878572,0
1712056844602,1712056836290,1873223,0
1712056844602,1712056836331,1872351,0
1712056844602,1712056836371,1872309,0
1712056844602,1712056836411,1872030,0
1712056844602,1712056836451,1871503,0
1712056844602,1712056836491,1871618,0
1712056844602,1712056836531,1871311,0
1712056844602,1712056836571,1870759,0
1712056844602,1712056836612,1869508,0
1712056844602,1712056836651,1859059,0
1712056844602,1712056836692,1841136,0
1712056844602,1712056836732,1823388,0
1712056844602,1712056836772,1811193,0
1712056844602,1712056836813,1803790,0
1712056844602,1712056836852,1799425,0
1712056844602,1712056836892,1796211,0
1712056844602,1712056836932,1793850,0
1712056844602,1712056836972,1790473,0
1712056844602,1712056837013,1785950,0
1712056844602,1712056837053,1781809,0
1712056844602,1712056837093,1779516,0
1712056844602,1712056837133,1778795,0
1712056844602,1712056837173,1779064,0
1712056844602,1712056837214,1779841,0
1712056844602,1712056837253,1780870,0
1712056844602,1712056837293,1782529,0
1712056844602,1712056837333,1784609,0
1712056844602,1712056837373,1785803,0
1712056844602,1712056837414,1776770,0
1712056844602,1712056837454,1761467,0
1712056844602,1712056837494,1747707,0
1712056844602,1712056837534,1740151,0
1712056844602,1712056837574,1736839,0
1712056844602,1712056837615,1735073,0
1712056844602,1712056837654,1734012,0
1712056844602,1712056837694,1732844,0
1712056844602,1712056837734,1731365,0
1712056844602,1712056837775,1728706,0
1712056844602,1712056837815,1726530,0
1712056844602,1712056837855,1725487,0
1712056844602,1712056837895,1725610,0
1712056844602,1712056837935,1726712,0
1712056844602,1712056837975,1728439,0
1712056844602,1712056838016,1730514,0
1712056844602,1712056838055,1732730,0
1712056844602,1712056838095,1734772,0
1712056844602,1712056838136,1736191,0
1712056844602,1712056838176,1727496,0
1712056844602,1712056838217,1712184,0
1712056844602,1712056838256,1699103,0
1712056844602,1712056838296,1692374,0
1712056844602,1712056838336,1689843,0
1712056844602,1712056838376,1689181,0
1712056844602,1712056838417,1689577,0
1712056844602,1712056838457,1690041,0
1712056844602,1712056838497,1689902,0
1712056844602,1712056838537,1688912,0
1712056844602,1712056838577,1688288,0
1712056844602,1712056838618,1688929,0
1712056844602,1712056838657,1690743,0
1712056844602,1712056838697,1693529,0
1712056844602,1712056838738,1696694,0
1712056844602,1712056838778,1699944,0
1712056844602,1712056838819,1703122,0
1712056844602,1712056838858,1706321,0
1712056844602,1712056838898,1709305,0
1712056844602,1712056838938,1710745,0
1712056844602,1712056838979,1701056,0
1712056844602,1712056839019,1686310,0
1712056844602,1712056839059,1675398,0
1712056844602,1712056839099,1671091,0
1712056844602,1712056839139,1670371,0
1712056844602,1712056839179,1671035,0
1712056844602,1712056839220,1672466,0
1712056844602,1712056839259,1673538,0
1712056844602,1712056839300,1673508,0
1712056844602,1712056839340,1672904,0
1712056844602,1712056839380,1672972,0
1712056844602,1712056839421,1674238,0
1712056844602,1712056839460,1676660,0
1712056844602,1712056839500,1679750,0
1712056844602,1712056839541,1683236,0
1712056844602,1712056839581,1686636,0
1712056844602,1712056839621,1689998,0
1712056844602,1712056839661,1693144,0
1712056844602,1712056839701,1696319,0
1712056844602,1712056839741,1698166,0
1712056844602,1712056839781,1689993,0
1712056844602,1712056839822,1676058,0
1712056844602,1712056839862,1665837,0
1712056844602,1712056839902,1662039,0
1712056844602,1712056839942,1661841,0
1712056844602,1712056839982,1663446,0
1712056844602,1712056840023,1665548,0
1712056844602,1712056840062,1666906,0
1712056844602,1712056840103,1666541,0
1712056844602,1712056840143,1666728,0
1712056844602,1712056840183,1668637,0
1712056844602,1712056840223,1671375,0
1712056844602,1712056840263,1674485,0
1712056844602,1712056840303,1678036,0
1712056844602,1712056840343,1681578,0
1712056844602,1712056840383,1684938,0
1712056844602,1712056840424,1688141,0
1712056844602,1712056840463,1691361,0
1712056844602,1712056840503,1694044,0
1712056844602,1712056840544,1687477,0
1712056844602,1712056840584,1674504,0
1712056844602,1712056840624,1664476,0
1712056844602,1712056840664,1660854,0
1712056844602,1712056840704,1661174,0
1712056844602,1712056840744,1662675,0
1712056844602,1712056840784,1665027,0
1712056844602,1712056840825,1666142,0
1712056844602,1712056840864,1665534,0
1712056844602,1712056840904,1663902,0
1712056844602,1712056840944,1663336,0
1712056844602,1712056840985,1664492,0
1712056844602,1712056841025,1666671,0
1712056844602,1712056841065,1669630,0
1712056844602,1712056841105,1672764,0
1712056844602,1712056841145,1675585,0
1712056844602,1712056841185,1678460,0
1712056844602,1712056841226,1681375,0
1712056844602,1712056841265,1682600,0
1712056844602,1712056841305,1673286,0
1712056844602,1712056841345,1659455,0
1712056844602,1712056841386,1649705,0
1712056844602,1712056841426,1645957,0
1712056844602,1712056841466,1645434,0
1712056844602,1712056841506,1646144,0
1712056844602,1712056841546,1647563,0
1712056844602,1712056841586,1648143,0
1712056844602,1712056841627,1647267,0
1712056844602,1712056841666,1646221,0
1712056844602,1712056841706,1646366,0
1712056844602,1712056841747,1648033,0
1712056844602,1712056841787,1650667,0
1712056844602,1712056841827,1653956,0
1712056844602,1712056841867,1657343,0
1712056844602,1712056841907,1660658,0
1712056844602,1712056841947,1663941,0
1712056844602,1712056841987,1666883,0
1712056844602,1712056842028,1669970,0
1712056844602,1712056842067,1672488,0
1712056844602,1712056842108,1664784,0
1712056844602,1712056842148,1650479,0
1712056844602,1712056842188,1639810,0
1712056844602,1712056842229,1635640,0
1712056844602,1712056842268,1634905,0
1712056844602,1712056842308,1634926,0
1712056844602,1712056842348,1635650,0
1712056844602,1712056842388,1636217,0
1712056844602,1712056842429,1635591,0
1712056844602,1712056842469,1634417,0
1712056844602,1712056842508,1633997,0
1712056844602,1712056842549,1635197,0
1712056844602,1712056842589,1637515,0
1712056844602,1712056842630,1640427,0
1712056844602,1712056842669,1643573,0
1712056844602,1712056842709,1646745,0
1712056844602,1712056842749,1649931,0
1712056844602,1712056842789,1652563,0
1712056844602,1712056842830,1655493,0
1712056844602,1712056842869,1658232,0
1712056844602,1712056842910,1661183,0
1712056844602,1712056842950,1662931,0
1712056844602,1712056842990,1653221,0
1712056844602,1712056843031,1638689,0
1712056844602,1712056843070,1629153,0
1712056844602,1712056843110,1625955,0
1712056844602,1712056843150,1625238,0
1712056844602,1712056843190,1625080,0
1712056844602,1712056843231,1625804,0
1712056844602,1712056843270,1625828,0
1712056844602,1712056843311,1625132,0
1712056844602,1712056843351,1624253,0
1712056844602,1712056843391,1624333,0
1712056844602,1712056843432,1625992,0
1712056844602,1712056843471,1628856,0
1712056844602,1712056843511,1632151,0
1712056844602,1712056843551,1635537,0
1712056844602,1712056843591,1639030,0
1712056844602,1712056843632,1642378,0
1712056844602,1712056843672,1645798,0
1712056844602,1712056843712,1648905,0
1712056844602,1712056843752,1652103,0
1712056844602,1712056843792,1655198,0
1712056844602,1712056843833,1658603,0
1712056844602,1712056843872,1657413,0
1712056844602,1712056843912,1645038,0
1712056844602,1712056843952,1632821,0
1712056844602,1712056843992,1626678,0
1712056844602,1712056844033,1625462,0
1712056844602,1712056844073,1625593,0
1712056844602,1712056844113,1626329,0
1712056844602,1712056844153,1627365,0
1712056844602,1712056844193,1627628,0
1712056844602,1712056844234,1626869,0
1712056844602,1712056844273,1626565,0
1712056844602,1712056844313,1627525,0
1712056844602,1712056844354,1629882,0
1712056844602,1712056844394,1633079,0
1712056844602,1712056844435,1636668,0
1712056844602,1712056844474,1640293,0
1712056844602,1712056844514,1643835,0
1712056856645,1712056844554,1647144,0
1712056856645,1712056844594,1650381,0
1712056856645,1712056844635,1653769,0
1712056856645,1712056844675,1657111,0
1712056856645,1712056844715,1660676,0
1712056856645,1712056844755,1664050,0
1712056856645,1712056844795,1657522,0
1712056856645,1712056844836,1645433,0
1712056856645,1712056844875,1637547,0
1712056856645,1712056844915,1635542,0
1712056856645,1712056844956,1636410,0
1712056856645,1712056844996,1638231,0
1712056856645,1712056845037,1640426,0
1712056856645,1712056845076,1641407,0
1712056856645,1712056845116,1640930,0
1712056856645,1712056845156,1640220,0
1712056856645,1712056845196,1640702,0
1712056856645,1712056845237,1642885,0
1712056856645,1712056845277,1646163,0
1712056856645,1712056845317,1650027,0
1712056856645,1712056845357,1653749,0
1712056856645,1712056845397,1657248,0
1712056856645,1712056845438,1660451,0
1712056856645,1712056845478,1663458,0
1712056856645,1712056845518,1666641,0
1712056856645,1712056845558,1670245,0
1712056856645,1712056845598,1670456,0
1712056856645,1712056845639,1659766,0
1712056856645,1712056845678,1648303,0
1712056856645,1712056845718,1642409,0
1712056856645,1712056845758,1641351,0
1712056856645,1712056845798,1641986,0
1712056856645,1712056845839,1643046,0
1712056856645,1712056845879,1644514,0
1712056856645,1712056845919,1644820,0
1712056856645,1712056845959,1643874,0
1712056856645,1712056845999,1643305,0
1712056856645,1712056846040,1644384,0
1712056856645,1712056846080,1646682,0
1712056856645,1712056846120,1649807,0
1712056856645,1712056846160,1652935,0
1712056856645,1712056846200,1656326,0
1712056856645,1712056846241,1659394,0
1712056856645,1712056846280,1662428,0
1712056856645,1712056846320,1665264,0
1712056856645,1712056846360,1667914,0
1712056856645,1712056846401,1670822,0
1712056856645,1712056846442,1673606,0
1712056856645,1712056846481,1667699,0
1712056856645,1712056846521,1654033,0
1712056856645,1712056846561,1643429,0
1712056856645,1712056846601,1638762,0
1712056856645,1712056846642,1637434,0
1712056856645,1712056846681,1636694,0
1712056856645,1712056846722,1636667,0
1712056856645,1712056846762,1636843,0
1712056856645,1712056846802,1636253,0
1712056856645,1712056846842,1635222,0
1712056856645,1712056846882,1634945,0
1712056856645,1712056846922,1636268,0
1712056856645,1712056846962,1638680,0
1712056856645,1712056847002,1641761,0
1712056856645,1712056847043,1644844,0
1712056856645,1712056847082,1648024,0
1712056856645,1712056847122,1650902,0
1712056856645,1712056847163,1653829,0
1712056856645,1712056847203,1656663,0
1712056856645,1712056847243,1659549,0
1712056856645,1712056847283,1662540,0
1712056856645,1712056847323,1665630,0
1712056856645,1712056847363,1668925,0
1712056856645,1712056847403,1671305,0
1712056856645,1712056847444,1662011,0
1712056856645,1712056847483,1647794,0
1712056856645,1712056847524,1638473,0
1712056856645,1712056847564,1634538,0
1712056856645,1712056847604,1633203,0
1712056856645,1712056847645,1631946,0
1712056856645,1712056847684,1631620,0
1712056856645,1712056847724,1631420,0
1712056856645,1712056847764,1630503,0
1712056856645,1712056847804,1629424,0
1712056856645,1712056847845,1629079,0
1712056856645,1712056847885,1630269,0
1712056856645,1712056847925,1632618,0
1712056856645,1712056847965,1635583,0
1712056856645,1712056848005,1638602,0
1712056856645,1712056848046,1641548,0
1712056856645,1712056848085,1644454,0
1712056856645,1712056848125,1647350,0
1712056856645,1712056848165,1650205,0
1712056856645,1712056848205,1653284,0
1712056856645,1712056848246,1656386,0
1712056856645,1712056848286,1659664,0
1712056856645,1712056848326,1663017,0
1712056856645,1712056848366,1666793,0
1712056856645,1712056848406,1668126,0
1712056856645,1712056848447,1657355,0
1712056856645,1712056848486,1644256,0
1712056856645,1712056848526,1636576,0
1712056856645,1712056848566,1633748,0
1712056856645,1712056848606,1632723,0
1712056856645,1712056848647,1632162,0
1712056856645,1712056848686,1632280,0
1712056856645,1712056848727,1632061,0
1712056856645,1712056848767,1631225,0
1712056856645,1712056848807,1630402,0
1712056856645,1712056848848,1630663,0
1712056856645,1712056848887,1632212,0
1712056856645,1712056848927,1634742,0
1712056856645,1712056848967,1637814,0
1712056856645,1712056849007,1641137,0
1712056856645,1712056849048,1644273,0
1712056856645,1712056849088,1647381,0
1712056856645,1712056849128,1650430,0
1712056856645,1712056849168,1653601,0
1712056856645,1712056849208,1656743,0
1712056856645,1712056849249,1660096,0
1712056856645,1712056849288,1663572,0
1712056856645,1712056849328,1667056,0
1712056856645,1712056849368,1670656,0
1712056856645,1712056849408,1674189,0
1712056856645,1712056849449,1669310,0
1712056856645,1712056849489,1656276,0
1712056856645,1712056849529,1646094,0
1712056856645,1712056849569,1642015,0
1712056856645,1712056849609,1641182,0
1712056856645,1712056849650,1641180,0
1712056856645,1712056849689,1641275,0
1712056856645,1712056849729,1641551,0
1712056856645,1712056849769,1641201,0
1712056856645,1712056849810,1640393,0
1712056856645,1712056849850,1640108,0
1712056856645,1712056849890,1640991,0
1712056856645,1712056849930,1643329,0
1712056856645,1712056849970,1646334,0
1712056856645,1712056850010,1649570,0
1712056856645,1712056850051,1652628,0
1712056856645,1712056850090,1655855,0
1712056856645,1712056850131,1658994,0
1712056856645,1712056850171,1661924,0
1712056856645,1712056850211,1665017,0
1712056856645,1712056850252,1668459,0
1712056856645,1712056850291,1671778,0
1712056856645,1712056850331,1675376,0
1712056856645,1712056850371,1678920,0
1712056856645,1712056850412,1682004,0
1712056856645,1712056850452,1675188,0
1712056856645,1712056850492,1663177,0
1712056856645,1712056850532,1655395,0
1712056856645,1712056850572,1652825,0
1712056856645,1712056850612,1652928,0
1712056856645,1712056850653,1653348,0
1712056856645,1712056850693,1654243,0
1712056856645,1712056850733,1654534,0
1712056856645,1712056850773,1653992,0
1712056856645,1712056850813,1653035,0
1712056856645,1712056850854,1652992,0
1712056856645,1712056850893,1654418,0
1712056856645,1712056850933,1656747,0
1712056856645,1712056850973,1659767,0
1712056856645,1712056851014,1663054,0
1712056856645,1712056851054,1666088,0
1712056856645,1712056851094,1669022,0
1712056856645,1712056851134,1672028,0
1712056856645,1712056851174,1674731,0
1712056856645,1712056851214,1677625,0
1712056856645,1712056851255,1680496,0
1712056856645,1712056851294,1683499,0
1712056856645,1712056851334,1686966,0
1712056856645,1712056851375,1689241,0
1712056856645,1712056851415,1681741,0
1712056856645,1712056851455,1671266,0
1712056856645,1712056851495,1665663,0
1712056856645,1712056851535,1664461,0
1712056856645,1712056851575,1665290,0
1712056856645,1712056851615,1666422,0
1712056856645,1712056851656,1667684,0
1712056856645,1712056851696,1667762,0
1712056856645,1712056851736,1666497,0
1712056856645,1712056851776,1665395,0
1712056856645,1712056851816,1665330,0
1712056856645,1712056851857,1666908,0
1712056856645,1712056851896,1669177,0
1712056856645,1712056851937,1672036,0
1712056856645,1712056851977,1674908,0
1712056856645,1712056852017,1677551,0
1712056856645,1712056852058,1679971,0
1712056856645,1712056852097,1682440,0
1712056856645,1712056852137,1684743,0
1712056856645,1712056852177,1687246,0
1712056856645,1712056852218,1690148,0
1712056856645,1712056852258,1691657,0
1712056856645,1712056852298,1683337,0
1712056856645,1712056852338,1672219,0
1712056856645,1712056852378,1665710,0
1712056856645,1712056852418,1663678,0
1712056856645,1712056852459,1663415,0
1712056856645,1712056852498,1663273,0
1712056856645,1712056852539,1663677,0
1712056856645,1712056852579,1663274,0
1712056856645,1712056852619,1662018,0
1712056856645,1712056852660,1660829,0
1712056856645,1712056852699,1660627,0
1712056856645,1712056852739,1662114,0
1712056856645,1712056852779,1666690,0
1712056856645,1712056852820,1669271,0
1712056856645,1712056852860,1671687,0
1712056856645,1712056852900,1674161,0
1712056856645,1712056852940,1676561,0
1712056856645,1712056852980,1678842,0
1712056856645,1712056853020,1681013,0
1712056856645,1712056853061,1683641,0
1712056856645,1712056853100,1686464,0
1712056856645,1712056853140,1689344,0
1712056856645,1712056853180,1684212,0
1712056856645,1712056853220,1672065,0
1712056856645,1712056853261,1662875,0
1712056856645,1712056853301,1658794,0
1712056856645,1712056853341,1657117,0
1712056856645,1712056853381,1655942,0
1712056856645,1712056853421,1655136,0
1712056856645,1712056853462,1654776,0
1712056856645,1712056853501,1654010,0
1712056856645,1712056853541,1652938,0
1712056856645,1712056853581,1652327,0
1712056856645,1712056853622,1653275,0
1712056856645,1712056853663,1655216,0
1712056856645,1712056853702,1657802,0
1712056856645,1712056853742,1660536,0
1712056856645,1712056853782,1663327,0
1712056856645,1712056853822,1666152,0
1712056856645,1712056853863,1668670,0
1712056856645,1712056853902,1671254,0
1712056856645,1712056853942,1674176,0
1712056856645,1712056853982,1676935,0
1712056856645,1712056854023,1679715,0
1712056856645,1712056854063,1682698,0
1712056856645,1712056854103,1685814,0
1712056856645,1712056854143,1688032,0
1712056856645,1712056854183,1679833,0
1712056856645,1712056854223,1668134,0
1712056856645,1712056854264,1660736,0
1712056856645,1712056854303,1657724,0
1712056856645,1712056854343,1656410,0
1712056856645,1712056854384,1655453,0
1712056856645,1712056854424,1654962,0
1712056856645,1712056854464,1654768,0
1712056856645,1712056854504,1653891,0
1712056856645,1712056854544,1653000,0
1712056856645,1712056854584,1652914,0
1712056856645,1712056854624,1654006,0
1712056856645,1712056854665,1656245,0
1712056856645,1712056854704,1658702,0
1712056856645,1712056854744,1661713,0
1712056856645,1712056854785,1664433,0
1712056856645,1712056854825,1667079,0
1712056856645,1712056854865,1669944,0
1712056856645,1712056854905,1672635,0
1712056856645,1712056854945,1675432,0
1712056856645,1712056854985,1678444,0
1712056856645,1712056855025,1681714,0
1712056856645,1712056855066,1684903,0
1712056856645,1712056855106,1688429,0
1712056856645,1712056855146,1690917,0
1712056856645,1712056855186,1683775,0
1712056856645,1712056855226,1672791,0
1712056856645,1712056855267,1665973,0
1712056856645,1712056855306,1663602,0
1712056856645,1712056855346,1662811,0
1712056856645,1712056855386,1662321,0
1712056856645,1712056855426,1662181,0
1712056856645,1712056855467,1662121,0
1712056856645,1712056855507,1661627,0
1712056856645,1712056855547,1660944,0
1712056856645,1712056855587,1661153,0
1712056856645,1712056855627,1662583,0
1712056856645,1712056855668,1664934,0
1712056856645,1712056855707,1667607,0
1712056856645,1712056855747,1670494,0
1712056856645,1712056855787,1673144,0
1712056856645,1712056855828,1675819,0
1712056856645,1712056855869,1678615,0
1712056856645,1712056855908,1681377,0
1712056856645,1712056855948,1684289,0
1712056856645,1712056855988,1687299,0
1712056856645,1712056856028,1690455,0
1712056856645,1712056856069,1693593,0
1712056856645,1712056856109,1696746,0
1712056856645,1712056856149,1699018,0
1712056856645,1712056856189,1691613,0
1712056856645,1712056856229,1681602,0
1712056856645,1712056856270,1675850,0
1712056856645,1712056856309,1674244,0
1712056856645,1712056856349,1674066,0
1712056856645,1712056856389,1673951,0
1712056856645,1712056856430,1674292,0
1712056856645,1712056856470,1674286,0
1712056856645,1712056856510,1674006,0
1712056856645,1712056856550,1673528,0
1712056868663,1712056856590,1673784,0
1712056868663,1712056856630,1675350,0
1712056868663,1712056856671,1677685,0
1712056868663,1712056856711,1680496,0
1712056868663,1712056856751,1683348,0
1712056868663,1712056856791,1686070,0
1712056868663,1712056856831,1688786,0
1712056868663,1712056856872,1691485,0
1712056868663,1712056856911,1694309,0
1712056868663,1712056856951,1697303,0
1712056868663,1712056856992,1700341,0
1712056868663,1712056857032,1703342,0
1712056868663,1712056857073,1706607,0
1712056868663,1712056857112,1710077,0
1712056868663,1712056857152,1713348,0
1712056868663,1712056857192,1709068,0
1712056868663,1712056857232,1699786,0
1712056868663,1712056857273,1693346,0
1712056868663,1712056857313,1691621,0
1712056868663,1712056857353,1692065,0
1712056868663,1712056857393,1692796,0
1712056868663,1712056857433,1693681,0
1712056868663,1712056857474,1694207,0
1712056868663,1712056857514,1693841,0
1712056868663,1712056857554,1693105,0
1712056868663,1712056857594,1693156,0
1712056868663,1712056857634,1694428,0
1712056868663,1712056857675,1696821,0
1712056868663,1712056857714,1699461,0
1712056868663,1712056857755,1702500,0
1712056868663,1712056857795,1705311,0
1712056868663,1712056857835,1707999,0
1712056868663,1712056857876,1710646,0
1712056868663,1712056857915,1713030,0
1712056868663,1712056857955,1715582,0
1712056868663,1712056857996,1718115,0
1712056868663,1712056858036,1721041,0
1712056868663,1712056858077,1723950,0
1712056868663,1712056858116,1721327,0
1712056868663,1712056858156,1712286,0
1712056868663,1712056858196,1705795,0
1712056868663,1712056858237,1703765,0
1712056868663,1712056858277,1703998,0
1712056868663,1712056858317,1704671,0
1712056868663,1712056858357,1705649,0
1712056868663,1712056858397,1706231,0
1712056868663,1712056858437,1705770,0
1712056868663,1712056858478,1705094,0
1712056868663,1712056858518,1704988,0
1712056868663,1712056858558,1705928,0
1712056868663,1712056858598,1707869,0
1712056868663,1712056858638,1710214,0
1712056868663,1712056858679,1712694,0
1712056868663,1712056858718,1715293,0
1712056868663,1712056858758,1717835,0
1712056868663,1712056858798,1720204,0
1712056868663,1712056858838,1722659,0
1712056868663,1712056858879,1725068,0
1712056868663,1712056858918,1727582,0
1712056868663,1712056858959,1730136,0
1712056868663,1712056858999,1733280,0
1712056868663,1712056859039,1734739,0
1712056868663,1712056859080,1726952,0
1712056868663,1712056859119,1717364,0
1712056868663,1712056859159,1711850,0
1712056868663,1712056859199,1710426,0
1712056868663,1712056859239,1710094,0
1712056868663,1712056859280,1709808,0
1712056868663,1712056859320,1709677,0
1712056868663,1712056859360,1709355,0
1712056868663,1712056859400,1708518,0
1712056868663,1712056859440,1707683,0
1712056868663,1712056859480,1707693,0
1712056868663,1712056859520,1708587,0
1712056868663,1712056859560,1710432,0
1712056868663,1712056859600,1712566,0
1712056868663,1712056859640,1714827,0
1712056868663,1712056859681,1717071,0
1712056868663,1712056859720,1719414,0
1712056868663,1712056859761,1721621,0
1712056868663,1712056859801,1723857,0
1712056868663,1712056859841,1726219,0
1712056868663,1712056859882,1728743,0
1712056868663,1712056859921,1731312,0
1712056868663,1712056859961,1734172,0
1712056868663,1712056860001,1736770,0
1712056868663,1712056860041,1731647,0
1712056868663,1712056860082,1721286,0
1712056868663,1712056860121,1713987,0
1712056868663,1712056860162,1710941,0
1712056868663,1712056860202,1710133,0
1712056868663,1712056860242,1709395,0
1712056868663,1712056860283,1708614,0
1712056868663,1712056860322,1708066,0
1712056868663,1712056860362,1707054,0
1712056868663,1712056860402,1705790,0
1712056868663,1712056860442,1705200,0
1712056868663,1712056860483,1705604,0
1712056868663,1712056860523,1706943,0
1712056868663,1712056860562,1708872,0
1712056868663,1712056860603,1711072,0
1712056868663,1712056860643,1713093,0
1712056868663,1712056860684,1715328,0
1712056868663,1712056860723,1717403,0
1712056868663,1712056860763,1719518,0
1712056868663,1712056860803,1721671,0
1712056868663,1712056860843,1724035,0
1712056868663,1712056860884,1726381,0
1712056868663,1712056860923,1728983,0
1712056868663,1712056860964,1731751,0
1712056868663,1712056861004,1732307,0
1712056868663,1712056861044,1723278,0
1712056868663,1712056861085,1713599,0
1712056868663,1712056861124,1708086,0
1712056868663,1712056861164,1706432,0
1712056868663,1712056861204,1705742,0
1712056868663,1712056861245,1704959,0
1712056868663,1712056861285,1704642,0
1712056868663,1712056861325,1704012,0
1712056868663,1712056861365,1702914,0
1712056868663,1712056861405,1701661,0
1712056868663,1712056861445,1701557,0
1712056868663,1712056861486,1702592,0
1712056868663,1712056861525,1704541,0
1712056868663,1712056861565,1706732,0
1712056868663,1712056861606,1709188,0
1712056868663,1712056861646,1711411,0
1712056868663,1712056861686,1713726,0
1712056868663,1712056861726,1715948,0
1712056868663,1712056861766,1718199,0
1712056868663,1712056861806,1720523,0
1712056868663,1712056861846,1723239,0
1712056868663,1712056861887,1725905,0
1712056868663,1712056861926,1728708,0
1712056868663,1712056861967,1731718,0
1712056868663,1712056862007,1731638,0
1712056868663,1712056862047,1722684,0
1712056868663,1712056862088,1713552,0
1712056868663,1712056862127,1709361,0
1712056868663,1712056862167,1708563,0
1712056868663,1712056862207,1708392,0
1712056868663,1712056862247,1708251,0
1712056868663,1712056862288,1708440,0
1712056868663,1712056862328,1708127,0
1712056868663,1712056862368,1707006,0
1712056868663,1712056862408,1706058,0
1712056868663,1712056862448,1706064,0
1712056868663,1712056862489,1707307,0
1712056868663,1712056862528,1709368,0
1712056868663,1712056862569,1711792,0
1712056868663,1712056862609,1713893,0
1712056868663,1712056862649,1716389,0
1712056868663,1712056862690,1718423,0
1712056868663,1712056862729,1720605,0
1712056868663,1712056862769,1722676,0
1712056868663,1712056862810,1724936,0
1712056868663,1712056862849,1727511,0
1712056868663,1712056862890,1730217,0
1712056868663,1712056862930,1729934,0
1712056868663,1712056862970,1721425,0
1712056868663,1712056863010,1713577,0
1712056868663,1712056863050,1710181,0
1712056868663,1712056863091,1709645,0
1712056868663,1712056863130,1710012,0
1712056868663,1712056863171,1710431,0
1712056868663,1712056863211,1711053,0
1712056868663,1712056863251,1710647,0
1712056868663,1712056863292,1709596,0
1712056868663,1712056863331,1708828,0
1712056868663,1712056863371,1709533,0
1712056868663,1712056863412,1710915,0
1712056868663,1712056863452,1713191,0
1712056868663,1712056863492,1715560,0
1712056868663,1712056863532,1717934,0
1712056868663,1712056863572,1720199,0
1712056868663,1712056863612,1722324,0
1712056868663,1712056863653,1724448,0
1712056868663,1712056863693,1726549,0
1712056868663,1712056863733,1728921,0
1712056868663,1712056863773,1731448,0
1712056868663,1712056863813,1732969,0
1712056868663,1712056863853,1726150,0
1712056868663,1712056863894,1716980,0
1712056868663,1712056863933,1711386,0
1712056868663,1712056863973,1709453,0
1712056868663,1712056864014,1708894,0
1712056868663,1712056864054,1708276,0
1712056868663,1712056864095,1708239,0
1712056868663,1712056864134,1707875,0
1712056868663,1712056864174,1707205,0
1712056868663,1712056864214,1706141,0
1712056868663,1712056864255,1706233,0
1712056868663,1712056864295,1707237,0
1712056868663,1712056864335,1709110,0
1712056868663,1712056864375,1711468,0
1712056868663,1712056864415,1713634,0
1712056868663,1712056864455,1716058,0
1712056868663,1712056864496,1718259,0
1712056868663,1712056864536,1720500,0
1712056868663,1712056864576,1722706,0
1712056868663,1712056864616,1725112,0
1712056868663,1712056864656,1727483,0
1712056868663,1712056864697,1730238,0
1712056868663,1712056864736,1733185,0
1712056868663,1712056864777,1727288,0
1712056868663,1712056864817,1717915,0
1712056868663,1712056864857,1712614,0
1712056868663,1712056864897,1710808,0
1712056868663,1712056864937,1710249,0
1712056868663,1712056864977,1709579,0
1712056868663,1712056865017,1709339,0
1712056868663,1712056865057,1709067,0
1712056868663,1712056865098,1708366,0
1712056868663,1712056865137,1707725,0
1712056868663,1712056865177,1707715,0
1712056868663,1712056865218,1708764,0
1712056868663,1712056865258,1710456,0
1712056868663,1712056865298,1712849,0
1712056868663,1712056865338,1714977,0
1712056868663,1712056865378,1717388,0
1712056868663,1712056865418,1719776,0
1712056868663,1712056865458,1721940,0
1712056868663,1712056865499,1724332,0
1712056868663,1712056865538,1726851,0
1712056868663,1712056865579,1729382,0
1712056868663,1712056865619,1732116,0
1712056868663,1712056865659,1734656,0
1712056868663,1712056865700,1737697,0
1712056868663,1712056865739,1736648,0
1712056868663,1712056865779,1728002,0
1712056868663,1712056865819,1720451,0
1712056868663,1712056865859,1717238,0
1712056868663,1712056865900,1716446,0
1712056868663,1712056865939,1716201,0
1712056868663,1712056865979,1715767,0
1712056868663,1712056866019,1715960,0
1712056868663,1712056866060,1715670,0
1712056868663,1712056866100,1715078,0
1712056868663,1712056866140,1714566,0
1712056868663,1712056866180,1715236,0
1712056868663,1712056866220,1716691,0
1712056868663,1712056866260,1718749,0
1712056868663,1712056866301,1721018,0
1712056868663,1712056866340,1723418,0
1712056868663,1712056866380,1725835,0
1712056868663,1712056866421,1728208,0
1712056868663,1712056866461,1730544,0
1712056868663,1712056866501,1733071,0
1712056868663,1712056866541,1735430,0
1712056868663,1712056866581,1737986,0
1712056868663,1712056866621,1740706,0
1712056868663,1712056866661,1743752,0
1712056868663,1712056866702,1742867,0
1712056868663,1712056866741,1735008,0
1712056868663,1712056866782,1728138,0
1712056868663,1712056866822,1725452,0
1712056868663,1712056866862,1725211,0
1712056868663,1712056866903,1725499,0
1712056868663,1712056866942,1725840,0
1712056868663,1712056866982,1726441,0
1712056868663,1712056867022,1726440,0
1712056868663,1712056867062,1725917,0
1712056868663,1712056867103,1725706,0
1712056868663,1712056867143,1726601,0
1712056868663,1712056867183,1728160,0
1712056868663,1712056867223,1730371,0
1712056868663,1712056867263,1732768,0
1712056868663,1712056867304,1735248,0
1712056868663,1712056867343,1737611,0
1712056868663,1712056867383,1739903,0
1712056868663,1712056867423,1742082,0
1712056868663,1712056867464,1744414,0
1712056868663,1712056867504,1746736,0
1712056868663,1712056867544,1749643,0
1712056868663,1712056867584,1749329,0
1712056868663,1712056867624,1742276,0
1712056868663,1712056867664,1736082,0
1712056868663,1712056867705,1733637,0
1712056868663,1712056867744,1733599,0
1712056868663,1712056867784,1734179,0
1712056868663,1712056867825,1735022,0
1712056868663,1712056867865,1735545,0
1712056868663,1712056867905,1735374,0
1712056868663,1712056867945,1734310,0
1712056868663,1712056867985,1734048,0
1712056868663,1712056868025,1734718,0
1712056868663,1712056868065,1736293,0
1712056868663,1712056868106,1738211,0
1712056868663,1712056868145,1740551,0
1712056868663,1712056868186,1742598,0
1712056868663,1712056868226,1744597,0
1712056868663,1712056868266,1746459,0
1712056868663,1712056868307,1748416,0
1712056868663,1712056868346,1750486,0
1712056868663,1712056868386,1752527,0
1712056868663,1712056868426,1750304,0
1712056868663,1712056868467,1742182,0
1712056868663,1712056868507,1735839,0
1712056868663,1712056868547,1733117,0
1712056868663,1712056868587,1732221,0
1712056880738,1712056868629,1731640,0
1712056880738,1712056868669,1731287,0
1712056880738,1712056868710,1730876,0
1712056880738,1712056868749,1730078,0
1712056880738,1712056868790,1728812,0
1712056880738,1712056868830,1728211,0
1712056880738,1712056868870,1728691,0
1712056880738,1712056868911,1729890,0
1712056880738,1712056868950,1731599,0
1712056880738,1712056868990,1733337,0
1712056880738,1712056869030,1735057,0
1712056880738,1712056869071,1736894,0
1712056880738,1712056869111,1738538,0
1712056880738,1712056869151,1740195,0
1712056880738,1712056869191,1742089,0
1712056880738,1712056869231,1743999,0
1712056880738,1712056869271,1745118,0
1712056880738,1712056869312,1738514,0
1712056880738,1712056869352,1729929,0
1712056880738,1712056869392,1724673,0
1712056880738,1712056869432,1722047,0
1712056880738,1712056869472,1720333,0
1712056880738,1712056869513,1718243,0
1712056880738,1712056869552,1717269,0
1712056880738,1712056869592,1716141,0
1712056880738,1712056869633,1714814,0
1712056880738,1712056869673,1713429,0
1712056880738,1712056869713,1712958,0
1712056880738,1712056869753,1713499,0
1712056880738,1712056869793,1714653,0
1712056880738,1712056869833,1716173,0
1712056880738,1712056869873,1717830,0
1712056880738,1712056869914,1719330,0
1712056880738,1712056869954,1720883,0
1712056880738,1712056869994,1722463,0
1712056880738,1712056870034,1724259,0
1712056880738,1712056870074,1725865,0
1712056880738,1712056870115,1727913,0
1712056880738,1712056870155,1729824,0
1712056880738,1712056870195,1725620,0
1712056880738,1712056870235,1716631,0
1712056880738,1712056870275,1709871,0
1712056880738,1712056870316,1706383,0
1712056880738,1712056870355,1704078,0
1712056880738,1712056870396,1702040,0
1712056880738,1712056870436,1700642,0
1712056880738,1712056870476,1699776,0
1712056880738,1712056870517,1698644,0
1712056880738,1712056870556,1697247,0
1712056880738,1712056870596,1696730,0
1712056880738,1712056870636,1697159,0
1712056880738,1712056870677,1698415,0
1712056880738,1712056870717,1699908,0
1712056880738,1712056870757,1701756,0
1712056880738,1712056870797,1703476,0
1712056880738,1712056870837,1705464,0
1712056880738,1712056870877,1707261,0
1712056880738,1712056870918,1709201,0
1712056880738,1712056870957,1711274,0
1712056880738,1712056870998,1713504,0
1712056880738,1712056871037,1715987,0
1712056880738,1712056871078,1718727,0
1712056880738,1712056871118,1718531,0
1712056880738,1712056871158,1710530,0
1712056880738,1712056871198,1702880,0
1712056880738,1712056871238,1699094,0
1712056880738,1712056871278,1697155,0
1712056880738,1712056871319,1695685,0
1712056880738,1712056871358,1694614,0
1712056880738,1712056871398,1694323,0
1712056880738,1712056871438,1693765,0
1712056880738,1712056871479,1692879,0
1712056880738,1712056871519,1692451,0
1712056880738,1712056871559,1693044,0
1712056880738,1712056871599,1694524,0
1712056880738,1712056871639,1696367,0
1712056880738,1712056871679,1698660,0
1712056880738,1712056871720,1700932,0
1712056880738,1712056871759,1703190,0
1712056880738,1712056871799,1705391,0
1712056880738,1712056871840,1707784,0
1712056880738,1712056871880,1710234,0
1712056880738,1712056871920,1712586,0
1712056880738,1712056871960,1715215,0
1712056880738,1712056872000,1718022,0
1712056880738,1712056872040,1719771,0
1712056880738,1712056872080,1713976,0
1712056880738,1712056872121,1706466,0
1712056880738,1712056872160,1702433,0
1712056880738,1712056872201,1701066,0
1712056880738,1712056872241,1700594,0
1712056880738,1712056872281,1700066,0
1712056880738,1712056872322,1700727,0
1712056880738,1712056872361,1700590,0
1712056880738,1712056872401,1700125,0
1712056880738,1712056872441,1699746,0
1712056880738,1712056872481,1700450,0
1712056880738,1712056872522,1701982,0
1712056880738,1712056872561,1703991,0
1712056880738,1712056872601,1706213,0
1712056880738,1712056872642,1708503,0
1712056880738,1712056872682,1710684,0
1712056880738,1712056872722,1712668,0
1712056880738,1712056872762,1714853,0
1712056880738,1712056872802,1717117,0
1712056880738,1712056872842,1719652,0
1712056880738,1712056872882,1721842,0
1712056880738,1712056872923,1717402,0
1712056880738,1712056872962,1710325,0
1712056880738,1712056873002,1706121,0
1712056880738,1712056873043,1704766,0
1712056880738,1712056873083,1704510,0
1712056880738,1712056873123,1704379,0
1712056880738,1712056873163,1705000,0
1712056880738,1712056873203,1705465,0
1712056880738,1712056873243,1705479,0
1712056880738,1712056873283,1705544,0
1712056880738,1712056873324,1706422,0
1712056880738,1712056873363,1708162,0
1712056880738,1712056873404,1710542,0
1712056880738,1712056873444,1712951,0
1712056880738,1712056873484,1715641,0
1712056880738,1712056873525,1718211,0
1712056880738,1712056873564,1720595,0
1712056880738,1712056873604,1722963,0
1712056880738,1712056873644,1725346,0
1712056880738,1712056873684,1727778,0
1712056880738,1712056873725,1730458,0
1712056880738,1712056873765,1733289,0
1712056880738,1712056873805,1732257,0
1712056880738,1712056873845,1725008,0
1712056880738,1712056873885,1718833,0
1712056880738,1712056873926,1716263,0
1712056880738,1712056873965,1715248,0
1712056880738,1712056874005,1714593,0
1712056880738,1712056874045,1714103,0
1712056880738,1712056874086,1714325,0
1712056880738,1712056874126,1714315,0
1712056880738,1712056874166,1713953,0
1712056880738,1712056874206,1713941,0
1712056880738,1712056874246,1714905,0
1712056880738,1712056874286,1716657,0
1712056880738,1712056874327,1718869,0
1712056880738,1712056874367,1721426,0
1712056880738,1712056874407,1723823,0
1712056880738,1712056874447,1726337,0
1712056880738,1712056874487,1728750,0
1712056880738,1712056874528,1731107,0
1712056880738,1712056874567,1733642,0
1712056880738,1712056874608,1736177,0
1712056880738,1712056874647,1738897,0
1712056880738,1712056874688,1741828,0
1712056880738,1712056874729,1742611,0
1712056880738,1712056874768,1736321,0
1712056880738,1712056874808,1729696,0
1712056880738,1712056874848,1726528,0
1712056880738,1712056874888,1725807,0
1712056880738,1712056874929,1725435,0
1712056880738,1712056874969,1725119,0
1712056880738,1712056875009,1725415,0
1712056880738,1712056875049,1725650,0
1712056880738,1712056875089,1725725,0
1712056880738,1712056875130,1725714,0
1712056880738,1712056875169,1726629,0
1712056880738,1712056875209,1728264,0
1712056880738,1712056875249,1730366,0
1712056880738,1712056875290,1732780,0
1712056880738,1712056875331,1735257,0
1712056880738,1712056875370,1737566,0
1712056880738,1712056875410,1739917,0
1712056880738,1712056875450,1742262,0
1712056880738,1712056875490,1744735,0
1712056880738,1712056875531,1747196,0
1712056880738,1712056875571,1749645,0
1712056880738,1712056875611,1752650,0
1712056880738,1712056875651,1755542,0
1712056880738,1712056875691,1754163,0
1712056880738,1712056875732,1747185,0
1712056880738,1712056875771,1741895,0
1712056880738,1712056875811,1740439,0
1712056880738,1712056875851,1740481,0
1712056880738,1712056875891,1740827,0
1712056880738,1712056875932,1741289,0
1712056880738,1712056875972,1741782,0
1712056880738,1712056876012,1741983,0
1712056880738,1712056876052,1741663,0
1712056880738,1712056876092,1741723,0
1712056880738,1712056876133,1742789,0
1712056880738,1712056876173,1744548,0
1712056880738,1712056876212,1746815,0
1712056880738,1712056876253,1749127,0
1712056880738,1712056876293,1751239,0
1712056880738,1712056876334,1753242,0
1712056880738,1712056876373,1755240,0
1712056880738,1712056876413,1757276,0
1712056880738,1712056876453,1759468,0
1712056880738,1712056876494,1761912,0
1712056880738,1712056876534,1763810,0
1712056880738,1712056876574,1759359,0
1712056880738,1712056876614,1752535,0
1712056880738,1712056876654,1748689,0
1712056880738,1712056876694,1747854,0
1712056880738,1712056876735,1748040,0
1712056880738,1712056876775,1748084,0
1712056880738,1712056876815,1748642,0
1712056880738,1712056876855,1748810,0
1712056880738,1712056876895,1748432,0
1712056880738,1712056876936,1747879,0
1712056880738,1712056876975,1748091,0
1712056880738,1712056877016,1749279,0
1712056880738,1712056877056,1751040,0
1712056880738,1712056877096,1755003,0
1712056880738,1712056877136,1757017,0
1712056880738,1712056877176,1758843,0
1712056880738,1712056877216,1760910,0
1712056880738,1712056877256,1762677,0
1712056880738,1712056877296,1764589,0
1712056880738,1712056877337,1766843,0
1712056880738,1712056877376,1768248,0
1712056880738,1712056877416,1762596,0
1712056880738,1712056877456,1754710,0
1712056880738,1712056877497,1749955,0
1712056880738,1712056877537,1748295,0
1712056880738,1712056877577,1747862,0
1712056880738,1712056877617,1747033,0
1712056880738,1712056877657,1746870,0
1712056880738,1712056877697,1746479,0
1712056880738,1712056877738,1745647,0
1712056880738,1712056877777,1744829,0
1712056880738,1712056877817,1744729,0
1712056880738,1712056877858,1745635,0
1712056880738,1712056877898,1747111,0
1712056880738,1712056877938,1748994,0
1712056880738,1712056877978,1750809,0
1712056880738,1712056878018,1752754,0
1712056880738,1712056878058,1754579,0
1712056880738,1712056878098,1756496,0
1712056880738,1712056878139,1758513,0
1712056880738,1712056878178,1760513,0
1712056880738,1712056878219,1762725,0
1712056880738,1712056878258,1764971,0
1712056880738,1712056878299,1766749,0
1712056880738,1712056878339,1761239,0
1712056880738,1712056878379,1752163,0
1712056880738,1712056878419,1746204,0
1712056880738,1712056878459,1743975,0
1712056880738,1712056878499,1743001,0
1712056880738,1712056878540,1742039,0
1712056880738,1712056878579,1741159,0
1712056880738,1712056878619,1740605,0
1712056880738,1712056878659,1739555,0
1712056880738,1712056878700,1738567,0
1712056880738,1712056878740,1738041,0
1712056880738,1712056878780,1738656,0
1712056880738,1712056878820,1739897,0
1712056880738,1712056878860,1741633,0
1712056880738,1712056878900,1743698,0
1712056880738,1712056878941,1745510,0
1712056880738,1712056878980,1747372,0
1712056880738,1712056879021,1749189,0
1712056880738,1712056879061,1751261,0
1712056880738,1712056879101,1753021,0
1712056880738,1712056879141,1755434,0
1712056880738,1712056879181,1757874,0
1712056880738,1712056879221,1755885,0
1712056880738,1712056879261,1747126,0
1712056880738,1712056879301,1739429,0
1712056880738,1712056879342,1735980,0
1712056880738,1712056879381,1735016,0
1712056880738,1712056879422,1734379,0
1712056880738,1712056879462,1733803,0
1712056880738,1712056879502,1733553,0
1712056880738,1712056879543,1733051,0
1712056880738,1712056879582,1732041,0
1712056880738,1712056879622,1731476,0
1712056880738,1712056879663,1731823,0
1712056880738,1712056879702,1733237,0
1712056880738,1712056879743,1735351,0
1712056880738,1712056879783,1737465,0
1712056880738,1712056879823,1739633,0
1712056880738,1712056879863,1741860,0
1712056880738,1712056879903,1743802,0
1712056880738,1712056879944,1745825,0
1712056880738,1712056879983,1748060,0
1712056880738,1712056880023,1750541,0
1712056880738,1712056880063,1752042,0
1712056880738,1712056880104,1746221,0
1712056880738,1712056880144,1737941,0
1712056880738,1712056880184,1733087,0
1712056880738,1712056880224,1731897,0
1712056880738,1712056880264,1731903,0
1712056880738,1712056880304,1732024,0
1712056880738,1712056880345,1732727,0
1712056880738,1712056880384,1732800,0
1712056880738,1712056880424,1732232,0
1712056880738,1712056880465,1731384,0
1712056880738,1712056880505,1731655,0
1712056880738,1712056880545,1733032,0
1712056880738,1712056880585,1734835,0
1712056880738,1712056880625,1737333,0
1712056892754,1712056880664,1739383,0
1712056892754,1712056880704,1741555,0
1712056892754,1712056880745,1743481,0
1712056892754,1712056880785,1745395,0
1712056892754,1712056880825,1747541,0
1712056892754,1712056880865,1745020,0
1712056892754,1712056880905,1736600,0
1712056892754,1712056880946,1730103,0
1712056892754,1712056880985,1727394,0
1712056892754,1712056881025,1726942,0
1712056892754,1712056881066,1726677,0
1712056892754,1712056881106,1726702,0
1712056892754,1712056881147,1726962,0
1712056892754,1712056881186,1726242,0
1712056892754,1712056881226,1725341,0
1712056892754,1712056881266,1725020,0
1712056892754,1712056881306,1725838,0
1712056892754,1712056881347,1727523,0
1712056892754,1712056881387,1729396,0
1712056892754,1712056881427,1731462,0
1712056892754,1712056881467,1733510,0
1712056892754,1712056881507,1735333,0
1712056892754,1712056881548,1737153,0
1712056892754,1712056881587,1739227,0
1712056892754,1712056881627,1740861,0
1712056892754,1712056881668,1735518,0
1712056892754,1712056881708,1726938,0
1712056892754,1712056881748,1721077,0
1712056892754,1712056881788,1718578,0
1712056892754,1712056881828,1717333,0
1712056892754,1712056881868,1716091,0
1712056892754,1712056881908,1715691,0
1712056892754,1712056881949,1715367,0
1712056892754,1712056881989,1714508,0
1712056892754,1712056882029,1713713,0
1712056892754,1712056882069,1713504,0
1712056892754,1712056882109,1714384,0
1712056892754,1712056882150,1716062,0
1712056892754,1712056882190,1718161,0
1712056892754,1712056882230,1720301,0
1712056892754,1712056882270,1722328,0
1712056892754,1712056882310,1724382,0
1712056892754,1712056882351,1726531,0
1712056892754,1712056882390,1728616,0
1712056892754,1712056882430,1730814,0
1712056892754,1712056882470,1733261,0
1712056892754,1712056882511,1732969,0
1712056892754,1712056882552,1724790,0
1712056892754,1712056882591,1716942,0
1712056892754,1712056882631,1713152,0
1712056892754,1712056882671,1711512,0
1712056892754,1712056882711,1710088,0
1712056892754,1712056882752,1708791,0
1712056892754,1712056882792,1708564,0
1712056892754,1712056882832,1708094,0
1712056892754,1712056882872,1707507,0
1712056892754,1712056882912,1707084,0
1712056892754,1712056882953,1707562,0
1712056892754,1712056882992,1708974,0
1712056892754,1712056883033,1710931,0
1712056892754,1712056883073,1713068,0
1712056892754,1712056883113,1715239,0
1712056892754,1712056883154,1717443,0
1712056892754,1712056883193,1719647,0
1712056892754,1712056883233,1721757,0
1712056892754,1712056883273,1724252,0
1712056892754,1712056883313,1726424,0
1712056892754,1712056883354,1729088,0
1712056892754,1712056883394,1731759,0
1712056892754,1712056883434,1729436,0
1712056892754,1712056883474,1721455,0
1712056892754,1712056883514,1715170,0
1712056892754,1712056883555,1712642,0
1712056892754,1712056883594,1711511,0
1712056892754,1712056883634,1710521,0
1712056892754,1712056883674,1710079,0
1712056892754,1712056883714,1710109,0
1712056892754,1712056883755,1709717,0
1712056892754,1712056883794,1709201,0
1712056892754,1712056883835,1709292,0
1712056892754,1712056883875,1710185,0
1712056892754,1712056883915,1711775,0
1712056892754,1712056883956,1713882,0
1712056892754,1712056883995,1716163,0
1712056892754,1712056884035,1718540,0
1712056892754,1712056884075,1720786,0
1712056892754,1712056884115,1723064,0
1712056892754,1712056884156,1725415,0
1712056892754,1712056884195,1727758,0
1712056892754,1712056884236,1730368,0
1712056892754,1712056884276,1733190,0
1712056892754,1712056884316,1731601,0
1712056892754,1712056884357,1724430,0
1712056892754,1712056884396,1719189,0
1712056892754,1712056884436,1717190,0
1712056892754,1712056884476,1716742,0
1712056892754,1712056884516,1716286,0
1712056892754,1712056884557,1716481,0
1712056892754,1712056884597,1716912,0
1712056892754,1712056884637,1717072,0
1712056892754,1712056884677,1717047,0
1712056892754,1712056884717,1717335,0
1712056892754,1712056884758,1718541,0
1712056892754,1712056884797,1720387,0
1712056892754,1712056884837,1722604,0
1712056892754,1712056884877,1725093,0
1712056892754,1712056884917,1727462,0
1712056892754,1712056884958,1729967,0
1712056892754,1712056884998,1732211,0
1712056892754,1712056885038,1734572,0
1712056892754,1712056885078,1737104,0
1712056892754,1712056885118,1739583,0
1712056892754,1712056885159,1742511,0
1712056892754,1712056885198,1745358,0
1712056892754,1712056885238,1745257,0
1712056892754,1712056885278,1739199,0
1712056892754,1712056885319,1733799,0
1712056892754,1712056885359,1732320,0
1712056892754,1712056885399,1732536,0
1712056892754,1712056885439,1732940,0
1712056892754,1712056885479,1733750,0
1712056892754,1712056885519,1734427,0
1712056892754,1712056885560,1734668,0
1712056892754,1712056885599,1734342,0
1712056892754,1712056885639,1734597,0
1712056892754,1712056885680,1735914,0
1712056892754,1712056885720,1737704,0
1712056892754,1712056885760,1739821,0
1712056892754,1712056885800,1741986,0
1712056892754,1712056885840,1744174,0
1712056892754,1712056885880,1746139,0
1712056892754,1712056885920,1748230,0
1712056892754,1712056885961,1750108,0
1712056892754,1712056886000,1752596,0
1712056892754,1712056886041,1754725,0
1712056892754,1712056886081,1751650,0
1712056892754,1712056886121,1745358,0
1712056892754,1712056886162,1741979,0
1712056892754,1712056886201,1740965,0
1712056892754,1712056886241,1741266,0
1712056892754,1712056886281,1741130,0
1712056892754,1712056886321,1741828,0
1712056892754,1712056886362,1742284,0
1712056892754,1712056886402,1742056,0
1712056892754,1712056886442,1741820,0
1712056892754,1712056886482,1742255,0
1712056892754,1712056886522,1743518,0
1712056892754,1712056886563,1745301,0
1712056892754,1712056886602,1747137,0
1712056892754,1712056886642,1749157,0
1712056892754,1712056886682,1751047,0
1712056892754,1712056886723,1752947,0
1712056892754,1712056886763,1754795,0
1712056892754,1712056886803,1756838,0
1712056892754,1712056886843,1758928,0
1712056892754,1712056886883,1761111,0
1712056892754,1712056886923,1757780,0
1712056892754,1712056886964,1751057,0
1712056892754,1712056887004,1746794,0
1712056892754,1712056887044,1745407,0
1712056892754,1712056887084,1744933,0
1712056892754,1712056887124,1744365,0
1712056892754,1712056887165,1744418,0
1712056892754,1712056887204,1744639,0
1712056892754,1712056887244,1744357,0
1712056892754,1712056887284,1743945,0
1712056892754,1712056887325,1744255,0
1712056892754,1712056887365,1745177,0
1712056892754,1712056887405,1746811,0
1712056892754,1712056887445,1748716,0
1712056892754,1712056887485,1750620,0
1712056892754,1712056887525,1752550,0
1712056892754,1712056887566,1754407,0
1712056892754,1712056887606,1756391,0
1712056892754,1712056887646,1758166,0
1712056892754,1712056887686,1760362,0
1712056892754,1712056887726,1762540,0
1712056892754,1712056887767,1764871,0
1712056892754,1712056887806,1765337,0
1712056892754,1712056887847,1758936,0
1712056892754,1712056887887,1752213,0
1712056892754,1712056887927,1748851,0
1712056892754,1712056887968,1747785,0
1712056892754,1712056888007,1746946,0
1712056892754,1712056888047,1745918,0
1712056892754,1712056888087,1745619,0
1712056892754,1712056888127,1745421,0
1712056892754,1712056888168,1744898,0
1712056892754,1712056888208,1744186,0
1712056892754,1712056888248,1744457,0
1712056892754,1712056888288,1745447,0
1712056892754,1712056888328,1746995,0
1712056892754,1712056888369,1748516,0
1712056892754,1712056888408,1750331,0
1712056892754,1712056888449,1752060,0
1712056892754,1712056888489,1753984,0
1712056892754,1712056888529,1755770,0
1712056892754,1712056888570,1757735,0
1712056892754,1712056888609,1759763,0
1712056892754,1712056888649,1761879,0
1712056892754,1712056888690,1764269,0
1712056892754,1712056888730,1766687,0
1712056892754,1712056888770,1766136,0
1712056892754,1712056888813,1759000,0
1712056892754,1712056888850,1751794,0
1712056892754,1712056888890,1748488,0
1712056892754,1712056888930,1747354,0
1712056892754,1712056888971,1746634,0
1712056892754,1712056889011,1745611,0
1712056892754,1712056889051,1745192,0
1712056892754,1712056889091,1744734,0
1712056892754,1712056889131,1743782,0
1712056892754,1712056889172,1743116,0
1712056892754,1712056889211,1743267,0
1712056892754,1712056889252,1744147,0
1712056892754,1712056889292,1747298,0
1712056892754,1712056889332,1748989,0
1712056892754,1712056889373,1750820,0
1712056892754,1712056889412,1752492,0
1712056892754,1712056889452,1754305,0
1712056892754,1712056889492,1756112,0
1712056892754,1712056889532,1758013,0
1712056892754,1712056889573,1760177,0
1712056892754,1712056889612,1762650,0
1712056892754,1712056889653,1762596,0
1712056892754,1712056889693,1755263,0
1712056892754,1712056889733,1747723,0
1712056892754,1712056889774,1743884,0
1712056892754,1712056889813,1742820,0
1712056892754,1712056889853,1742189,0
1712056892754,1712056889893,1741511,0
1712056892754,1712056889933,1741270,0
1712056892754,1712056889974,1740710,0
1712056892754,1712056890013,1739812,0
1712056892754,1712056890053,1739106,0
1712056892754,1712056890094,1739407,0
1712056892754,1712056890134,1740620,0
1712056892754,1712056890174,1742224,0
1712056892754,1712056890214,1744166,0
1712056892754,1712056890254,1746165,0
1712056892754,1712056890294,1748025,0
1712056892754,1712056890334,1750009,0
1712056892754,1712056890375,1751920,0
1712056892754,1712056890414,1753933,0
1712056892754,1712056890455,1756080,0
1712056892754,1712056890495,1758423,0
1712056892754,1712056890535,1760813,0
1712056892754,1712056890575,1758195,0
1712056892754,1712056890615,1750325,0
1712056892754,1712056890655,1744266,0
1712056892754,1712056890695,1742294,0
1712056892754,1712056890735,1742254,0
1712056892754,1712056890776,1742369,0
1712056892754,1712056890815,1742699,0
1712056892754,1712056890856,1742913,0
1712056892754,1712056890896,1742411,0
1712056892754,1712056890936,1741691,0
1712056892754,1712056890977,1741465,0
1712056892754,1712056891019,1742309,0
1712056892754,1712056891056,1743909,0
1712056892754,1712056891096,1745815,0
1712056892754,1712056891136,1747921,0
1712056892754,1712056891177,1750089,0
1712056892754,1712056891217,1752044,0
1712056892754,1712056891257,1753807,0
1712056892754,1712056891297,1755864,0
1712056892754,1712056891337,1758206,0
1712056892754,1712056891378,1759099,0
1712056892754,1712056891417,1753025,0
1712056892754,1712056891457,1745852,0
1712056892754,1712056891497,1742357,0
1712056892754,1712056891537,1741911,0
1712056892754,1712056891578,1742139,0
1712056892754,1712056891618,1742688,0
1712056892754,1712056891658,1743453,0
1712056892754,1712056891698,1743484,0
1712056892754,1712056891738,1742616,0
1712056892754,1712056891779,1742092,0
1712056892754,1712056891818,1742803,0
1712056892754,1712056891858,1744127,0
1712056892754,1712056891898,1746070,0
1712056892754,1712056891939,1748196,0
1712056892754,1712056891979,1750247,0
1712056892754,1712056892019,1752199,0
1712056892754,1712056892059,1754012,0
1712056892754,1712056892099,1755942,0
1712056892754,1712056892139,1757996,0
1712056892754,1712056892180,1758671,0
1712056892754,1712056892220,1752015,0
1712056892754,1712056892260,1744443,0
1712056892754,1712056892300,1740392,0
1712056892754,1712056892340,1739377,0
1712056892754,1712056892381,1739191,0
1712056892754,1712056892420,1738870,0
1712056892754,1712056892460,1739013,0
1712056892754,1712056892500,1738774,0
1712056892754,1712056892541,1737792,0
1712056892754,1712056892581,1737175,0
1712056892754,1712056892621,1737534,0
1712056892754,1712056892661,1738593,0
1712056904782,1712056892699,1740299,0
1712056904782,1712056892739,1742257,0
1712056904782,1712056892780,1744125,0
1712056904782,1712056892819,1746104,0
1712056904782,1712056892859,1747867,0
1712056904782,1712056892900,1749646,0
1712056904782,1712056892940,1751845,0
1712056904782,1712056892981,1753894,0
1712056904782,1712056893020,1752786,0
1712056904782,1712056893060,1744801,0
1712056904782,1712056893100,1737447,0
1712056904782,1712056893140,1734374,0
1712056904782,1712056893181,1733255,0
1712056904782,1712056893221,1732310,0
1712056904782,1712056893261,1731576,0
1712056904782,1712056893301,1731193,0
1712056904782,1712056893341,1730749,0
1712056904782,1712056893382,1729977,0
1712056904782,1712056893421,1729492,0
1712056904782,1712056893461,1729876,0
1712056904782,1712056893502,1731084,0
1712056904782,1712056893542,1732799,0
1712056904782,1712056893582,1734706,0
1712056904782,1712056893622,1736548,0
1712056904782,1712056893662,1738660,0
1712056904782,1712056893702,1740438,0
1712056904782,1712056893742,1742415,0
1712056904782,1712056893783,1744247,0
1712056904782,1712056893823,1746478,0
1712056904782,1712056893863,1748727,0
1712056904782,1712056893903,1746350,0
1712056904782,1712056893943,1738081,0
1712056904782,1712056893984,1731597,0
1712056904782,1712056894023,1728700,0
1712056904782,1712056894063,1727455,0
1712056904782,1712056894104,1726330,0
1712056904782,1712056894144,1725578,0
1712056904782,1712056894184,1725357,0
1712056904782,1712056894224,1724843,0
1712056904782,1712056894264,1723979,0
1712056904782,1712056894304,1723606,0
1712056904782,1712056894344,1723986,0
1712056904782,1712056894385,1725375,0
1712056904782,1712056894424,1726957,0
1712056904782,1712056894465,1728992,0
1712056904782,1712056894505,1730820,0
1712056904782,1712056894545,1732714,0
1712056904782,1712056894586,1734649,0
1712056904782,1712056894625,1736511,0
1712056904782,1712056894665,1738502,0
1712056904782,1712056894706,1740731,0
1712056904782,1712056894746,1738169,0
1712056904782,1712056894786,1730385,0
1712056904782,1712056894826,1724580,0
1712056904782,1712056894866,1722038,0
1712056904782,1712056894906,1720931,0
1712056904782,1712056894947,1720144,0
1712056904782,1712056894987,1719869,0
1712056904782,1712056895027,1719951,0
1712056904782,1712056895067,1719657,0
1712056904782,1712056895107,1719089,0
1712056904782,1712056895147,1719084,0
1712056904782,1712056895188,1719981,0
1712056904782,1712056895228,1721731,0
1712056904782,1712056895268,1723650,0
1712056904782,1712056895308,1725818,0
1712056904782,1712056895348,1727984,0
1712056904782,1712056895389,1729949,0
1712056904782,1712056895428,1731944,0
1712056904782,1712056895468,1734203,0
1712056904782,1712056895508,1736415,0
1712056904782,1712056895549,1734149,0
1712056904782,1712056895589,1726989,0
1712056904782,1712056895629,1721549,0
1712056904782,1712056895669,1719429,0
1712056904782,1712056895709,1718960,0
1712056904782,1712056895749,1718643,0
1712056904782,1712056895790,1718861,0
1712056904782,1712056895829,1719284,0
1712056904782,1712056895869,1719287,0
1712056904782,1712056895909,1718895,0
1712056904782,1712056895949,1719127,0
1712056904782,1712056895990,1720356,0
1712056904782,1712056896030,1722208,0
1712056904782,1712056896070,1724451,0
1712056904782,1712056896110,1726692,0
1712056904782,1712056896150,1729013,0
1712056904782,1712056896191,1731031,0
1712056904782,1712056896230,1733283,0
1712056904782,1712056896270,1735676,0
1712056904782,1712056896310,1737480,0
1712056904782,1712056896350,1733370,0
1712056904782,1712056896391,1726519,0
1712056904782,1712056896431,1722588,0
1712056904782,1712056896471,1721568,0
1712056904782,1712056896511,1721730,0
1712056904782,1712056896551,1721958,0
1712056904782,1712056896592,1722875,0
1712056904782,1712056896631,1723523,0
1712056904782,1712056896671,1723486,0
1712056904782,1712056896711,1723467,0
1712056904782,1712056896752,1724140,0
1712056904782,1712056896792,1725873,0
1712056904782,1712056896832,1728050,0
1712056904782,1712056896872,1730425,0
1712056904782,1712056896912,1732805,0
1712056904782,1712056896952,1735307,0
1712056904782,1712056896993,1737720,0
1712056904782,1712056897032,1740119,0
1712056904782,1712056897072,1742551,0
1712056904782,1712056897113,1745207,0
1712056904782,1712056897153,1745759,0
1712056904782,1712056897193,1740086,0
1712056904782,1712056897233,1734283,0
1712056904782,1712056897273,1732207,0
1712056904782,1712056897313,1732397,0
1712056904782,1712056897353,1733134,0
1712056904782,1712056897394,1734169,0
1712056904782,1712056897433,1735085,0
1712056904782,1712056897474,1735352,0
1712056904782,1712056897514,1735079,0
1712056904782,1712056897554,1735297,0
1712056904782,1712056897595,1736431,0
1712056904782,1712056897634,1738239,0
1712056904782,1712056897674,1740422,0
1712056904782,1712056897714,1742686,0
1712056904782,1712056897754,1744904,0
1712056904782,1712056897795,1746948,0
1712056904782,1712056897835,1748915,0
1712056904782,1712056897875,1751098,0
1712056904782,1712056897915,1752194,0
1712056904782,1712056897955,1747177,0
1712056904782,1712056897996,1741194,0
1712056904782,1712056898035,1738536,0
1712056904782,1712056898075,1738534,0
1712056904782,1712056898115,1739288,0
1712056904782,1712056898156,1740252,0
1712056904782,1712056898196,1741192,0
1712056904782,1712056898236,1741367,0
1712056904782,1712056898276,1740964,0
1712056904782,1712056898316,1740913,0
1712056904782,1712056898356,1741774,0
1712056904782,1712056898397,1743377,0
1712056904782,1712056898437,1745340,0
1712056904782,1712056898477,1747595,0
1712056904782,1712056898517,1749737,0
1712056904782,1712056898557,1751799,0
1712056904782,1712056898598,1753733,0
1712056904782,1712056898637,1755763,0
1712056904782,1712056898677,1757887,0
1712056904782,1712056898717,1757258,0
1712056904782,1712056898757,1750231,0
1712056904782,1712056898798,1744341,0
1712056904782,1712056898838,1741976,0
1712056904782,1712056898878,1741597,0
1712056904782,1712056898918,1741547,0
1712056904782,1712056898958,1741606,0
