Timestamp,Cleaned_PPG
1712814159828,0.0
1712814159868,0.0
1712814159908,0.0
1712814159948,0.0
1712814159988,0.0
1712814160029,0.0
1712814160068,0.0
1712814160108,0.0
1712814160149,0.0
1712814160189,0.0
1712814160230,0.0
1712814160269,0.0
1712814160309,0.0
1712814160349,0.0
1712814160390,0.0
1712814160431,0.0
1712814160470,0.0
1712814160510,0.0
1712814160550,0.0
1712814160590,0.0
1712814160631,0.0
1712814160670,0.0
1712814160710,0.0
1712814160751,0.0
1712814160791,0.0
1712814160832,0.0
1712814160871,0.0
1712814160911,0.0
1712814160951,0.0
1712814160994,0.0
1712814161033,0.0
1712814161072,0.0
1712814161112,2160578.0
1712814161152,2024859.8865912708
1712814161192,1898047.757688117
1712814161233,1779228.589771898
1712814161272,1668863.9876542639
1712814161313,1566327.7328681527
1712814161353,1468580.1925884178
1712814161393,1378994.120125176
1712814161434,1292625.3824624657
1712814161473,1209805.8203098942
1712814161513,1131887.137948042
1712814161553,1063134.9282206227
1712814161594,998317.7424208983
1712814161635,935751.5983144909
1712814161674,878545.043861059
1712814161714,825461.0304535481
1712814161754,775765.2498055226
1712814161794,728466.4134923287
1712814161835,682550.4267701181
1712814161875,639093.5961639853
1712814161915,597562.8454563527
1712814161955,559528.8651442281
1712814161995,523740.11271631205
1712814162036,491292.41333597153
1712814162075,462316.41482371977
1712814162115,437196.78093229653
1712814162156,413543.3899619924
1712814162196,391635.6522868965
1712814162237,367328.6034617205
1712814162276,348718.2745033363
1712814162316,329258.09833198506
1712814162356,314223.01369711873
1712814162396,291603.8813250209
1712814162438,267539.06259935396
1712814162477,247798.94149414124
1712814162517,227120.41263366956
1712814162557,218729.71243802528
1712814162597,204120.17309526633
1712814162638,198298.50061745057
1712814162677,189913.62831725064
1712814162717,188541.2516267388
1712814162757,188231.57313187816
1712814162797,186211.9415848432
1712814162838,172077.88063033903
1712814162877,153181.68706282438
1712814162918,132620.41338342056
1712814162958,129908.62511820882
1712814162998,131180.11255156156
1712814163039,126343.53342471551
1712814163078,121459.82927159127
1712814163118,115994.48656465951
1712814163158,109273.05632951576
1712814163201,105337.21970013762
1712814163239,99299.21058117505
1712814163279,86737.40249941498
1712814163319,60992.7558982647
1712814163359,43226.225519319065
1712814163399,33238.72940059798
1712814163440,26855.69079163065
1712814163479,18280.999720514752
1712814163519,8356.103360686451
1712814163559,480.8144956668839
1712814163599,826.8438120149076
1712814163641,-1007.3612607698888
1712814163680,2280.0117312408984
1712814163720,12038.713144971058
1712814163760,24587.540607747156
1712814163800,35338.26472895034
1712814163841,36793.02280404512
1712814163880,42679.88182769623
1712814163920,43449.7916675373
1712814163960,26753.977924250998
1712814164001,15134.06797007937
1712814164042,10084.068640723825
1712814164081,10139.041137464345
1712814164121,14621.21283973474
1712814164161,18098.332494428847
1712814164201,32435.143619012088
1712814164242,30253.82649992779
1712814164281,24958.661893839017
1712814164321,24698.264607913326
1712814164362,15716.699603176676
1712814164402,5098.745881754905
1712814164443,8136.094910000451
1712814164482,15220.594809402712
1712814164522,-19068.265477741137
1712814164562,-12043.95769190602
1712814164602,2030.9138890430331
1712814164643,7014.820215368643
1712814164683,6753.034657688346
1712814164723,4038.207432691008
1712814164763,5859.522939238697
1712814164803,10503.418650473002
1712814164844,13210.435526985675
1712814164883,11215.08186572045
1712814164923,7559.439667985775
1712814164964,11341.472181317396
1712814165004,8060.046617690474
1712814165045,1195.940660099499
1712814165084,-355.6558038839139
1712814165124,398.2802797635086
1712814165164,-2956.019098592922
1712814165204,-7512.805771348067
1712814165245,3870.1469357591122
1712814165284,11485.859383512754
1712814165325,13374.800418613013
1712814165365,8197.566496650223
1712814165405,3479.8630439136177
1712814165446,2374.68133826321
1712814165485,-2404.273387110792
1712814165525,-6862.239101829007
1712814165565,-12145.960149575025
1712814165605,-12459.386063468643
1712814165647,-6258.857744057663
1712814165686,11.03140632295981
1712814165726,-24767.475198177155
1712814165766,-37059.30364336027
1712814165806,-30617.917197188828
1712814165847,-43804.68815572187
1712814165886,-38273.32218558807
1712814165927,-30730.205286182463
1712814165967,-33393.75647209957
1712814166007,-27306.210588675924
1712814166048,-29792.4771042848
1712814166087,-35042.163635774516
1712814166127,-28363.80542407697
1712814166167,-29256.43683630647
1712814166207,-24010.954198036343
1712814166249,-19985.473928151652
1712814166288,-15597.65170217352
1712814166328,-10289.25105992565
1712814166368,-7747.493561545853
1712814166408,-3843.8729413696565
1712814166449,-2986.6226693401113
1712814166488,-2429.0378815303557
1712814166529,-4675.604901560582
1712814166569,-2630.6761694108136
1712814166609,5152.600589167792
1712814166650,9591.619711927138
1712814166689,-14374.491355647333
1712814166729,-16979.52451219503
1712814166769,-21365.51382336067
1712814166809,-11090.441687150858
1712814166851,-16624.194036067463
1712814166890,-32747.39267278835
1712814166930,25157.676270662807
1712814166970,-5234.339781785384
1712814167010,18112.98743906198
1712814167051,2909.6712397495285
1712814167091,-2824.8682230655104
1712814167131,-5206.817459059879
1712814167171,-6088.633898535278
1712814167211,12775.804709130898
1712814167252,33990.3822858003
1712814167291,25671.074997614603
1712814167331,-6270.380563131534
1712814167372,6233.9293973799795
1712814167412,19997.115375850815
1712814167453,15726.587784193456
1712814167492,-732.6866158354096
1712814167532,-14332.878532857634
1712814167572,-31118.38537938427
1712814167613,-47666.10903187748
1712814167654,-74253.69528553588
1712814167693,-76932.86059799138
1712814167733,-53036.59342007339
1712814167773,-58136.386196104344
1712814167813,-43822.04153705714
1712814167855,-46384.88942167815
1712814167894,-22614.691456719767
1712814167934,-3386.565466984175
1712814167974,46258.73408277379
1712814168014,33414.86130641075
1712814168055,39482.26003633486
1712814168094,45248.14102907479
1712814168135,21994.45130216237
1712814168175,-28652.53301161155
1712814168215,-105769.93660788937
1712814168256,-61942.42424674146
1712814168295,-69265.9826320922
1712814168336,-35744.70697585773
1712814168375,17443.269030032214
1712814168416,21720.135333689395
1712814168457,26612.026248247363
1712814168496,36082.52074568486
1712814168536,40596.18472763337
1712814168576,33570.03620026726
1712814168616,51543.91228409391
1712814168657,5175.462445287034
1712814168696,-32230.746109570377
1712814168736,-33194.70594404172
1712814168776,-28695.908969404176
1712814168817,-17790.709057854023
1712814168858,1380.2732409173623
1712814168897,20096.14706453588
1712814168937,51223.9625862469
1712814168977,67884.61313398462
1712814169017,68109.37148609059
1712814169058,77701.90696026199
1712814169097,77640.55188852502
1712814169137,74065.01701632701
1712814169178,41564.36271771602
1712814169218,23749.959464355838
1712814169259,6249.338940391783
1712814169298,37980.50367920613
1712814169338,4600.921856644098
1712814169378,-1857.6476908968762
1712814169418,19120.614713015966
1712814169459,60035.32742460817
1712814169498,92471.23502744408
1712814169539,96724.83223925577
1712814169579,95676.74910620926
1712814169619,78962.97425757814
1712814169660,62888.001819984056
1712814169699,73589.13149806671
1712814169739,65469.19622515701
1712814169779,22401.43602011446
1712814169819,-13536.825587437488
1712814169860,-17570.180171095766
1712814169900,-12970.37107551191
1712814169940,14577.679158716463
1712814169980,29529.76243427396
1712814170020,32806.86982970731
1712814170061,37888.65501067368
1712814170100,35544.98350878572
1712814170140,27850.41537895566
1712814170180,19173.35570238903
1712814170221,8204.331651542336
1712814170262,-4121.5427625062875
1712814170301,-16095.3921951144
1712814170341,-17868.957322682254
1712814170381,-26395.702500232495
1712814170421,-14458.10335438326
1712814170462,2180.48649605643
1712814170501,9910.017533082515
1712814170541,1782.9206989891827
1712814170582,-6855.19355956465
1712814170622,29450.46953762183
1712814170663,27746.934343602974
1712814170702,22056.752927762456
1712814170742,27647.977475450374
1712814170782,22238.352873060852
1712814170822,17521.849685874768
1712814170863,14767.962861182634
1712814170902,11484.46873935312
1712814170942,9488.532376786694
1712814170983,7666.81495446898
1712814171023,5740.146068950184
1712814171064,5660.663271752186
1712814171103,4687.947614978068
1712814171143,3717.1899000545964
1712814171183,3907.772708466742
1712814171223,2974.938488206826
1712814171264,2929.7506429702044
1712814171303,2207.870393377263
1712814171344,3323.0646276166663
1712814171384,2601.4821934383363
1712814171424,976.0093870009296
1712814171465,-2384.1318910992704
1712814171504,-6097.144406844862
1712814171544,-13054.514730794355
1712814171584,-14229.964885274414
1712814171624,-16143.500952729955
1712814171665,-17720.271418871824
1712814171705,-20088.660356456414
1712814171745,-20459.775835284963
1712814171785,-20884.677770283073
1712814171825,-20159.39850191772
1712814171866,-19297.216245395597
1712814171905,-17116.85953208618
1712814171945,-16985.109155877493
1712814171985,-15732.511779025197
1712814172025,-14699.727517974563
1712814172067,-13259.658768901136
1712814172106,-13350.58954725694
1712814172146,-15050.7357692956
1712814172186,-17086.1652147891
1712814172226,-17770.562015052885
1712814172267,-18224.255971024744
1712814172306,-18009.87159022549
1712814172346,-17944.76188163366
1712814172387,-16739.598662471864
1712814172427,-17768.474872033577
1712814172468,-17107.99708707165
1712814172507,-16432.280130563304
1712814172547,-14542.752356843092
1712814172587,-12189.378502614796
1712814172627,-10773.862721944228
1712814172669,-8730.27009216277
1712814172708,-7000.31525370758
1712814172748,-5558.170478801243
1712814172788,-5406.840108411852
1712814172828,-4813.337951972149
1712814172869,-8954.643050665502
1712814172908,-11141.776751502417
1712814172948,-12404.53733802773
1712814172989,-12160.994446117431
1712814173029,-11826.062670753803
1712814173070,-10246.57011933066
1712814173109,-9457.43649893161
1712814173149,-9684.1571714608
1712814173189,-9525.589530392084
1712814173229,-7683.420718406793
1712814173271,-6009.992031481117
1712814173310,-4206.32603927888
1712814173350,-2136.666721786838
1712814173390,-533.4922338798642
1712814173430,1224.6121526649222
1712814173471,1523.8264395571314
1712814173511,-477.22108639311045
1712814173550,-2954.0610160678625
1712814173591,-4924.500650983304
1712814173631,-5487.681966103148
1712814173672,-6175.241604953073
1712814173711,-3955.8268635859713
1712814173751,-3913.923698587343
1712814173791,-3252.91141049657
1712814173832,-2652.4215627377853
1712814173873,-2373.458420233801
1712814173912,-1330.3825933001935
1712814173952,194.76287349592894
1712814173992,1582.572330695577
1712814174032,2929.661326553207
1712814174074,4865.4880940984
1712814174113,6393.606458976865
1712814174153,6801.137798243668
1712814174193,4723.197824498173
1712814174233,2781.957780071534
1712814174274,754.9169295439497
1712814174314,-316.67452734708786
1712814174354,-726.8345169187523
1712814174394,-89.40402344800532
1712814174434,589.6260380735621
1712814174475,1047.9536516182125
1712814174514,1356.960934566334
1712814174554,2014.2804350936785
1712814174594,3225.975754668005
1712814174634,4114.118630031124
1712814174675,5112.938492757734
1712814174715,6139.175335633103
1712814174755,7363.679690040182
1712814174795,8513.680464430712
1712814174835,7293.176617988851
1712814174876,5153.714022247586
1712814174915,2226.1046686694026
1712814174955,-331.3734137797728
1712814174995,-1506.8866178058088
1712814175035,-1594.4031347213313
1712814175077,-1350.9219547035173
1712814175116,-1125.7117294096388
1712814175156,-872.7728194925003
1712814175196,-653.6446414291859
1712814175236,-429.83957228437066
1712814175277,739.3837161557749
1712814175316,1708.1617889637128
1712814175356,2595.9571898006834
1712814175396,3815.7383163380437
1712814175437,4433.103195804637
1712814175478,6227.176586350426
1712814175517,7127.39460803289
1712814175557,6931.705584694631
1712814175597,4579.614717255812
1712814175637,1913.4252322623506
1712814175678,-477.1631574402563
1712814175717,-2144.6395732220262
1712814175757,-2913.11903193919
1712814175797,-2819.772759767249
1712814175837,-2416.3649749057367
1712814175878,-2654.8952899337746
1712814175918,-2677.7500345958397
1712814175958,-1493.7772815600038
1712814175998,-875.3575740284286
1712814176038,447.47901900019497
1712814176079,1473.4733432987705
1712814176118,3417.541788764298
1712814176158,5148.5031460803
1712814176198,6238.730423624162
1712814176238,7851.695862965658
1712814176280,7852.416140386835
1712814176319,6997.645171070471
1712814176359,3907.4356417381205
1712814176399,1536.5911859967746
1712814176439,-144.35284706018865
1712814176480,-888.177634997759
1712814176519,-983.7788013219833
1712814176559,-866.541525863111
1712814176599,-342.13778950227425
1712814176640,-334.5004205782898
1712814176681,-201.4354346441105
1712814176720,941.6442344831303
1712814176760,1567.8303664494306
1712814176800,2317.8244839329273
1712814176840,3614.648240956012
1712814176881,4855.349007328041
1712814176920,6061.265939108562
1712814176960,6265.120641066693
1712814177001,5770.460561282467
1712814177041,3352.944533482194
1712814177082,1299.5471268082038
1712814177121,-901.2810555496253
1712814177161,-1628.689301696606
1712814177201,-1863.7194106434472
1712814177241,-1582.687817480415
1712814177282,-1541.3003398687579
1712814177322,-1299.349490141496
1712814177362,-834.6529541653581
1712814177402,-180.64482967369258
1712814177442,260.9180742138997
1712814177483,1425.4497679844499
1712814177522,2457.6780073363334
1712814177562,3399.6298993467353
1712814177602,3974.15247756755
1712814177642,5357.550319373608
1712814177683,5151.946216966957
1712814177723,2828.652435977012
1712814177763,-338.0214479989372
1712814177803,-1955.9628076720983
1712814177843,-3557.2401227764785
1712814177884,-4324.991929883603
1712814177923,-4391.307817114517
1712814177964,-4186.921582074836
1712814178004,-3796.513143210206
1712814178044,-3266.8078484321013
1712814178085,-2255.8408938786015
1712814178124,-1623.3556977319531
1712814178164,-820.2003891263157
1712814178204,298.19777192920446
1712814178244,2363.1670106230304
1712814178285,3548.1775691923685
1712814178325,5030.013812441379
1712814178365,5198.96964478679
1712814178405,4627.911661663093
1712814178445,2303.232811461203
1712814178486,94.4163895137608
1712814178525,-2220.299917208962
1712814178565,-2806.939887061715
1712814178605,-2839.286212707404
1712814178646,-2743.6893640318885
1712814178687,-2570.471944330726
1712814178726,-1585.4623894719407
1712814178766,-1506.63918652758
1712814178806,-1054.3687499435619
1712814178846,-214.62393103912473
1712814178887,811.87480719015
1712814178927,1627.155531551689
1712814178967,2564.4175535934046
1712814179007,3881.76767564239
1712814179047,6064.603083918337
1712814179088,7075.0439775562845
1712814179127,7234.925581375137
1712814179167,5230.836386873387
1712814179207,3150.1168285505846
1712814179247,944.9244450503029
1712814179288,-508.80506316479295
1712814179328,-1164.2389780348167
1712814179368,-1314.9816446062177
1712814179408,-1662.6556685604155
1712814179448,-597.9720223783515
1712814179489,-263.8403550311923
1712814179528,-328.3484391318634
1712814179568,647.1360931796953
1712814179609,1613.2602033498697
1712814179649,2835.7045440846123
1712814179690,3528.174416426569
1712814179729,4822.568552725483
1712814179769,5804.979194589425
1712814179809,6727.893400430214
1712814179849,7045.41611575475
1712814179890,6392.493162016384
1712814179930,4140.326934603974
1712814179970,2037.4376078424975
1712814180010,-89.27546618878841
1712814180050,-1169.0820594527759
1712814180091,-919.0662517650053
1712814180131,-945.7476246659644
1712814180171,-478.6122446269728
1712814180211,-34.319053874351084
1712814180251,19.8908905191347
1712814180292,781.5432188138366
1712814180331,1387.5278779305518
1712814180372,2496.4885581210256
1712814180412,3720.9126099697314
1712814180452,5435.552323634736
1712814180493,6363.972641333006
1712814180532,7755.756294453517
1712814180572,8185.289832113776
1712814180612,6534.347091471776
1712814180652,3941.595396235585
1712814180693,1998.2892149076797
1712814180733,-245.37872612848878
1712814180773,-1107.3887593029067
1712814180813,-634.2064501927234
1712814180853,-236.81307134311646
1712814180894,341.2980830189772
1712814180933,947.3055625660345
1712814180973,1603.207859987393
1712814181013,2130.642781634815
1712814181053,2852.215567447711
1712814181094,4540.444054744206
1712814181133,6070.821068631951
1712814181174,7503.151956249028
1712814181214,8132.881112128962
1712814181254,9141.955581432208
1712814181295,9750.821638057474
1712814181334,9895.475745039526
1712814181374,7350.021774416324
1712814181414,5541.032943456434
1712814181454,3026.2167351804674
1712814181495,2667.936972343363
1712814181534,2803.42029854469
1712814181575,2785.117388477549
1712814181615,2856.5811897208914
1712814181655,2490.8433976843953
1712814181696,2408.2452764017507
1712814181735,2665.1169502777047
1712814181775,3402.213049249258
1712814181815,4122.129733159207
1712814181855,4942.057670013048
1712814181896,6413.924943879247
1712814181936,7582.457426201552
1712814181976,8590.941140357405
1712814182016,10188.708042529412
1712814182056,11602.9220691761
1712814182097,11969.168860759586
1712814182136,10510.788311464246
1712814182176,7395.881777017377
1712814182216,5514.980582145974
1712814182256,4197.370459876489
1712814182297,3531.739974164404
1712814182337,4011.7010234361514
1712814182377,3892.8642686055973
1712814182417,3908.3717484045774
1712814182457,3417.8792084101588
1712814182498,4418.7148212837055
1712814182537,4796.8384039406665
1712814182578,5461.413230409846
1712814182618,6235.049601282924
1712814182658,7323.547871419229
1712814182699,8497.767196392175
1712814182738,9823.639388194308
1712814182778,10313.614455278032
1712814182818,10450.515091757756
1712814182858,11382.804473383818
1712814182899,12571.990725217853
1712814182939,11429.547095160931
1712814182979,9695.35414311057
1712814183019,8463.396453196183
1712814183059,7547.155079963617
1712814183100,6579.765525605064
1712814183139,6516.609995929524
1712814183179,6175.173445126973
1712814183219,5876.990777988918
1712814183260,5962.743353419006
1712814183300,6408.036024668254
1712814183340,6600.166172813624
1712814183380,7861.934853667859
1712814183420,8484.77737711696
1712814183460,9838.269610164687
1712814183501,10636.824473725632
1712814183540,11152.588198177516
1712814183580,11339.782024022657
1712814183621,11645.247682292946
1712814183661,12179.407464976422
1712814183701,12679.66547014378
1712814183741,11475.501448678318
1712814183781,10101.459268385544
1712814183821,8340.614760074299
1712814183861,8005.36966782622
1712814183903,7326.781246998347
1712814183942,7376.515899655875
1712814183983,6875.607297052629
1712814184023,6964.37846297631
1712814184063,7015.267392618582
1712814184104,7247.387715113815
1712814184143,7254.3972776103765
1712814184183,6872.174649098888
1712814184223,7885.359791924246
1712814184264,8731.49836886162
1712814184304,8366.101451897062
1712814184344,9000.062611100264
1712814184384,10404.927389564458
1712814184424,11112.210521946661
1712814184464,10832.69041040726
1712814184505,9933.44412065018
1712814184545,8701.23238344863
1712814184585,7980.37269072514
1712814184625,7351.521617330145
1712814184665,6880.174086412415
1712814184706,7978.060243557207
1712814184745,8410.92947964929
1712814184785,8604.134313037153
1712814184826,8972.706891103182
1712814184866,9627.94974940084
1712814184907,10014.300015821122
1712814184946,11280.695217173547
1712814184986,12013.858108179644
1712814185026,13068.910422034096
1712814185067,13064.244811337907
1712814185107,13500.142847762443
1712814185147,12990.924870512448
1712814185187,12104.942949896678
1712814185227,9724.602998525836
1712814185267,8509.69724143669
1712814185308,6898.456892548129
1712814185347,6220.581511292607
1712814185387,5864.309164494742
1712814185428,5801.880579081364
1712814185468,5865.498957632575
1712814185509,5730.675472888164
1712814185548,5942.366773955524
1712814185588,6973.347601581365
1712814185628,7296.761716044042
1712814185669,7710.071515739895
1712814185709,9334.198648581747
1712814185749,10360.693447057623
1712814185789,10975.247863612138
1712814185829,10910.065836448688
1712814185869,11149.716641735286
1712814185910,9439.161590093747
1712814185950,7360.194331810344
1712814185990,4963.0880527198315
1712814186030,3338.876178858336
1712814186070,1874.2064127949998
1712814186111,1612.0258648246527
1712814186151,1565.142561269924
1712814186190,2058.810824329965
1712814186231,1122.5935694924556
1712814186271,1056.0096012977883
1712814186312,905.3007040135562
1712814186351,1000.8348094588146
1712814186392,1970.4549305289984
1712814186432,3512.9642732758075
1712814186471,3929.147791689262
1712814186512,5336.017473997083
1712814186552,5998.607993169222
1712814186592,5790.5058031822555
1712814186632,3553.1405073357746
1712814186672,1805.538466625847
1712814186713,363.9419945301488
1712814186752,-434.42746608983725
1712814186792,-1148.4523867452517
1712814186832,-2138.1386536406353
1712814186873,-2192.7464729170315
1712814186913,-2389.814550785348
1712814186953,-2193.9650804125704
1712814186993,-2627.128576449584
1712814187033,-2496.8824664670974
1712814187073,-2269.6925181057304
1712814187114,-623.4805977675132
1712814187153,-48.68742627650499
1712814187193,1180.9803933165967
1712814187234,2175.470103252679
1712814187274,3208.9854167201556
1712814187314,4234.890135752037
1712814187354,4359.2793682180345
1712814187394,2322.628716029227
1712814187434,774.6777525460348
1712814187474,-1753.9041747292504
1712814187515,-2207.417304359842
1712814187554,-2695.6989228557795
1712814187594,-2382.1618808694184
1712814187634,-2590.576042373199
1712814187675,-2201.2650507725775
1712814187716,-1781.95330534596
1712814187755,-657.8340016882867
1712814187795,-398.4264859207906
1712814187835,197.54815442068502
1712814187875,483.05818151589483
1712814187916,944.96899388358
1712814187956,1290.3982460214756
1712814187996,2116.5311620961875
1712814188036,3207.1948458515108
1712814188076,4177.292205773294
1712814188117,5349.12760668993
1712814188156,4558.767136841547
1712814188196,2536.240459232591
1712814188236,935.9360177349299
1712814188276,-278.76162132574245
1712814188317,-1520.1714341104962
1712814188357,-2286.3927301545627
1712814188397,-3335.7643135571852
1712814188437,-2963.5727028260008
1712814188477,-3572.986170616932
1712814188518,-3196.094735406339
1712814188557,-2766.298159992788
1712814188597,-3090.888790565077
1712814188638,-2124.686564799398
1712814188678,-1041.4210073719732
1712814188718,-801.4946268405765
1712814188758,549.1405505165458
1712814188798,1544.599492595531
1712814188838,1974.644023644738
1712814188878,3195.172149593476
1712814188919,4055.130119441077
1712814188958,3443.878813996911
1712814188998,1719.6774029480293
1712814189039,-1079.2000396493822
1712814189079,-2607.1436708010733
1712814189119,-3345.506955991499
1712814189159,-3502.1443458618596
1712814189199,-3064.188312993385
1712814189239,-2495.619616012089
1712814189280,-2533.298896315042
1712814189320,-2705.414664422162
1712814189360,-2566.4076472166926
1712814189400,-1967.622784910258
1712814189440,-493.3784511657432
1712814189480,912.5811250498518
1712814189521,1255.438700499013
1712814189560,1661.684052489698
1712814189600,2302.813784052152
1712814189641,3908.107546451967
1712814189681,5959.156017123256
1712814189721,5789.787618122064
1712814189761,4589.518684374634
1712814189801,2025.204228672199
1712814189841,-263.4806939214468
1712814189881,-1541.8664221144281
1712814189922,-2405.59959630901
1712814189961,-2909.8000817471184
1712814190002,-2226.2348352414556
1712814190042,-2897.944339100737
1712814190082,-2692.0612688916735
1712814190123,-2617.263699016068
1712814190162,-2111.48450387083
1712814190202,-1193.0077542820945
1712814190243,-539.8548855017871
1712814190282,-193.57954353047535
1712814190323,818.5397882102989
1712814190363,1576.1050475332886
1712814190403,2145.0712948823348
1712814190443,3174.3871308281086
1712814190483,4172.073412837461
1712814190524,3828.911670028232
1712814190563,2669.786482752301
1712814190604,110.3548450274393
1712814190644,-2897.3937006518245
1712814190684,-4460.608039046172
1712814190725,-6118.967579104938
1712814190764,-6846.118447525427
1712814190804,-6565.599796096329
1712814190845,-6994.401590405963
1712814190885,-6696.37652391009
1712814190925,-6866.303332382813
1712814190965,-6549.40276677534
1712814191005,-6217.443628002889
1712814191045,-5780.887127420865
1712814191086,-4448.325769281946
1712814191126,-3335.4230329375714
1712814191166,-2141.4262986280955
1712814191206,-1311.6965760402381
1712814191246,-751.8064527371898
1712814191286,276.77823412558064
1712814191327,1601.6133769154549
1712814191366,1286.0250858715735
1712814191406,-600.5375420837663
1712814191447,-3105.0443840455264
1712814191487,-5112.6593703492545
1712814191528,-5988.395557807758
1712814191567,-6852.003444076516
1712814191607,-6974.9292476587
1712814191647,-6948.501716091298
1712814191688,-6970.396579572931
1712814191728,-6757.814562658779
1712814191768,-6255.261554113124
1712814191808,-5134.807615343481
1712814191848,-4327.601565529592
1712814191888,-3096.4231113600545
1712814191929,-2044.8545777276158
1712814191968,-1258.0409177266993
1712814192008,-58.341410112567246
1712814192049,1569.2058178870939
1712814192089,2296.2214544606395
1712814192130,3098.3963328953832
1712814192169,1905.408168216236
1712814192209,351.881749490276
1712814192249,-852.5723281921819
1712814192290,-1900.108799493406
1712814192330,-1481.220965076238
1712814192370,-1773.7794875297695
1712814192410,-2092.4001356558874
1712814192450,-2160.279480096884
1712814192490,-1597.7591045638546
1712814192531,-969.1709769340232
1712814192570,-493.2900200812146
1712814192610,727.388628740795
1712814192650,1677.026154738851
1712814192690,2743.3982125809416
1712814192731,4651.573912994936
1712814192771,4865.641027553473
1712814192811,5644.329312738031
1712814192851,6684.240077709779
1712814192891,6709.273138760589
1712814192932,4944.607236388139
1712814192971,3179.8825142821297
1712814193011,1739.9032938671298
1712814193051,198.21319642290473
1712814193091,-444.9795686197467
1712814193132,-819.6085292440839
1712814193172,-1304.806489981711
1712814193212,-444.65250217262655
1712814193252,151.44352878443897
1712814193292,907.6361240847036
1712814193333,1365.7849118527956
1712814193372,2205.958219105378
1712814193412,2602.5047560771927
1712814193452,3218.368253983557
1712814193493,3365.215173930861
1712814193533,3721.1606944864616
1712814193573,4854.049196589738
1712814193613,5693.720466958359
1712814193653,6747.983209971804
1712814193693,5066.17278470099
1712814193734,3786.5586531092413
1712814193773,1779.0992306917906
1712814193813,1140.3443234683946
1712814193853,1418.5279278568923
1712814193893,1036.9546740823425
1712814193934,2508.5769448457286
1712814193974,2301.2431927770376
1712814194014,2312.679969803896
1712814194054,4030.4277285151184
1712814194094,4660.609254173469
1712814194135,5651.345374478959
1712814194174,5393.975234682672
1712814194214,6076.3777385926805
1712814194254,5990.799685229547
1712814194294,7132.120700255502
1712814194335,9057.603783326223
1712814194375,10346.708821550012
1712814194415,10540.059858507011
1712814194455,9658.001480373554
1712814194495,7322.446212448645
1712814194536,4124.275201972574
1712814194575,3309.6219964465126
1712814194615,3374.550434875302
1712814194655,2641.67332872469
1712814194696,2046.3259565415792
1712814194736,1263.0770343914628
1712814194776,687.9896418941207
1712814194816,1830.5514799309894
1712814194856,6279.459602000192
1712814194896,4552.620868157595
1712814194937,8541.227059927769
1712814194976,8751.741281091236
1712814195016,11808.743803591002
1712814195057,13471.479101245292
1712814195097,12452.542324560694
1712814195137,13193.463922955096
1712814195177,12998.921222541016
1712814195217,9835.353736876044
1712814195257,7083.093875607476
1712814195297,2944.388122295961
1712814195338,986.9304200420156
1712814195377,379.29638937022537
1712814195418,83.69072320032865
1712814195458,362.8908051508479
1712814195498,649.9187351958826
1712814195539,2444.8653696421534
1712814195578,2691.679188778624
1712814195618,1196.240317165386
1712814195658,1473.01122171944
1712814195698,2511.9915705607273
1712814195739,3782.77973368112
1712814195779,4473.252328570001
1712814195819,6521.968251410872
1712814195859,5194.373349901754
1712814195899,1092.1410643127747
1712814195939,-1638.6751145184971
1712814195978,-4317.62169131916
1712814196019,-4578.25624322379
1712814196059,-1491.8593262974173
1712814196099,-3722.639752279967
1712814196140,-3633.716491197236
1712814196179,486.4386069253087
1712814196219,277.0417054328136
1712814196259,-1077.8949566381052
1712814196299,-1534.581697395537
1712814196340,-1542.4426405895501
1712814196380,984.4947098437697
1712814196420,494.2868088851683
1712814196460,2121.677818295546
1712814196500,1818.3850716552697
1712814196541,2033.4172877101228
1712814196580,1136.750216589775
1712814196621,-994.0800762092695
1712814196661,-1214.1912109288387
1712814196701,-1142.8374421498738
1712814196742,-807.9793165875599
1712814196781,-3341.4182167118415
1712814196821,-4691.716184213292
1712814196862,-4653.074824302457
1712814196902,-1426.3031107210554
1712814196943,-3012.533975242637
1712814196982,-988.8939035981894
1712814197022,1976.65357486438
1712814197062,5212.197051636875
1712814197103,6009.222379349172
1712814197143,10274.986336100847
1712814197183,11731.508119216189
1712814197223,13390.624770622235
1712814197263,11877.272111664526
1712814197303,8813.865267588291
1712814197344,3119.2956889551133
1712814197384,4072.9729306055233
1712814197424,1012.8353128731251
1712814197464,1451.232757567428
1712814197504,719.7226933711208
1712814197545,4362.410068622325
1712814197584,4091.229980976321
1712814197625,3178.724981502164
1712814197665,2756.9207081398927
1712814197705,3491.020946756471
1712814197746,3160.8654546206817
1712814197785,5487.688941102009
1712814197825,6253.586659040768
1712814197865,8422.255463476293
1712814197906,9226.357866862789
1712814197947,8081.382059504278
1712814197986,2518.9219034826383
1712814198026,1819.1233996665105
1712814198066,3986.166082174983
1712814198106,3876.6516823312268
1712814198147,2151.3568315636367
1712814198187,1844.24015595112
1712814198227,5659.741466075648
1712814198267,7715.315602152143
1712814198307,8877.020460717846
1712814198348,7858.714190843981
1712814198387,10733.77180123888
1712814198428,10131.782349598594
1712814198468,11712.89775324706
1712814198508,10685.07272047922
1712814198549,11465.132215109654
1712814198588,10866.207992085256
1712814198628,13140.32505870331
1712814198668,10665.448898269795
1712814198708,9819.862642424181
1712814198749,8318.81231830595
1712814198788,8298.75533613097
1712814198828,8041.973628098145
1712814198869,12069.622622135561
1712814198909,9334.244897095487
1712814198949,8041.022923998535
1712814198989,5577.143607651815
1712814199029,3934.0619142740034
1712814199069,3592.6100012911484
1712814199109,4722.52749423217
1712814199150,5525.330932115205
1712814199189,5052.292559714057
1712814199229,3568.3916544625536
1712814199270,4274.67496799957
1712814199310,1233.6720404159278
1712814199350,-1045.6586535531096
1712814199390,-2794.2548199919984
1712814199430,-3278.895139983855
1712814199470,-4136.6898833671585
1712814199510,-4321.227679377887
1712814199551,-2798.996891397517
1712814199590,-905.2584676989354
1712814199631,1819.1006696373224
1712814199671,565.1570103326812
1712814199711,-379.71665365993977
1712814199752,-506.3800934883766
1712814199791,1796.1412842329592
1712814199831,3216.8098617717624
1712814199871,4160.8617564952
1712814199911,128.03127310983837
1712814199952,-4965.965214584954
1712814199991,-9222.801935872994
1712814200031,-42373.743098870385
1712814200072,-66743.38261113036
1712814200112,-53393.67623594683
1712814200153,-47744.35020332597
1712814200192,-37401.60944607202
1712814200232,-28599.798191185575
1712814200272,-29667.292512501124
1712814200312,-27790.504096541088
1712814200353,-19676.287265728228
1712814200393,-3287.143303000368
1712814200433,27430.725481785834
1712814200473,44353.06234728126
1712814200513,56340.43281838205
1712814200554,57230.49844149919
1712814200593,68880.84253239073
1712814200633,68172.68253160594
1712814200673,50772.58357398957
1712814200714,32082.148934134748
1712814200754,36496.77722159866
1712814200794,34960.77237484371
1712814200834,31965.767694696784
1712814200874,27757.747540200595
1712814200914,26116.950461538974
1712814200955,39466.30542156147
1712814200994,45474.10483790934
1712814201034,49064.42945354385
1712814201075,51616.66123201698
1712814201115,40895.62097766157
1712814201156,46070.11469145026
1712814201195,44016.84287757613
1712814201235,40336.75433693407
1712814201275,34103.47198518319
1712814201316,64593.04691788042
1712814201356,83544.81142254965
1712814201396,71792.75977303414
1712814201436,63079.88883750746
1712814201476,59117.43059137324
1712814201516,59647.30006318865
1712814201557,70817.6940832641
1712814201596,74821.17488380242
1712814201636,74422.07773551252
1712814201676,72103.60430621076
1712814201716,48111.49273107294
1712814201757,36179.70054420084
1712814201797,24363.252446915023
1712814201837,24689.149081268348
1712814201877,24898.760732675903
1712814201917,35191.83649395127
1712814201958,54168.477173727006
1712814201997,88471.80485338205
1712814202038,82766.5473818183
1712814202078,87108.86866732035
1712814202118,85500.00717172679
1712814202159,83623.32899812609
1712814202198,95002.40779403411
1712814202238,86710.51430060714
1712814202278,83693.30200140364
1712814202318,78867.50643027248
1712814202359,69343.73123934865
1712814202399,71002.66315534525
1712814202439,61493.08809504844
1712814202479,59083.568859574385
1712814202519,56855.25865838025
1712814202560,54839.923572843894
1712814202599,41448.96620421158
1712814202639,33825.842631885316
1712814202679,27762.767837942578
1712814202719,25859.40534819616
1712814202760,30439.64724544715
1712814202800,35863.62923235493
1712814202840,35458.195184017066
1712814202880,34318.608742679935
1712814202920,30944.648216435686
1712814202961,19064.11503159022
1712814203000,9402.727311123163
1712814203041,-22.34638538211584
1712814203081,-5543.322454105131
1712814203121,-9456.223893640563
1712814203162,-21921.940947796218
1712814203201,-33477.222898053005
1712814203241,-35447.621779390145
1712814203281,-42070.604008663446
1712814203321,-35240.49549579527
1712814203362,-33603.12779231835
1712814203402,-20922.181810777634
1712814203442,-6913.84676347021
1712814203482,-4674.334641543683
1712814203522,1844.989855665248
1712814203563,11896.540767299943
1712814203603,18525.067273921333
1712814203643,23236.105941865593
1712814203683,23492.831028434914
1712814203723,22117.06193889305
1712814203764,18809.677522420418
1712814203803,15915.836174392141
1712814203843,15963.27764020767
1712814203883,16919.27710033208
1712814203924,18074.275964563712
1712814203965,16195.339281597175
1712814204004,14612.183509083465
1712814204044,9973.865373130888
1712814204084,2966.6624018102884
1712814204124,-219.353066239506
1712814204165,-758.1267214543186
1712814204205,4200.052096297964
1712814204245,9828.787105075084
1712814204285,16103.990564288106
1712814204325,16741.622273675166
1712814204366,17324.169375741854
1712814204405,17956.351540598553
1712814204446,16790.96267676493
1712814204486,14252.150293585379
1712814204526,-2351.6564093148336
1712814204567,-54492.537884539925
1712814204606,-115025.61314315442
1712814204646,-141647.25396540482
1712814204686,-155231.57020260673
1712814204726,-127025.50465443823
1712814204767,-91148.651660203
1712814204807,-88717.97117279889
1712814204847,-77439.28684241138
1712814204887,-58820.664770089556
1712814204927,-36598.27269244101
1712814204968,-19485.474616348278
1712814205007,-2246.951564350631
1712814205047,-15786.496697663795
1712814205087,-21243.747131395154
1712814205127,-30548.66179389786
1712814205168,-67642.88805652363
1712814205207,-69398.14957625698
1712814205247,-58809.07192578446
1712814205288,-68368.83645638172
1712814205328,-69653.6641897345
1712814205369,-68853.22426025663
1712814205408,-69431.81332989782
1712814205448,-68155.48935539275
1712814205488,-66935.70800215285
1712814205528,-64934.44106717734
1712814205569,-64140.7372364765
1712814205608,-63943.65035914024
1712814205649,-64920.601976199076
1712814205689,-66686.7355504809
1712814205729,-66770.15960761625
1712814205770,-63823.390091094654
1712814205809,-44027.17927399697
1712814205849,8816.959602220915
1712814205889,68895.93936579395
1712814205929,93215.95120402705
1712814205970,100903.93560707103
1712814206010,74449.94105750602
1712814206050,37075.14039838966
1712814206090,21064.540343258996
1712814206130,9507.814185782336
1712814206171,-11066.641047322191
1712814206210,-40664.21846767608
1712814206250,-62936.957990855444
1712814206290,-88344.26622247556
1712814206330,-83318.45800212864
1712814206372,-82251.12788394373
1712814206411,-75188.35294870194
1712814206451,-39582.141420716885
1712814206491,-34377.63375573186
1712814206531,-42906.2466951143
1712814206572,-33059.00526768481
1712814206611,-29466.308377164416
1712814206651,-29318.277536385227
1712814206692,-26387.352345199324
1712814206732,-25614.8992233756
1712814206773,-24146.875927824527
1712814206812,-21987.50129513163
1712814206852,-19139.087254598737
1712814206892,-17355.22503834963
1712814206932,-16947.395362941083
1712814206973,-17378.23186894227
1712814207012,-18555.642934661824
1712814207053,-19032.447233397514
1712814207093,-19245.95107884286
1712814207133,-17669.5523661389
1712814207174,-17100.909564386588
1712814207213,-15564.508602338843
1712814207253,-15977.774473810568
1712814207293,-14263.348679839633
1712814207334,-13563.354808246251
1712814207375,-11581.732833337039
1712814207414,-10074.149713873863
1712814207454,-8896.810261697974
1712814207494,-8283.52097113058
1712814207534,-7540.888666462153
1712814207575,-7517.831292755902
1712814207614,-7873.586103858426
1712814207655,-8853.325435383711
1712814207695,-10601.204783422407
1712814207735,-10609.365471820347
1712814207776,-10910.961897625588
1712814207815,-9378.759331500158
1712814207855,-9018.61033966858
1712814207895,-8548.508004067466
1712814207935,-7430.893081318121
1712814207979,-6955.038212441839
1712814208019,-5414.2348128613085
1712814208059,-4951.573889520951
1712814208099,-4544.466750804335
1712814208139,-4330.525715542026
1712814208180,-4742.198413381819
1712814208219,-4149.734248505905
1712814208259,-3742.007194978185
1712814208299,-5015.344009463675
1712814208339,-5533.7281885091215
1712814208381,-6093.460060925223
1712814208420,-7122.327640882693
1712814208460,-6457.1641480783
1712814208500,-5999.678596004844
1712814208540,-4884.503341985401
1712814208581,-6121.632451311685
1712814208620,-5803.93295364175
1712814208661,-5662.480087317526
1712814208701,-5398.326101092156
1712814208741,-4237.298600754701
1712814208782,-2600.986003014259
1712814208821,-1333.6350487237796
1712814208861,333.82924515986815
1712814208902,372.8087468701415
1712814208941,-543.1270726835355
1712814208983,-1834.132438548375
1712814209022,-3076.9946830179542
1712814209062,-4462.974520495627
1712814209102,-5676.288399013691
1712814209142,-5139.858906467911
1712814209183,-5676.805477399845
1712814209222,-6909.407344973646
1712814209263,-12167.694853747264
1712814209303,-18683.006999092177
1712814209343,-11389.353369349614
1712814209384,-14342.50025053462
1712814209423,-4612.818925382104
1712814209463,1872.2040058425628
1712814209503,7819.205437594093
1712814209543,8571.854337853845
1712814209584,14741.166188357398
1712814209624,13675.063993515447
1712814209664,16730.400624539703
1712814209704,16477.00009010639
1712814209744,15268.260926395655
1712814209785,17567.25514263613
1712814209824,16594.035517695826
1712814209865,16571.687057058327
1712814209905,16471.068813324906
1712814209945,16217.916537812911
1712814209986,13219.296620249748
1712814210025,9593.832689763978
1712814210065,7204.115969623439
1712814210106,4025.5910312905908
1712814210146,3059.745493873488
1712814210187,6272.401215787977
1712814210226,4997.916502365377
1712814210266,4651.606047613546
1712814210306,3387.001328665763
1712814210346,3033.0372558217496
1712814210387,8576.44944339618
1712814210426,9011.646795815323
1712814210467,17698.69680405408
1712814210507,17710.241147930734
1712814210547,21259.28423997946
1712814210588,24622.053729671054
1712814210627,25585.22841234505
1712814210667,33420.97180589009
1712814210707,28646.4757222631
1712814210747,29004.312125497498
1712814210788,27546.427443376742
1712814210827,22522.376556952484
1712814210867,20119.785276242066
1712814210908,15240.818642227445
1712814210948,6943.4635616615415
1712814210989,-3162.438896703534
1712814211028,-2511.51636248501
1712814211068,-9251.614225022495
1712814211108,-19137.370036645327
1712814211148,-13628.152445606887
1712814211189,-22243.032131666318
1712814211228,-24216.658839495387
1712814211268,-22326.302909216844
1712814211309,-40343.82513519004
1712814211349,-47959.155069033615
1712814211389,-42583.42369011324
1712814211429,-43300.06153886579
1712814211469,-54387.54195426684
1712814211509,-47352.6645968887
1712814211549,-41222.56302864943
1712814211590,-34504.720488321036
1712814211629,-27359.35139872227
1712814211670,-19899.424768399447
1712814211710,-5384.082504161634
1712814211750,1775.0295016150922
1712814211791,1771.325830904767
1712814211830,-78524.50490823854
1712814211870,-46861.68950376846
1712814211910,-51643.81429392053
1712814211950,-49755.84148444561
1712814211991,-50590.51228646003
1712814212031,-53585.92309955042
1712814212070,-52513.60232817475
1712814212111,-48972.005098891445
1712814212151,-50809.78931906074
1712814212191,-49511.18564241752
1712814212231,-47560.60848937137
1712814212271,-43156.24128920492
1712814212311,-46702.96689430531
1712814212351,-44962.489299756475
1712814212392,-30846.868983525317
1712814212431,-32684.11164854467
1712814212472,-26533.66076730378
1712814212512,-28090.802832123358
1712814212552,-33277.37555414438
1712814212593,-16152.418555459939
1712814212632,-7213.401250586845
1712814212672,-10417.218492937274
1712814212712,-8595.576783363707
1712814212752,1180.0045788194984
1712814212793,-2780.9943152442575
1712814212832,-8387.804878890049
1712814212873,-15670.19160737563
1712814212913,-24377.941320265643
1712814212953,-37440.12487983238
1712814212994,-53965.743095261976
1712814213033,-66777.43471623491
1712814213073,-70348.42453749524
1712814213113,9854.419610541314
1712814213153,-19405.50624689646
1712814213194,-17768.81380902184
1712814213234,-16160.750832318328
1712814213274,-11234.82426778227
1712814213314,-9756.49336115038
1712814213354,-12553.260967239272
1712814213395,-11813.683074506
1712814213434,-12448.313933756202
1712814213474,-8072.63201195607
1712814213514,-9168.91480848752
1712814213554,-8721.700488203205
1712814213595,-10389.679539226927
1712814213635,-11995.48263102537
1712814213675,-15676.433875118848
1712814213715,-18835.00820674654
1712814213755,-19977.280421921518
1712814213796,-20118.025498724543
1712814213835,-19383.256568064913
1712814213875,-19083.853843796067
1712814213915,-19593.824005108792
1712814213956,-18180.727206308395
1712814213996,-17629.08844754938
1712814214036,-15702.390669005923
1712814214076,-14090.764554481022
1712814214116,-12931.79649430979
1712814214156,-11433.245276202448
1712814214197,-10873.172679160722
1712814214236,-10515.832794444636
1712814214276,-11148.71569674369
1712814214317,-10459.380685971119
1712814214357,-10719.388969500083
1712814214398,-12747.588325475343
1712814214437,-11444.119406088721
1712814214477,-11566.75183629524
1712814214517,-13747.98037937656
1712814214557,-15934.913970538415
1712814214598,-14145.459628331475
1712814214638,-12619.129969375208
1712814214678,-9967.857465778012
1712814214718,-10113.444150471594
1712814214758,-12127.551741830539
1712814214799,-11958.621799437795
1712814214838,-9948.681860144716
1712814214878,-8105.327441339381
1712814214919,-6262.6006117668
1712814214959,-5346.786315849051
1712814215000,-5592.305875186808
1712814215039,-6388.123620023951
1712814215079,-7135.718155731447
1712814215119,-8820.240368193015
1712814215160,-9272.590181666426
1712814215200,-8597.57929020049
1712814215240,-8422.105859497562
1712814215280,-7683.57339169085
1712814215320,-7189.752963934094
1712814215360,-6814.4282916360535
1712814215401,-6117.752716799732
1712814215440,-5545.742336343043
1712814215481,-5123.623286649585
1712814215521,-3298.741109231487
1712814215561,-1085.2852008612826
1712814215602,-666.4655418982729
1712814215641,-1090.6306942594238
1712814215681,-765.2262183381245
1712814215722,-1071.6593110971153
1712814215762,-1364.1266259821132
1712814215803,-2003.3711584853008
1712814215842,-3359.527374193538
1712814215882,-4027.9778259396553
1712814215922,-3740.1081200679764
1712814215962,-2885.718346006237
1712814216003,-1480.1683145519346
1712814216043,-352.88084297068417
1712814216083,-731.4667132841423
1712814216123,-346.2230447428301
1712814216166,59.082238383591175
1712814216204,550.0056954449974
1712814216244,1514.3456428316422
1712814216284,2151.470313632861
1712814216324,2696.529457608238
1712814216364,2769.5423876801506
1712814216405,2661.368068039883
1712814216444,1400.3926996411756
1712814216485,-64.70023202244192
1712814216525,-730.2776059885509
1712814216565,-976.2766955127008
1712814216606,-1064.589743338991
1712814216645,-1098.6348041389138
1712814216685,-644.0403676489368
1712814216725,-252.36888588406146
1712814216765,620.4747959980741
1712814216806,622.4492079657502
1712814216846,1589.9262009402737
1712814216886,1698.4795193951577
1712814216926,2892.8146441811696
1712814216966,3750.9028484830633
1712814217007,4614.15171269374
1712814217046,4922.324827547651
1712814217086,4059.1909684846178
1712814217126,2856.306614235975
1712814217166,863.4266927223653
1712814217207,-859.8747291052714
1712814217247,-2139.7018067422323
1712814217287,-1877.530308034271
1712814217327,-1874.8498125215992
1712814217367,-1465.1852653604
1712814217408,-2210.0153016829863
1712814217447,-1493.1071811853908
1712814217487,-60.83421564567834
1712814217527,-1245.4399093957618
1712814217568,-2124.610260898713
1712814217608,-1970.4923120811582
1712814217648,-565.692682955414
1712814217688,1007.2445282563567
1712814217728,1656.8796319961548
1712814217768,-255.97071011643857
1712814217809,-3172.4854715610854
1712814217848,-5944.002703853417
1712814217888,-7080.9184792926535
1712814217929,-7715.5622427416965
1712814217969,-6793.206706080586
1712814218009,-6075.276228587143
1712814218049,-5883.569136495236
1712814218089,-6368.09139751317
1712814218129,-6215.466413403861
1712814218169,-5677.132829672657
1712814218210,-5520.063809260726
1712814218249,-4930.50469112955
1712814218290,-3923.6547544440255
1712814218330,-3036.20837017335
1712814218373,-2891.9931188458577
1712814218411,-2717.065463799052
1712814218450,-4394.296701760031
1712814218490,-5857.223618139047
1712814218530,-7213.008610960096
1712814218570,-8865.012909884565
1712814218611,-9050.456921238918
1712814218651,-8767.908395669423
1712814218691,-7142.303090701345
1712814218731,-7171.640033421107
1712814218771,-8077.369962735102
1712814218812,-6498.83965339046
1712814218851,-4480.335570784286
1712814218891,-3690.2059697131626
1712814218931,-3977.3917015222833
1712814218972,-4137.660194151569
1712814219013,-3999.2706743977033
1712814219052,-3308.8764490317553
1712814219092,-2286.55746017769
1712814219132,-2543.2549696881324
1712814219172,-4401.338905964978
1712814219213,-5438.570857117884
1712814219253,-7572.776915380731
1712814219293,-9322.592092145234
1712814219333,-8897.223368619103
1712814219373,-7265.155037196819
1712814219414,-7073.7578284167685
1712814219453,-7908.828022737987
1712814219493,-8075.884227447212
1712814219533,-5564.301173916552
1712814219573,-2806.812893481925
1712814219614,-2300.075224770233
1712814219654,-2672.03281201981
1712814219694,-3116.488065912854
1712814219734,-2791.2779378434643
1712814219774,-2662.1740674162284
1712814219815,-3671.57771308301
1712814219855,-5892.904755173251
1712814219895,-7382.4889556877315
1712814219935,-8158.769552975427
1712814219975,-8509.49980315892
1712814220013,-8314.582761131227
1712814220052,-7628.643674412742
1712814220092,-7168.051057053264
1712814220132,-8380.563355262857
1712814220173,-8154.747445461806
1712814220213,-6344.0580785069615
1712814220253,-4658.744574717246
1712814220293,-3043.594300164841
1712814220333,-2618.085975803435
1712814220373,-2864.01305666985
1712814220414,-3669.4405256239697
1712814220454,-3926.088882491924
1712814220494,-6352.447090353817
1712814220534,-7970.235752359033
1712814220574,-7224.85408853367
1712814220615,-7128.404077921528
1712814220654,-6553.372526399326
1712814220694,-6336.883501280099
1712814220735,-5264.978271356784
1712814220775,-4632.848639103584
1712814220816,-6265.834192578681
1712814220855,-7893.5942874625325
1712814220895,-7061.114843310788
1712814220935,-4154.050095516257
1712814220975,-1824.6733628045768
1712814221016,20.624818063806742
1712814221056,114.1715269354172
1712814221096,-654.7684303279966
1712814221136,-2004.224710045848
1712814221176,-3485.2725473260507
1712814221217,-5419.618176302873
1712814221257,-6180.0582263236865
1712814221297,-6591.667255836073
1712814221337,-6896.842560586985
1712814221377,-6688.944440399297
1712814221418,-4995.276997364126
1712814221457,-4542.525890438817
1712814221497,-4600.576366534457
1712814221538,-5239.38690507412
1712814221578,-4926.109566596337
1712814221619,-3472.4648756915703
1712814221658,-1512.9945665104315
1712814221698,-77.86185008380562
1712814221738,69.38410144206136
1712814221779,1621.5741835157387
1712814221819,1900.3753935443237
1712814221859,-322.23889005184174
1712814221899,-2726.3990205698647
1712814221939,-5476.79441050766
1712814221979,-6449.9293113602325
1712814222020,-6197.074536277447
1712814222059,-4925.584774224088
1712814222100,-4220.1000066054985
1712814222140,-4150.414624016732
1712814222180,-3928.911733988207
1712814222221,-3821.224265806377
1712814222260,-2856.2186638135463
1712814222300,-2569.1867369906977
1712814222340,-1609.7445728583261
1712814222381,-714.3619169490412
1712814222421,467.26413672510535
1712814222461,760.0631019813009
1712814222501,2722.4787357207388
1712814222541,3808.886030439753
1712814222581,3233.087783384137
1712814222622,2286.894336830359
1712814222661,-258.70072619011626
1712814222701,-1123.7238594307564
1712814222741,-1754.1552611300722
1712814222781,-2121.84303759411
1712814222822,-1759.571763058193
1712814222862,-1327.1195826656185
1712814222902,-1055.697774861008
1712814222942,-1143.2764536873437
1712814222982,-1258.9430174352601
1712814223023,-424.85506425611675
1712814223062,398.47198054380715
1712814223102,1691.8723317664117
1712814223142,2827.20177280996
1712814223182,3632.2405023989268
1712814223223,4443.429012301844
1712814223263,4882.735767018516
1712814223303,5008.818892995827
1712814223343,4296.018226928078
1712814223383,3856.207810923923
1712814223424,2128.3708037510514
1712814223463,80.17278101295233
1712814223503,-1226.4354836093262
1712814223543,-2903.999400280416
1712814223583,-3089.8319025561213
1712814223624,-3052.556255918462
1712814223663,-3144.8137411237694
1712814223704,-3468.9674527710304
1712814223744,-2584.0774650676176
1712814223784,-2458.0095440852456
1712814223825,-2781.5425257142633
1712814223864,-1749.621394939255
1712814223904,-1155.483631230425
1712814223944,738.9667216786183
1712814223984,1486.9770578090101
1712814224025,2172.7420864859596
1712814224065,1504.094325717073
1712814224105,-61.08340356964618
1712814224145,-2120.3077357001603
1712814224185,-3087.5811003972776
1712814224226,-3169.030280315783
1712814224265,-3390.880998159293
1712814224305,-3642.281558966264
1712814224345,-4062.6523842876777
1712814224386,-4067.492113346234
1712814224426,-3926.2513781925663
1712814224466,-3915.404757745564
1712814224506,-3356.041095933877
1712814224546,-2862.190320886206
1712814224586,-2012.2598230051808
1712814224627,-673.1191493249498
1712814224666,-687.9705706965178
1712814224706,449.7454994940199
1712814224747,1179.9688120167702
1712814224787,1690.4354076758027
1712814224828,1286.8186157876626
1712814224867,4.196735441684723
1712814224907,-1289.9277302743867
1712814224947,-2319.377139281947
1712814224987,-2532.488685874734
1712814225028,-2796.611239530146
1712814225068,-2704.1733878608793
1712814225108,-1900.945073689334
1712814225148,-2071.854273254052
1712814225188,-1850.2302151387557
1712814225229,-1312.2650568010285
1712814225268,-1555.201610690914
1712814225308,-490.7920645973645
1712814225349,1214.084467038978
1712814225389,2480.296799821779
1712814225430,4109.3364708409645
1712814225469,3827.580487260595
1712814225509,2982.259504881222
1712814225549,2516.9906679713167
1712814225589,1227.9404619177803
1712814225630,33.322144008241594
1712814225670,-920.6080745821819
1712814225710,-1463.734977944754
1712814225750,-594.0005812360905
1712814225790,57.41116782044992
1712814225831,259.435096972622
1712814225870,148.42305485531688
1712814225910,341.1831927159801
1712814225951,538.2341946903616
1712814225991,868.4437416289002
1712814226032,1812.6091356617399
1712814226071,2448.09233058244
1712814226111,3366.267605148256
1712814226151,4003.228875716217
1712814226191,2975.8363461182453
1712814226232,1487.936921239365
1712814226272,-1024.324313391
1712814226312,-2061.7039237841964
1712814226352,-821.7487316420302
1712814226392,-5776.864681100473
1712814226433,-25065.566739062313
1712814226473,-27965.024809463415
1712814226513,-25330.27666688012
1712814226553,-20839.863774753176
1712814226593,-3567.052479802165
1712814226634,608.7335700457916
1712814226673,14514.729196544737
1712814226713,23946.56201383751
1712814226754,31804.066490404308
1712814226794,31552.60121289827
1712814226835,28591.719648765866
1712814226874,22209.155326183885
1712814226914,25304.37248285394
1712814226954,16800.238551555667
1712814226994,12087.248668381013
1712814227035,-12087.140626135282
1712814227075,-3971.929236533586
1712814227115,19520.738121216185
1712814227155,52059.22545910347
1712814227195,82059.15072597656
1712814227236,50367.60986829363
1712814227275,36869.08193755662
1712814227316,41946.38282805495
1712814227356,45793.63124906225
1712814227396,35604.015172163025
1712814227437,35190.15203221422
1712814227476,45037.836453469004
1712814227516,7078.7354071242735
1712814227557,21630.85616028635
1712814227597,37575.87616611458
1712814227638,47713.4668427296
1712814227677,4950.9061419512145
1712814227717,-7292.744006946683
1712814227757,-13924.441749230027
1712814227798,-10407.032183122821
1712814227838,-13132.642047117464
1712814227878,-29035.36369611323
1712814227918,-33329.59288311051
1712814227958,-54289.335090508685
1712814227998,-73514.08558195736
1712814228039,-57936.052131208126
1712814228078,-70867.3510597609
1712814228118,-71137.57555688638
1712814228159,-97006.16029495001
1712814228199,-82320.84433696512
1712814228239,-66121.48619870842
1712814228279,-46225.326005411334
1712814228319,-5142.899691944011
1712814228359,11861.765959432349
1712814228399,16670.795769966207
1712814228440,8550.678162097
1712814228479,-17212.91047638096
1712814228519,17065.140096647665
1712814228559,32272.80846874742
1712814228600,14217.456874886993
1712814228640,9403.962675939314
1712814228680,23378.030260638334
1712814228720,14198.669800811447
1712814228760,15729.05772568006
1712814228800,47778.44379545376
1712814228841,64323.13562360499
1712814228880,58129.31262558326
1712814228920,70469.60399671458
1712814228960,102984.75910397898
1712814229001,121713.10085965693
1712814229041,130128.02474636724
1712814229081,109119.9570918451
1712814229121,95976.16846122965
1712814229161,83467.03334735427
1712814229201,69793.97462833207
1712814229242,68744.41270145308
1712814229281,79612.4020650317
1712814229321,52256.8727578558
1712814229361,63478.21539445594
1712814229401,54378.82526342524
1712814229442,88596.3728001169
1712814229482,76568.8616103651
1712814229522,78210.03653471032
1712814229562,79011.18733561039
1712814229602,79897.25790646998
1712814229643,68941.93314134981
1712814229682,56665.51010479778
1712814229722,49335.77594482899
1712814229762,51748.403447899036
1712814229802,58368.882278985344
1712814229843,61499.10258970503
1712814229883,68229.8345599547
1712814229923,64360.118868332356
1712814229963,65763.87640360929
1712814230003,84602.59613787849
1712814230044,76539.34240352502
1712814230083,66498.84818011522
1712814230123,47913.5897280667
1712814230163,34302.2136949976
1712814230203,1038.622327761259
1712814230244,-7960.718359772116
1712814230284,-15515.142447391525
1712814230324,-28474.201276538428
1712814230364,-27746.70146396011
1712814230404,-25388.62611424364
1712814230445,-19660.92922577355
1712814230484,-11490.450379014015
1712814230524,-10780.220037799329
1712814230565,-13499.645503605716
1712814230605,-12531.916544978973
1712814230645,-16337.955777430441
1712814230685,-10008.234457684215
1712814230725,-9662.378335072659
1712814230765,-11050.423860049807
1712814230805,-9996.592518906109
1712814230846,-11626.717148183845
1712814230885,-14865.769473378547
1712814230926,-14540.487845150288
1712814230966,-19228.066145221703
1712814231006,-17062.143512780312
1712814231047,-13576.53692143783
1712814231086,-18597.477959936485
1712814231126,-18144.904595151078
1712814231166,-15799.836889001075
1712814231206,-11391.61172936717
1712814231247,-9757.458125654142
1712814231287,-12285.40728019178
1712814231327,-8032.60828911094
1712814231367,-8176.050499197096
1712814231407,-6687.693403981626
1712814231447,-11469.52654931508
1712814231487,-25768.474183787126
1712814231527,-24693.91392738279
1712814231567,-21297.98586247675
1712814231607,-32512.573933092877
1712814231648,-49815.268119983375
1712814231688,-63006.68169076461
1712814231728,-65280.7558083199
1712814231768,-76217.3915074016
1712814231808,-64950.9207753432
1712814231849,-49223.38306834921
1712814231888,-38332.20516778715
1712814231928,-41372.5626876154
1712814231968,-26218.64646964241
1712814232009,-22497.474309730344
1712814232048,-23640.70572709851
1712814232088,-11191.013650179375
1712814232128,-7816.620877762791
1712814232168,-4201.540615948848
1712814232208,-43403.88772093505
1712814232249,-41268.15878516715
1712814232288,-39724.07822931837
1712814232329,-33459.01769131981
1712814232369,-22231.952468824107
1712814232409,-23219.34323843103
1712814232450,-25534.669830777682
1712814232489,-24681.74129977962
1712814232529,-21091.629538898356
1712814232569,-13732.823886503465
1712814232610,-10411.146078093909
1712814232651,-4346.05654557934
1712814232690,-1191.9283606633544
1712814232730,2214.057130554691
1712814232770,13947.362202202901
1712814232810,14813.707753893454
1712814232851,11817.342475991696
1712814232891,24641.415142391343
1712814232931,39920.410933911335
1712814232971,53838.01825056411
1712814233011,56418.71075880341
1712814233052,64311.72900260426
1712814233092,53600.30230253283
1712814233132,39282.12209493201
1712814233172,26118.289925954305
1712814233212,25960.273380367085
1712814233253,9764.815039069857
1712814233292,9090.961135367863
1712814233332,10094.20623796247
1712814233372,-1171.8369695814326
1712814233413,-3920.247358988039
1712814233454,-7833.853394056205
1712814233493,31426.184972964693
1712814233533,29131.227823165245
1712814233573,22546.436606264673
1712814233613,18265.080939394422
1712814233654,13004.473503786605
1712814233694,15735.924328050576
1712814233734,21245.46546773892
1712814233774,23628.306350500323
1712814233814,22690.695789373945
1712814233855,21228.185684367083
1712814233894,19339.045949744992
1712814233935,18982.13309567049
1712814233975,18439.72247570008
1712814234015,19498.259787206538
1712814234056,20155.244634338655
1712814234095,22566.372665067203
1712814234135,23278.45251209382
1712814234175,22100.531953647267
1712814234216,19290.50428358745
1712814234256,17088.57979404833
1712814234296,14904.268511518836
1712814234336,13935.25688943686
1712814234376,13859.393248330802
1712814234416,13705.907496914268
1712814234457,12319.890689839609
1712814234496,11488.644248459022
1712814234536,10763.423848259263
1712814234576,11313.211170998402
1712814234616,10807.779909521341
1712814234657,12058.77190715354
1712814234697,12000.642637032084
1712814234737,12988.66478094086
1712814234777,13423.753043818288
1712814234817,13580.632285195403
1712814234858,12238.718901594635
1712814234897,9153.590905103832
1712814234937,7917.786802814808
1712814234977,6536.030298023485
1712814235018,5419.901956352405
1712814235058,4440.134782273788
1712814235098,3881.189574918244
1712814235138,3734.9077928955667
1712814235178,3667.6454704748467
1712814235218,4222.488063292578
1712814235259,3604.9236075803638
1712814235298,3618.4178536883555
1712814235338,3952.870908372104
1712814235378,4420.345338420477
1712814235418,5640.684632301796
1712814235459,6798.928287118673
1712814235499,5625.618706404697
1712814235539,3655.6108295088634
1712814235579,1812.5534914815798
1712814235619,313.69456146936864
1712814235660,-1434.7525126063265
1712814235699,-2381.7160348836333
1712814235739,-1319.8535275254399
1712814235779,-999.6094700060785
1712814235819,-233.14564475603402
1712814235860,-915.6862411894836
1712814235900,211.50050064362586
1712814235940,-478.6402016011998
1712814235980,336.1304537560791
1712814236020,1005.6809499608353
1712814236061,1010.989283583127
1712814236100,1228.0281756268814
1712814236140,1350.0143321510404
1712814236181,2133.672823363915
1712814236221,836.393248740118
1712814236261,-953.2277378696017
1712814236301,-2022.0738760326058
1712814236341,-3149.5329670100473
1712814236381,-3436.930357917212
1712814236421,-3412.5056373691186
1712814236462,-3528.6439133835956
1712814236501,-3740.7281781653874
1712814236541,-3590.4867739574984
1712814236582,-3225.702089427039
1712814236622,-2753.6502338647842
1712814236662,-2176.3442097082734
1712814236702,-1667.3978221863508
1712814236742,-626.6229667002335
1712814236782,207.105813248083
1712814236822,1175.7831406146288
1712814236863,1739.3259527166374
1712814236902,1576.1956785628572
1712814236943,-117.44668002892286
1712814236983,-1033.6755294157192
1712814237023,-2931.154532247223
1712814237064,-4089.8976621697657
1712814237103,-4725.119825513102
1712814237143,-4745.748971911147
1712814237183,-4674.321161532775
1712814237223,-4639.167192382272
1712814237264,-4267.526200356893
1712814237304,-4794.534393308684
1712814237344,-3855.7425319999456
1712814237384,-3386.4693429218605
1712814237424,-2120.985758784227
1712814237465,-1013.1110006212257
1712814237504,-813.0867113452405
1712814237545,241.22178206965327
1712814237584,-658.2697656881064
1712814237625,-2038.381254678592
1712814237666,-3794.566522603389
1712814237705,-5229.520437167957
1712814237745,-6384.552062381059
1712814237785,-6179.535344912671
1712814237825,-5237.598441553302
1712814237866,-5253.523115288466
1712814237906,-4811.852067559026
1712814237946,-4731.900167812593
1712814237986,-4434.965975014493
1712814238026,-4003.2049601431936
1712814238067,-3539.6604259251617
1712814238106,-2630.234430790879
1712814238146,-1522.026091054082
1712814238186,-1250.6735034380108
1712814238226,-873.3038168950006
1712814238267,-2606.926126726903
1712814238307,-4725.870380087756
1712814238347,-5920.2119674589485
1712814238387,-7232.697941527236
1712814238427,-7449.262577233836
1712814238468,-7267.784641777165
1712814238508,-7004.097777494229
1712814238548,-6355.014447511639
1712814238588,-5439.081089909188
1712814238628,-4794.038197556045
1712814238668,-4525.455229010433
1712814238708,-3363.8536044126377
1712814238748,-2351.1831762506627
1712814238788,-1037.4586624200456
1712814238828,1.5948132006451488
1712814238869,908.7879027081653
1712814238909,155.86869849450886
1712814238949,-1493.6243352480233
1712814238989,-2987.4229465564713
1712814239029,-4181.589557396248
1712814239070,-5538.408904869109
1712814239109,-6193.250265739858
1712814239149,-6033.782344410196
1712814239189,-5996.665260801092
1712814239230,-5987.904834644869
1712814239270,-5398.923547307029
1712814239310,-5514.2061886470765
1712814239350,-3891.7333954824135
1712814239390,-3177.875973631162
1712814239430,-2165.5568078709766
1712814239471,-848.3251869222149
1712814239510,-56.74325334280729
1712814239551,-246.2386346757412
1712814239591,-748.7904558177106
1712814239631,-2844.963403856382
1712814239672,-4342.206021883991
1712814239711,-6163.476177751087
1712814239751,-6148.18176364433
1712814239791,-5407.485355056357
1712814239832,-5716.153087009676
1712814239873,-5530.506557152607
1712814239912,-5096.56504881382
1712814239952,-4508.174543585163
1712814239992,-4259.598731112666
1712814240032,-4088.671050586272
1712814240073,-3823.492743294686
1712814240113,-2495.432821211405
1712814240153,-1402.0159281119704
1712814240193,106.37050355039537
1712814240233,-134.9913823166862
1712814240274,-2152.28848758433
1712814240313,-3660.011120285839
1712814240353,-5548.654247905593
1712814240394,-6513.0672199423425
1712814240434,-6126.291604223661
1712814240474,-6091.638611561153
1712814240514,-5477.703441299964
1712814240554,-5488.801909205504
1712814240594,-5289.679279180244
1712814240634,-5393.461000483017
1712814240675,-4519.561135889962
1712814240714,-3477.0283344271593
1712814240754,-2834.687248399481
1712814240794,-1804.9189453464933
1712814240834,-510.4725780948065
1712814240875,156.843256005086
1712814240915,551.0999343772419
1712814240955,-226.3961176974699
1712814240995,-1937.9264692608267
1712814241035,-4186.636110979598
1712814241076,-5764.101626711898
1712814241115,-6653.970498672221
1712814241155,-6701.77789334394
1712814241195,-6978.926846885122
1712814241235,-6844.4932035487145
1712814241276,-6565.598957397975
1712814241316,-6201.231231958605
1712814241356,-5460.734419902787
1712814241396,-5236.293633341789
1712814241436,-4211.952771721408
1712814241477,-3416.8261808417737
1712814241516,-2442.007901074365
1712814241556,-1218.3655099137686
1712814241596,-1106.2055003945716
1712814241637,-602.0293039199896
1712814241677,-2032.4290735628456
1712814241717,-4169.749279879499
1712814241757,-5508.134093155153
1712814241797,-6366.825548059307
1712814241837,-6835.525382296648
1712814241878,-6318.588735308498
1712814241917,-5826.428881835192
1712814241958,-5637.46187763894
1712814241998,-5658.808524324559
1712814242038,-5390.9559912756085
1712814242079,-4985.143287781626
1712814242118,-4352.70401997678
1712814242158,-3469.3316581100225
1712814242198,-2084.8647211566567
1712814242239,-1880.472674109973
1712814242279,-5.704680310562253
1712814242319,958.6314898207784
1712814242359,1012.0019835690036
1712814242399,872.845493640285
1712814242439,-1445.0573023743927
1712814242480,-2897.9799141767435
1712814242519,-3550.521579353139
1712814242559,-3045.561319622677
1712814242600,-2671.4857892738655
1712814242640,-2896.748504961841
1712814242680,-2058.9755051741377
1712814242720,-1902.7223509945907
1712814242760,-1348.466322299093
1712814242800,-509.0995582868345
1712814242840,-177.11964110657573
1712814242881,1738.4430002225563
1712814242921,2972.2280297586694
1712814242961,4892.659234689549
1712814243001,5644.300263657235
1712814243041,4684.59316798998
1712814243082,2922.5441906652413
1712814243121,1669.815494322218
1712814243161,459.59469568077475
1712814243202,-282.3203691197559
1712814243242,-1325.171157572884
1712814243282,-1217.6408840427175
1712814243322,-529.1499428125098
1712814243362,68.8760863575153
1712814243402,1222.0732879526913
1712814243442,1535.5339091951028
1712814243483,2920.292809288949
1712814243523,4001.968509114813
1712814243563,3929.541381116491
1712814243603,4388.051573466975
1712814243643,5403.2262774254195
1712814243684,5731.068504548632
1712814243723,6778.893384936266
1712814243763,7501.475813986734
1712814243804,6338.2934895087965
1712814243844,4187.313415150158
1712814243884,2488.6607718104497
1712814243924,2156.22911967244
1712814243964,1446.931420430541
1712814244004,1403.1461139284074
1712814244044,1588.6886099106632
1712814244086,1382.9436340574175
1712814244125,2376.1821207734756
1712814244166,2929.7253511794843
1712814244206,3648.9112465819344
1712814244246,3137.9911799775437
1712814244287,4299.5465403860435
1712814244326,5954.630124043673
1712814244366,6956.568042730447
1712814244407,7223.61786272563
1712814244447,9426.920140257105
1712814244487,9432.516553024761
1712814244527,10036.403084477875
1712814244567,8102.9537887293845
1712814244607,5302.875423322897
1712814244647,4130.370987414848
1712814244688,2666.7823615185916
1712814244728,4295.070286878385
1712814244768,3501.606747502461
1712814244808,3314.706913422793
1712814244848,2943.6311353980564
1712814244889,3406.325379598886
1712814244928,3161.9724351903424
1712814244968,4111.473419901915
1712814245009,4272.72808026569
1712814245049,5153.834139193408
1712814245089,7217.153521702625
1712814245129,8050.053636712953
1712814245169,9490.986018151045
1712814245209,9325.170209391974
1712814245250,8097.2995431618765
1712814245290,6010.538859243505
1712814245330,3922.761563291773
1712814245370,3454.7055957783014
1712814245410,2783.6383869554847
1712814245450,2939.141088391654
1712814245491,2719.663801061921
1712814245530,3739.552303051576
1712814245571,3666.7170172436163
1712814245611,3167.6144670369104
1712814245651,3284.528555629775
1712814245692,3523.0510576302186
1712814245731,2872.3393966816366
1712814245771,3634.1837812252343
1712814245811,3498.6126992409118
1712814245852,4486.996182994917
1712814245893,5639.806384438649
1712814245932,5934.680950582027
1712814245972,4649.178127571009
1712814246012,1606.668465564493
1712814246052,-2048.0842329827137
1712814246093,-2785.222449854482
1712814246133,-2317.9035627408884
1712814246173,-3043.456093961373
1712814246213,-3374.249921807088
1712814246253,-3018.650091648102
1712814246293,-2899.9315302483737
1712814246333,-3355.116037656553
1712814246373,-5269.281892076135
1712814246413,-4163.101431959309
1712814246453,-3755.340087881312
1712814246494,-3427.5508539485745
1712814246533,-2963.7689504427835
1712814246574,-2571.544697682373
1712814246613,-1217.3024327917956
1712814246654,-1628.1655338224955
1712814246695,-3571.1430468987674
1712814246734,-5976.747818695381
1712814246774,-8343.57038617786
1712814246814,-9736.157339581288
1712814246854,-10175.799589870498
1712814246895,-9904.941002189182
1712814246934,-9909.108298595529
1712814246974,-9345.792607912794
1712814247014,-8953.21931460686
1712814247055,-8734.96865038015
1712814247095,-8747.168348583393
1712814247135,-8453.921227818355
1712814247175,-7340.246138744988
1712814247215,-7061.642634643707
1712814247255,-5790.73439294938
1712814247296,-4977.198739549611
1712814247335,-5160.439115574583
1712814247375,-5282.48563234508
1712814247416,-7152.433696644381
1712814247455,-8968.934976298362
1712814247496,-9990.414664905984
1712814247536,-11032.884303939063
1712814247576,-10108.91040550964
1712814247616,-9610.541153030004
1712814247656,-7992.176908057649
1712814247697,-8592.654772282578
1712814247736,-8021.9143376126885
1712814247776,-7560.638838076033
1712814247816,-6931.57555625122
1712814247857,-5607.794592172839
1712814247897,-4835.805503751151
1712814247937,-4077.254553063307
1712814247977,-2848.6341540156864
1712814248017,-2683.818422034383
1712814248057,-5087.447697815485
1712814248098,-6827.926409969106
1712814248137,-8538.640153460205
1712814248177,-9832.749401158653
1712814248218,-9618.517060931772
1712814248258,-10039.204486707691
1712814248298,-10429.296419966035
1712814248338,-10076.208349517547
1712814248378,-9283.613010594621
1712814248418,-8377.657443393022
1712814248458,-7784.904065082781
1712814248499,-5838.307310751174
1712814248538,-4178.362167895772
1712814248578,-2711.7325447369367
1712814248619,-466.6645599035546
1712814248659,586.2315280977637
1712814248699,278.72621895745397
1712814248739,-1151.707283988595
1712814248779,-3321.5259619639255
1712814248819,-5119.390005044639
1712814248859,-6916.716310182586
1712814248900,-7202.696280808188
1712814248940,-7881.67626290489
1712814248980,-7498.957113360055
1712814249020,-6865.198291149922
1712814249060,-5367.890319764148
1712814249101,-4751.910786730237
1712814249140,-3960.05391792953
1712814249180,-3180.26733637508
1712814249221,-1893.2689586821944
1712814249261,-632.1954885870218
1712814249301,391.66118256933987
1712814249341,1828.9992724279873
1712814249381,1428.9168485356495
1712814249421,94.29810954723507
1712814249461,-1911.1201081858017
1712814249502,-4104.124138784595
1712814249541,-5173.660121099092
1712814249582,-5025.7884953981265
1712814249622,-5581.945890902542
1712814249662,-5011.033129731193
1712814249703,-4784.597315762192
1712814249742,-4721.752152883448
1712814249782,-4008.6914541912265
1712814249822,-3572.482292681467
1712814249862,-2372.853244408034
1712814249903,-1497.6357366023585
1712814249943,-434.6657560421154
1712814249983,921.2547995541245
1712814250023,1583.8996904953383
1712814250063,3400.603969889693
1712814250104,3811.463640982751
1712814250143,2474.4522289186716
1712814250183,929.1538561419584
1712814250223,-590.8848963789642
1712814250264,-1232.0886646034196
1712814250304,-1606.299241525121
1712814250344,-1664.8063866933808
1712814250384,-597.6995922625065
1712814250424,-278.85120774712414
1712814250464,616.7336423425004
1712814250505,1658.8583481730893
1712814250545,2326.3449270194396
1712814250585,3420.0680969711393
1712814250625,4999.142088025808
1712814250665,6082.907037008554
1712814250706,7625.997307681013
1712814250745,9103.806138403248
1712814250785,10226.397585080937
1712814250825,11442.25612763362
1712814250865,11327.575001389254
1712814250906,10318.088410465978
1712814250946,8549.475262048189
1712814250986,6897.5557867940515
1712814251026,6823.792083338834
1712814251066,6650.049561326858
1712814251107,7448.575302485377
1712814251146,7315.69031161163
1712814251186,7703.691142829135
1712814251227,7497.695003534667
1712814251267,7519.458197671454
1712814251307,8587.352681886405
1712814251347,9621.237555833533
1712814251387,10830.443607271183
1712814251427,11758.16612922214
1712814251467,12498.704067923594
1712814251508,13429.67429064028
1712814251548,14264.790164650884
1712814251588,15642.336278618313
1712814251628,15170.784796779044
1712814251668,13341.249762430787
1712814251709,11071.587617378682
1712814251748,9940.739924001042
1712814251788,8879.612560465932
1712814251829,8553.16284474358
1712814251869,8622.54634431284
1712814251910,9267.208728703205
1712814251949,9387.670538825449
1712814251989,9314.363260081038
1712814252029,9180.04798908066
1712814252069,8734.97059839964
1712814252110,8861.060337905772
1712814252150,9679.130370063707
1712814252190,9096.086571424734
1712814252230,10279.190547296777
1712814252270,10607.100348814856
1712814252311,11466.022039453499
1712814252350,12452.743824078701
1712814252390,12925.556087821722
1712814252430,12050.072537762113
1712814252471,10479.56108908169
1712814252511,9083.683956967667
1712814252551,8016.243283265736
1712814252591,7536.693605685607
1712814252631,7053.977608456276
1712814252671,7062.757716787048
1712814252712,7142.728757819161
1712814252751,7195.257533536293
1712814252791,7225.639856603928
1712814252832,7640.987273802981
1712814252871,7223.187567229848
1712814252912,7584.169274404645
1712814252952,8123.540989164263
1712814252992,9081.46772532072
1712814253032,9228.63913018722
1712814253072,9330.594942296855
1712814253113,10507.971983955707
1712814253152,9704.122933096252
1712814253192,7461.914622230455
1712814253232,6117.9624042594805
1712814253272,4919.566599693149
1712814253313,4711.331742910668
1712814253353,6062.643698066007
1712814253393,6066.281288364902
1712814253433,5352.525265675038
1712814253473,5894.756760888733
1712814253514,5152.98953875294
1712814253553,5575.893713145517
1712814253593,6083.298713281751
1712814253634,6214.45652214624
1712814253674,6243.217745398171
1712814253714,7040.409912798554
1712814253754,7409.106344969943
1712814253794,8521.665433685295
1712814253834,9027.680206028745
1712814253874,7709.485187555663
1712814253915,6216.884338572621
1712814253954,4859.023859845009
1712814253994,3358.114981483668
1712814254035,2515.362965481356
1712814254075,2498.3550894521177
1712814254116,2540.561892259866
1712814254155,2443.30287880823
1712814254195,2584.552708009258
1712814254235,1854.9373859735206
1712814254276,1629.6241486906074
1712814254316,2494.043465490453
1712814254356,3136.2736817523837
1712814254396,2824.0831947042607
1712814254436,3571.608948994428
1712814254476,4394.226714054123
1712814254517,4194.939041315112
1712814254556,3173.2884899894707
1712814254596,1138.3310939446092
1712814254636,-1774.4916089144535
1712814254676,-3233.0739993345924
1712814254717,-3727.4869299470447
1712814254757,-3690.0081465775147
1712814254797,-3813.238106866367
1712814254837,-3536.2007170952857
1712814254877,-3843.473741502501
1712814254918,-3676.913878223859
1712814254957,-3243.4010417792015
1712814254997,-3040.6536079263315
1712814255038,-2516.042863880284
1712814255078,-1660.74584591249
1712814255119,-1258.447195190005
1712814255158,408.2321160323918
1712814255198,411.36844282737
1712814255238,-1758.2337494473904
1712814255278,-3689.0114601803944
1712814255319,-5929.128366241232
1712814255359,-7086.399620115757
1712814255399,-8263.78480338445
1712814255439,-8392.144867036492
1712814255479,-8582.809587283991
1712814255520,-7943.762624939904
1712814255559,-7322.996537940577
1712814255599,-7632.129885499366
1712814255639,-7543.721362169832
1712814255679,-5917.4513307898305
1712814255720,-4859.33105398668
1712814255760,-4111.535495284013
1712814255800,-2806.6953237163834
1712814255840,-1866.7168323122896
1712814255880,-564.4515031538904
1712814255921,933.6478094016202
1712814255961,-544.3896124297753
1712814256001,-2956.118041731883
1712814256041,-4428.516070012003
1712814256081,-5947.928778006695
1712814256123,-7191.548855597153
1712814256162,-7508.251038223971
1712814256202,-7404.629397243261
1712814256242,-7330.524036765099
1712814256283,-7042.411191759165
1712814256324,-6882.938475043047
1712814256363,-6717.297559267841
1712814256403,-5961.812237724662
1712814256443,-5781.15804475965
1712814256483,-4208.838238671888
1712814256524,-2269.8627868574113
1712814256564,-1016.3808862823062
1712814256604,926.2881136871874
1712814256644,1960.271089386195
1712814256684,2986.661833995953
1712814256725,2520.9315305501223
1712814256765,904.1952940812334
1712814256805,-1387.7093424070626
1712814256845,-3154.0823918129317
1712814256885,-4380.684189618565
1712814256926,-4793.615675620269
1712814256965,-5141.443468723912
1712814257006,-5513.218521750066
1712814257046,-5525.046527899802
1712814257086,-5522.736328631174
1712814257127,-5350.408409978263
1712814257166,-5134.314115616027
1712814257206,-4898.327165802941
1712814257246,-4017.930793507956
1712814257287,-2516.5527249034494
1712814257327,-1672.6985302027315
1712814257367,-379.2349432464689
1712814257407,277.3971072579734
1712814257447,2064.721890636254
1712814257487,2835.0121178422123
1712814257528,3937.5896698236465
1712814257568,4296.210652235895
1712814257608,3266.5981887811795
1712814257648,1731.6937198187225
1712814257688,-131.75591478776187
1712814257729,-862.6363881984726
1712814257769,-1737.868320955895
1712814257809,-960.3873801557347
1712814257849,-1140.3995140902698
1712814257889,-1550.8755552740768
1712814257930,-1228.6948014940135
1712814257969,-916.7802239772864
1712814258010,556.3602151433006
1712814258049,1161.048110073898
1712814258089,2391.7058081151918
1712814258130,4005.7711852309294
1712814258170,4621.794173979666
1712814258210,5688.967646224424
1712814258250,5999.042064324021
1712814258290,6783.450516270939
1712814258331,7901.150043448433
1712814258370,8973.29173945263
1712814258410,8846.382227733731
1712814258450,7190.526556180324
1712814258491,5478.395970368758
1712814258531,4065.6844988949597
1712814258571,3030.929450967349
1712814258611,2026.3470648028888
1712814258651,2120.8325873012654
1712814258691,3215.9211646756157
1712814258732,2840.4318976630457
1712814258771,2880.7963548311964
1712814258811,3232.371801385656
1712814258852,3840.3590368255973
1712814258892,4360.733235042542
1712814258932,4200.365537056234
1712814258972,5491.562199854758
1712814259012,5585.652632779442
1712814259052,6765.077803451568
1712814259092,7268.726773990318
1712814259133,7948.298546464648
1712814259172,8829.860797790345
1712814259213,9309.371069757268
1712814259253,9927.727468994446
1712814259293,9549.883009550162
1712814259334,8308.870544442907
1712814259373,6008.1573765832
1712814259413,4443.65004386846
1712814259453,3806.262639435008
1712814259493,2962.0037053860724
1712814259534,2859.9127519326285
1712814259574,3120.417196471244
1712814259614,3174.716245980002
1712814259654,2535.316329427995
1712814259694,2711.298058198765
1712814259735,2704.2895955676213
1712814259774,3391.0347215030342
1712814259814,4137.71616444923
1712814259854,4969.562665675767
1712814259894,5962.226309352554
1712814259935,6694.593259021174
1712814259975,7458.798358156346
1712814260015,8185.822205957491
1712814260055,8763.351462553721
1712814260095,9461.860501484945
1712814260136,8979.247437087353
1712814260175,7672.91116279643
1712814260215,6145.366046054289
1712814260255,5184.533609701786
1712814260296,4875.956125486642
1712814260336,4417.379733151756
1712814260376,4124.752308623865
1712814260416,4714.75142259337
1712814260456,4441.584676351864
1712814260496,4517.6245629223995
1712814260537,3892.3427470736206
1712814260576,4497.793195018545
1712814260616,4514.125663975719
1712814260657,5174.890986876562
1712814260697,5465.593452076428
1712814260737,6197.873253741302
1712814260777,6722.680399757344
1712814260817,7217.364346155897
1712814260857,8129.052563262172
1712814260897,8382.045985028148
1712814260938,8810.660351341125
1712814260977,7203.121343313716
1712814261018,5554.8882504054345
1712814261058,3711.5589516516775
1712814261098,2797.753790461924
1712814261139,2220.5447415653616
1712814261178,2319.1996602788568
1712814261218,2143.5247276835144
1712814261258,1212.1792633924633
1712814261298,1474.236732000485
1712814261339,1191.0558690251783
1712814261379,984.6153049478307
1712814261419,853.965935756918
1712814261459,1125.326688164845
1712814261499,2283.868451902643
1712814261540,2860.6412140061148
1712814261579,3338.6275883493945
1712814261620,3715.636992942542
1712814261660,4759.859696607105
1712814261700,5468.9257989209145
1712814261741,6338.071558932774
1712814261780,5582.564858740196
1712814261820,4291.91508192569
1712814261860,1738.6858400758356
1712814261900,698.9800210501999
1712814261941,-781.8819620879367
1712814261981,-1317.123526448384
1712814262021,-1382.5439407927915
1712814262061,-1291.8363767163828
1712814262101,-800.5397775950842
1712814262142,-1124.6922321803868
1712814262181,-1434.8034610552713
1712814262222,-1110.3323637619615
1712814262262,-436.02337183617055
1712814262302,309.8197870142758
1712814262343,1281.4225785764866
1712814262382,2017.5900983973406
1712814262422,2282.887331753038
1712814262462,2709.607207355555
1712814262502,3537.6300002494827
1712814262543,4930.008761920035
1712814262583,5224.321012641769
1712814262623,6253.781963050365
1712814262663,4978.950454602949
1712814262703,3548.914714705199
1712814262744,1910.4329380765557
1712814262783,278.94896171055734
1712814262824,-1000.9731749710627
1712814262864,-1721.1851306552999
1712814262904,-1760.3034145785496
1712814262945,-1974.7039829362184
1712814262984,-2875.3546016756445
1712814263024,-3124.549834421836
1712814263065,-2858.518931929022
1712814263105,-2300.6245787697844
1712814263145,-1253.2958252271637
1712814263185,-575.0287594166584
1712814263225,625.4842036152259
1712814263265,1395.6637154677883
1712814263306,2479.8126060618088
1712814263346,2709.707382658962
1712814263386,3268.248318807222
1712814263426,4252.495453907177
1712814263466,5569.092089954764
1712814263506,5710.678585547954
1712814263547,4039.8610215773806
1712814263586,2110.3264590734616
1712814263627,-44.9971664743498
1712814263667,-2019.8923750603572
1712814263707,-2605.4513532747515
1712814263748,-2912.669663065113
1712814263787,-3442.7290220335126
1712814263827,-4011.8597608469427
1712814263867,-4196.459537004121
1712814263908,-4607.686565134674
1712814263948,-4239.123913943768
1712814263988,-4127.444735974073
1712814264028,-3509.568498574663
1712814264068,-3002.5598958926275
1712814264108,-2098.1509991204366
1712814264149,-828.1078869164921
1712814264188,-168.0494654327631
1712814264228,391.7373521877453
1712814264268,1441.6583296610042
1712814264308,2030.3816431858577
1712814264349,2897.6174027444795
1712814264389,2043.966738415882
1712814264429,-96.67908782791346
1712814264469,-2866.2728646253236
1712814264509,-4646.347108033486
1712814264550,-5689.235182846896
1712814264589,-6901.796496103983
1712814264629,-6705.427093943115
1712814264669,-7318.357836902607
1712814264709,-7843.537877048831
1712814264750,-8425.405729572289
1712814264790,-8555.325870236848
1712814264830,-8332.532905815635
1712814264870,-7836.935564718209
1712814264910,-7174.469971305691
1712814264951,-6217.250941320322
1712814264990,-5692.3888460421
1712814265030,-4704.011049118824
1712814265070,-3770.7356363716535
1712814265111,-2584.2497395332903
1712814265151,-1350.3363068886101
1712814265191,-874.7366144023836
1712814265231,-1631.7207536203787
1712814265271,-3841.2506449003704
1712814265311,-6590.530379889067
1712814265352,-8630.39874094259
1712814265391,-10547.822882700711
1712814265431,-11662.530154707376
1712814265472,-12178.15483233612
1712814265512,-12293.262223364785
1712814265552,-12841.473950221203
1712814265592,-12847.709838647395
1712814265632,-12768.94476719806
1712814265672,-12369.256600850727
1712814265712,-12280.07433899492
1712814265753,-11341.476766251959
1712814265792,-10846.871788393706
1712814265833,-10164.968144017737
1712814265873,-9452.421025029384
1712814265913,-8811.635652268305
1712814265954,-7523.32409484731
1712814265993,-7131.190821941011
1712814266033,-7556.65046295803
1712814266073,-9179.521869997028
1712814266113,-11426.786300291773
1712814266154,-13427.415723632555
1712814266194,-14526.219184338115
1712814266234,-15063.070381520782
1712814266274,-15061.69450246077
1712814266314,-15420.455520207062
1712814266355,-15710.652911043726
1712814266394,-16181.826932760887
1712814266434,-16220.824172491208
1712814266474,-15572.80076693464
1712814266514,-14882.364695664495
1712814266555,-13661.548888651188
1712814266595,-12353.151411548257
1712814266635,-11293.720568237826
1712814266675,-9950.1079615294
1712814266715,-8956.516740703024
1712814266756,-7170.74916330073
1712814266795,-7076.864804323297
1712814266835,-8167.603551517241
1712814266875,-10221.340056013316
1712814266916,-12903.31181009626
1712814266956,-13862.222992441151
1712814266996,-14074.640565474983
1712814267036,-13666.082949463278
1712814267076,-13802.722289649304
1712814267116,-14074.827592674643
1712814267157,-13507.31097898446
1712814267196,-13655.636122712865
1712814267236,-13652.393280840479
1712814267277,-12995.974151926115
1712814267317,-12274.933199962601
1712814267358,-11338.334721462801
1712814267397,-10547.391774511896
1712814267437,-9473.703000245616
1712814267477,-8485.246576960199
1712814267518,-8117.480205791071
1712814267558,-9839.410192055162
1712814267598,-11448.082478811964
1712814267638,-13656.82180188736
1712814267678,-14256.5838721646
1712814267718,-14476.493669221643
1712814267759,-14663.227435362525
1712814267798,-14283.763197574764
1712814267838,-14506.812525630929
1712814267879,-14389.348493223079
1712814267919,-14123.98171171546
1712814267960,-12918.451598125044
1712814267999,-12328.791343123652
1712814268039,-11649.939489733428
1712814268079,-10799.12890306767
1712814268119,-10065.368716433644
1712814268159,-9098.824555909727
1712814268199,-7236.738507952541
1712814268239,-7419.181277983822
1712814268279,-8582.320386983454
1712814268319,-10898.451189419255
1712814268360,-12156.361513240263
1712814268399,-13158.506856027525
1712814268439,-13276.066710201092
1712814268480,-12318.56978256395
1712814268520,-11286.364092953503
1712814268560,-10775.417544870637
1712814268600,-10177.465116433334
1712814268640,-10413.422685311176
1712814268680,-9157.838542491663
1712814268721,-7553.735283459537
1712814268761,-6597.173438439146
1712814268801,-5226.897881491575
1712814268841,-3854.6967845042236
1712814268881,-2848.390499709174
1712814268921,-1525.4732054895721
1712814268962,-2562.399603988044
1712814269001,-4506.659243226517
1712814269041,-6489.004812685773
1712814269082,-8021.604171415791
1712814269122,-8850.744195869192
1712814269162,-8917.274353055283
1712814269202,-8431.800952807069
1712814269242,-8414.685941028409
1712814269282,-7776.306218786165
1712814269322,-7576.47690620739
1712814269363,-6673.863871404901
1712814269403,-5203.473208492622
1712814269443,-3702.897557353601
1712814269483,-2633.805724629201
1712814269523,-1165.6444551665336
1712814269564,-382.5621686447412
1712814269603,1416.1514852037653
1712814269643,2929.754405905027
1712814269684,4166.104724622332
1712814269724,3110.52137464704
1712814269765,752.2952603371814
1712814269804,-1626.320892243646
1712814269844,-3104.7362699387595
1712814269884,-4090.018642683048
1712814269925,-4183.17033564765
1712814269965,-4156.021247528493
1712814270005,-4412.724243303295
1712814270045,-3860.499511706643
1712814270085,-3476.2399777397513
1712814270125,-2270.4408630821854
1712814270166,-1683.134034436196
1712814270205,-52.925851774867624
1712814270245,1331.0839981976897
1712814270285,2013.5143709592521
1712814270325,3754.190352708567
1712814270366,5099.247250600718
1712814270406,6208.986890884116
1712814270446,7679.55565353483
1712814270486,8119.432123980951
1712814270526,7697.159844812471
1712814270567,4800.189755350817
1712814270606,4010.236047915183
1712814270646,1774.0630263732746
1712814270686,917.0747819682583
1712814270726,333.68046488426626
1712814270767,-420.80496382527053
1712814270807,-263.8534120740369
1712814270847,279.6658355933614
1712814270887,-472.4660954209976
1712814270927,237.94243716541678
1712814270968,1153.6978158592246
1712814271007,2637.0805655135773
1712814271047,3956.0712232780643
1712814271087,5220.349347488489
1712814271127,5871.152150779497
1712814271168,6589.401446477976
1712814271208,7697.205149052199
1712814271248,9774.346920548938
1712814271288,11554.130302939564
1712814271328,12765.18267869018
1712814271369,12100.849638446234
1712814271408,10327.254392690957
1712814271448,8679.232933718711
1712814271488,6476.207336463034
1712814271528,5610.025151835289
1712814271569,5572.379184176214
1712814271609,5226.754320542794
1712814271649,5489.095641840249
1712814271689,6201.436445763335
1712814271729,6101.8611314101145
1712814271770,6034.053286791779
1712814271809,6287.101958067156
1712814271849,8093.682788613252
1712814271889,7887.446566296741
1712814271929,9917.950237228535
1712814271970,10679.738649001345
1712814272010,12288.600229120813
1712814272050,13745.255123320036
1712814272090,14765.209088775795
1712814272130,15651.567283503711
1712814272171,17303.266228236724
1712814272210,17380.79457846284
1712814272250,16053.38625860028
1712814272291,14006.182591604069
1712814272331,12425.563865766395
1712814272371,11211.286465333775
1712814272411,10833.25885798037
1712814272451,11846.781608072575
1712814272491,11949.581410260871
1712814272531,11773.802231161855
1712814272572,11280.161305761896
1712814272612,11470.99009274505
1712814272652,11696.052853279747
1712814272692,12856.985733882524
1712814272732,13198.540249065962
1712814272773,13765.431924014818
1712814272812,14326.540241856128
1712814272852,15688.691231578123
1712814272892,16132.906667296775
1712814272932,16403.25459103752
1712814272973,16651.196650464553
1712814273012,17135.232508935034
1712814273053,18300.1556828171
1712814273093,18047.27612118097
1712814273133,15467.595011431724
1712814273174,14098.434093808755
1712814273213,12363.733916618861
1712814273253,11182.706129543018
1712814273293,10025.00985451229
1712814273333,10686.778838165104
1712814273374,10165.017957057804
1712814273414,10683.363292971626
1712814273454,10490.480194627773
1712814273494,10055.652470426634
1712814273534,10321.737813888583
1712814273575,10876.188834912144
1712814273614,11779.284485329874
1712814273655,12856.186201846227
1712814273695,13291.688363785855
1712814273735,13106.879442332312
1712814273776,13717.454018464778
1712814273815,14482.981213138439
1712814273855,15169.03094413504
1712814273895,14779.349699184299
1712814273935,13134.037846883759
1712814273976,10867.356067320332
1712814274016,9569.99591447832
1712814274056,9419.314735713415
1712814274096,8558.801205745898
1712814274136,7807.589528678916
1712814274177,7957.854814349674
1712814274216,7941.675524518359
1712814274256,7497.672474104911
1712814274296,7723.73812688794
1712814274337,7829.588486157358
1712814274378,7179.65708341822
1712814274417,7112.712037540972
1712814274457,7025.49409516342
1712814274497,7180.007746534422
1712814274537,8158.805125143845
1712814274578,8483.578242323827
1712814274618,9178.974789111875
1712814274658,9755.578726426698
1712814274698,9416.51061847154
1712814274738,7541.2515624179505
1712814274779,6160.177833023947
1712814274818,4263.580274827313
1712814274859,2925.1983363991603
1712814274899,1925.3576215179637
1712814274939,1559.165293562226
1712814274980,1597.4897971036844
1712814275019,1669.5561082717031
1712814275059,994.9357862556353
1712814275100,1098.7008718932047
1712814275140,999.2420661854558
1712814275180,866.7150178002194
1712814275220,1569.2649452951737
1712814275260,1781.0322453635745
1712814275300,1969.3093690807
1712814275341,1783.2318035848439
1712814275381,2412.8905254364945
1712814275421,2631.5244967378676
1712814275461,1646.930457483977
1712814275501,-690.1071445895359
1712814275541,-3103.226961662993
1712814275582,-4953.3750364515
1712814275621,-6628.876226792578
1712814275662,-7272.607109718025
1712814275702,-7288.099494218826
1712814275742,-7615.989658440463
1712814275783,-8262.388530726079
1712814275822,-8851.377346776426
1712814275862,-8281.343200258445
1712814275902,-9720.577414000407
1712814275943,-8932.518438942265
1712814275983,-7894.0794233083725
1712814276023,-6641.019145634025
1712814276063,-6138.343246821314
1712814276103,-5514.7199823786505
1712814276143,-5095.616570843384
1712814276184,-6877.565384024754
1712814276223,-9314.56762567535
1712814276263,-11661.040833548643
1712814276303,-14141.696526063606
1712814276346,-15828.142634618096
1712814276384,-17403.771635564044
1712814276424,-17850.938964338042
1712814276464,-18132.32720561046
1712814276504,-17996.510130744427
1712814276544,-17590.77414223738
1712814276585,-17009.91656212788
1712814276624,-16492.79537274223
1712814276664,-16443.75554776471
1712814276704,-15487.575600167736
1712814276744,-14205.105019741692
1712814276785,-12940.929345035926
1712814276825,-11891.0112710502
1712814276865,-13193.455006846227
1712814276905,-14841.755892361514
1712814276945,-16823.272335167974
1712814276986,-19152.56738128187
1712814277025,-21252.25073213596
1712814277065,-22793.404241359327
1712814277105,-23395.511431436986
1712814277146,-23944.121340756305
1712814277186,-22272.010728217196
1712814277226,-21856.63211099431
1712814277266,-21469.834088531323
1712814277306,-22013.25321770087
1712814277346,-21149.656287909485
1712814277387,-19469.002720996737
1712814277426,-18384.639897082
1712814277466,-17186.49414330162
1712814277507,-15468.708319232333
1712814277547,-13700.0244872123
1712814277588,-12540.997456366662
1712814277627,-13486.446585417725
1712814277667,-14628.51034704363
1712814277707,-16949.177893534303
1712814277747,-18463.919147280976
1712814277788,-19065.3440580843
1712814277828,-18943.45552749792
1712814277868,-18735.23732244782
1712814277908,-17880.60686660558
1712814277948,-18093.125226621516
1712814277989,-16245.301649754867
1712814278028,-14575.189021204598
1712814278068,-14128.51154486183
1712814278108,-12572.001643377356
1712814278148,-10832.318294431083
1712814278189,-10391.057350710034
1712814278229,-9044.491655397695
1712814278269,-7025.249596983194
1712814278309,-4876.418785018381
1712814278349,-2088.801916826982
1712814278390,-625.1077409074642
1712814278429,-1583.4178481763229
1712814278469,-4646.878669822589
1712814278509,-6670.863335297909
1712814278552,-8931.518628700636
1712814278591,-9098.260105881374
1712814278630,-8874.542389598675
1712814278670,-8587.815708545968
1712814278710,-8227.456801031716
1712814278750,-7862.991760804318
1712814278791,-7488.656048222445
1712814278831,-7042.9963453784585
1712814278871,-6407.567956368905
1712814278911,-5138.274994263891
1712814278951,-3979.2994933528826
1712814278992,-2648.452000968624
1712814279031,-1212.3636166471988
1712814279071,327.2331225397065
1712814279112,1435.9891089089215
1712814279152,3555.494606412947
1712814279193,4741.144011233468
1712814279232,7123.137802232057
1712814279272,6272.603055064566
1712814279312,4715.0618928503245
1712814279352,3081.9828163506463
1712814279393,1339.195075861644
1712814279433,-508.7244092244655
1712814279473,-807.0938132377341
1712814279513,-1483.7895634649321
1712814279553,-1571.1731813498773
1712814279594,-850.0928858336993
1712814279633,-699.7096673133783
1712814279674,-783.5303908186033
1712814279714,-334.18549333978444
1712814279754,693.9858454759233
1712814279795,1402.707670734264
1712814279834,2322.561881769914
1712814279874,3918.3988571176305
1712814279915,5531.605578283779
1712814279954,6588.734623581171
1712814279995,8090.197601146996
1712814280035,9350.780688060448
1712814280075,10217.495477496646
1712814280115,12236.243089975324
1712814280155,12531.856310932897
1712814280195,10982.51082791388
1712814280234,9154.971582629718
1712814280275,7583.810012976639
1712814280315,6885.998824826442
1712814280355,5109.336142717861
1712814280396,5090.06742505962
1712814280435,4505.292547361925
1712814280475,4507.645505589433
1712814280516,5234.685351022519
1712814280556,5363.284651592374
1712814280597,5679.195513292681
1712814280636,6624.335900010541
1712814280676,7267.7713772282
1712814280716,8607.73161839787
1712814280757,9598.71675544884
1712814280797,10986.148875190876
1712814280837,12577.927886907011
1712814280877,12783.048409252428
1712814280917,12647.785423520021
1712814280957,13750.761219819076
1712814280998,15246.635406834073
1712814281037,14993.819816341624
1712814281078,13730.182955612428
1712814281118,12150.039806482382
1712814281158,10122.119271942414
1712814281199,8600.277109155431
1712814281238,7727.481992579997
1712814281278,7680.267473163549
1712814281319,7848.217051364016
1712814281359,6602.154073270038
1712814281399,5253.997461384162
1712814281439,7483.510055405088
1712814281479,8863.520986900665
1712814281519,8764.497458898928
1712814281559,10400.87388527207
1712814281600,11244.288520740345
1712814281640,12846.336577602662
1712814281680,13342.237272104248
1712814281720,13671.6271124552
1712814281760,14689.445787620265
1712814281801,15026.206804277375
1712814281840,15810.195972700603
1712814281880,15962.343468863517
1712814281920,14833.797352557536
1712814281960,12805.603246051352
1712814282001,10423.965449089184
1712814282041,8466.630656963214
1712814282081,7096.5116824684665
1712814282121,5392.959453508258
1712814282161,4623.307837339118
1712814282202,4726.551487664692
1712814282241,3410.0212396481074
1712814282281,2156.3929193145595
1712814282321,3585.8241146206856
1712814282361,3728.2939476724714
1712814282402,3954.7897689705715
1712814282442,4669.036249967292
1712814282482,5435.335078059696
1712814282522,6126.3430374721065
1712814282562,6278.124133083038
1712814282603,6250.732127060182
1712814282642,7859.00973292999
1712814282682,9754.58325019991
1712814282722,7935.937004934996
1712814282763,8376.956693923566
1712814282803,8320.416883570608
1712814282843,7455.888421230484
1712814282883,4985.05489929812
1712814282923,2796.0084462049417
1712814282963,1807.3565268125385
1712814283004,1000.5543790673837
1712814283043,479.83616106119007
1712814283083,-381.81098245829344
1712814283123,-117.03556381957605
1712814283164,-924.7799432487227
1712814283204,-1100.671889142599
1712814283244,-1216.0580041566864
1712814283284,-925.7694768160582
1712814283324,-820.743876052089
1712814283364,128.2470260830596
1712814283405,1078.0182403009385
1712814283444,1401.946281063836
1712814283484,1801.6402120399289
1712814283525,3553.337334922515
1712814283565,5002.630469974596
1712814283606,4667.789973950945
1712814283645,2850.027714692056
1712814283685,607.4750805576332
1712814283725,-1211.9002471589483
1712814283765,-2977.3801529165357
1712814283806,-4119.509840973187
1712814283845,-5035.192529585678
1712814283886,-5181.258827892132
1712814283926,-5069.044923041016
1712814283966,-5136.624098303728
1712814284007,-5087.7316237906925
1712814284046,-4897.060039686039
1712814284086,-4809.68492978299
1712814284126,-4527.060237184633
1712814284166,-3986.6102942340076
1712814284207,-3175.110443793237
1712814284247,-2444.4697144953534
1712814284287,-1537.342548337765
1712814284327,-626.5195479448885
1712814284367,-1077.6805897997692
1712814284408,-3328.829390869476
1712814284447,-5163.463235314935
1712814284487,-7030.684990096837
1712814284527,-8119.422842275351
1712814284568,-8567.451881998219
1712814284609,-8682.101401837543
1712814284648,-9335.821726487018
1712814284688,-9531.404586278368
1712814284728,-8921.568989239633
1712814284768,-8314.574889147189
1712814284809,-7940.418783063069
1712814284849,-7892.5893565225415
1712814284889,-7087.258515733294
1712814284929,-5654.624031139538
1712814284969,-5055.373971317429
1712814285010,-4436.430941075087
1712814285049,-3423.91342794057
1712814285089,-3545.8655173406005
1712814285129,-4839.4616774688475
1712814285170,-6956.142560684122
1712814285211,-9040.850554451346
1712814285250,-10661.009477877524
1712814285290,-11544.962070319336
1712814285330,-12192.906037135981
1712814285370,-12299.282898130361
1712814285411,-12161.273626693524
1712814285451,-11811.792638711631
1712814285491,-11710.012107530143
1712814285531,-10696.684774334542
1712814285571,-9702.533082631417
1712814285612,-8851.73299625516
1712814285651,-8045.478003573604
1712814285691,-6667.1414137627
1712814285731,-5249.355625602417
1712814285772,-3869.303188731894
1712814285813,-3914.7374671027064
1712814285852,-5633.858549819328
1712814285892,-7180.227452615742
1712814285932,-9102.887743471656
1712814285972,-11036.816512026824
1712814286013,-13051.880038353615
1712814286053,-13342.14801460784
1712814286093,-13287.049433296546
1712814286133,-12667.8163665412
1712814286173,-12748.336305765435
1712814286214,-12286.38893335592
1712814286253,-11183.954057282768
1712814286294,-10120.086693302728
1712814286334,-9153.855154994875
1712814286374,-8125.020879213698
1712814286415,-6632.698080226313
1712814286454,-5572.870079028886
1712814286494,-4744.33685991494
1712814286535,-3618.200225812383
1712814286574,-2722.6999208088964
1712814286615,-1524.436576639302
1712814286655,-2824.0679387878627
1712814286695,-4873.404403723776
1712814286735,-7321.107982366346
1712814286775,-8993.627560188528
1712814286816,-10358.148825581651
1712814286856,-10915.48596982751
1712814286896,-11372.295179612003
1712814286936,-11158.137665287126
1712814286976,-10749.999122128822
1712814287017,-10929.947487135418
1712814287056,-10588.078467630781
1712814287096,-9117.815766673535
1712814287137,-7626.584113784134
1712814287177,-6564.263182406779
1712814287218,-5375.2525704633445
1712814287257,-3731.442599094007
1712814287297,-2318.729852124583
1712814287337,-1430.7769902925938
1712814287378,-108.88187060737982
1712814287418,1083.3012019419111
1712814287458,2887.095674926415
1712814287498,3431.8948877220973
1712814287538,2381.605065140873
1712814287578,421.0894484622404
1712814287619,-1410.521925658919
1712814287658,-2567.9333603936248
1712814287698,-3326.1207345062867
1712814287739,-3725.285396798514
1712814287778,-3450.9712125514634
1712814287819,-3061.198610920459
1712814287859,-2542.0342092392966
1712814287899,-2282.6629735771567
1712814287939,-1548.7744367057458
1712814287979,-939.2051698826253
1712814288020,9.264125478919595
1712814288059,1157.639871602878
1712814288100,2291.159539309796
1712814288140,3425.0395956002176
1712814288180,5026.109266672283
1712814288221,6306.697028916329
1712814288260,7163.008273530286
1712814288300,7741.093616694212
1712814288340,9151.288239774294
1712814288380,9639.512257007882
1712814288421,8989.237347433344
1712814288461,7592.6627147071995
1712814288501,5631.099876632448
1712814288541,4167.552718089428
1712814288581,3170.3485749782994
1712814288622,2951.1051155570894
1712814288661,2860.3751488416456
1712814288701,2643.4268694575876
1712814288741,2172.5548873753287
1712814288781,2715.351144867949
1712814288822,3269.52132560499
1712814288862,3852.654530147556
1712814288902,4550.747279217932
1712814288942,4964.4070293279365
1712814288982,5329.140366205946
1712814289023,6387.064204972703
1712814289062,7591.4702837383375
1712814289102,8568.530200919136
1712814289142,9359.879955727607
1712814289183,10023.605234510265
1712814289223,11109.408995810896
1712814289263,11507.999337492045
1712814289303,10570.861067072954
1712814289343,9218.939352039713
1712814289383,7479.165793842636
1712814289424,6837.366787448525
1712814289463,5760.245695940219
1712814289504,5759.940320848487
1712814289544,5504.897912397981
1712814289584,6233.770969259087
1712814289625,6115.949987387285
1712814289664,6221.963380038738
1712814289704,6009.968593288213
1712814289744,6319.161785770208
1712814289785,7384.841553494334
1712814289825,8063.056690745056
1712814289865,8899.177536324132
1712814289905,9652.289766459726
1712814289945,10785.414513077121
1712814289985,12526.223037536256
1712814290026,13859.247113128193
1712814290065,15092.287748709321
1712814290105,15751.111909789965
1712814290146,15259.18615966104
1712814290186,14035.022897650022
1712814290226,12397.682517447043
1712814290266,10840.458337423857
1712814290306,10148.960468074307
1712814290346,9269.523115850054
1712814290386,9051.702627912164
1712814290427,9143.098339741118
1712814290467,9067.910134327598
1712814290507,9218.574329908006
1712814290547,8899.739941984415
1712814290587,9600.61991376616
1712814290628,9943.416712353937
1712814290667,10115.698858601041
1712814290707,10231.851660088636
1712814290748,10984.583822641522
1712814290788,11289.674697634764
1712814290828,12196.361427419819
1712814290868,13072.373270540033
1712814290908,14041.810194715858
1712814290948,15349.079958898015
1712814290988,16420.848224127665
1712814291029,16371.602709474973
1712814291069,14420.598204242066
1712814291109,12846.046914168634
1712814291149,11451.5875233775
1712814291189,10647.723185173236
1712814291230,9847.083829050884
1712814291269,9224.897388004698
1712814291309,8471.058174311183
1712814291350,7736.8841337729245
1712814291390,7770.225786193274
1712814291430,7630.0434696567245
1712814291470,7604.852295546792
1712814291510,7812.872102339286
1712814291550,8577.19489466399
1712814291590,8741.469914778136
1712814291631,9503.317546746228
1712814291671,9950.94626348745
1712814291711,9902.756048513576
1712814291751,10475.519253927283
1712814291791,11651.325766934082
1712814291832,12391.776147936005
1712814291871,11284.019125725143
1712814291911,10136.702993810177
1712814291952,8610.923302352428
1712814291992,7715.635032750666
1712814292033,6916.637223003898
1712814292072,7187.781528908294
1712814292112,6880.769524273463
1712814292152,6171.247228893917
1712814292193,5582.449960325845
1712814292233,5446.141462337226
1712814292273,5137.7719521876425
1712814292313,5162.93024369562
1712814292353,5446.614313528407
1712814292393,5444.687383395154
1712814292434,5778.406969949603
1712814292474,6396.367331671994
1712814292514,7268.866666811518
1712814292554,7464.57555471221
1712814292594,8350.445434697904
1712814292635,8079.269848753698
1712814292674,6072.777346462943
1712814292714,4225.265979331918
1712814292755,2718.426075901836
1712814292795,1996.7132549080998
1712814292836,1467.6665396559983
1712814292875,1149.0399584854022
1712814292915,860.1246359203942
1712814292955,459.31608338374645
1712814292996,1078.3330896310508
1712814293036,1306.6692287512124
1712814293076,957.9490522090346
1712814293116,1635.6547417850234
1712814293156,2111.774215493351
1712814293196,2815.48293503467
1712814293237,3645.611838927027
1712814293276,3927.1394802080467
1712814293316,4694.099548343103
1712814293356,3994.732585960068
1712814293397,2583.8616246595047
1712814293437,1151.0194114008918
1712814293477,-442.3863759730011
1712814293517,-2202.5358194801956
1712814293557,-2730.2690942985937
1712814293597,-2927.5922166565433
1712814293638,-3010.8550064573064
1712814293677,-3402.363684461452
1712814293717,-3107.607164452318
1712814293757,-3520.9263354172
1712814293797,-3346.9398623080924
1712814293838,-2482.8137516835704
1712814293878,-1413.2030814997852
1712814293918,-1201.7279071360826
1712814293958,-534.578043283429
1712814293998,396.0571357673034
1712814294039,796.2629978307523
1712814294078,1132.678280085791
1712814294118,-328.3808436081745
1712814294158,-2090.741921084933
1712814294198,-3685.656640181318
1712814294239,-5458.590255671646
1712814294279,-6519.574559069239
1712814294319,-6801.244883528445
1712814294359,-7530.2502008765005
1712814294399,-7521.237017070875
1712814294440,-7192.055877976585
1712814294479,-6845.537802238017
1712814294519,-6864.829483057372
1712814294559,-6180.81171510322
1712814294600,-5174.515979801305
1712814294640,-4406.815802448429
1712814294680,-3525.804837964475
1712814294720,-3056.4697729847394
1712814294760,-1848.444872553926
1712814294800,-1177.729881055653
1712814294841,-363.5506490031257
1712814294880,-1415.9227642733604
1712814294920,-3025.078723769635
1712814294961,-4383.676985323429
1712814295001,-6270.634953088127
1712814295041,-7607.331824860536
1712814295081,-8578.934556941967
1712814295121,-8646.717385496013
1712814295161,-8558.6699871514
1712814295201,-7518.15696278587
1712814295242,-6788.413952969946
1712814295281,-6195.403435857035
1712814295322,-5005.140033824835
1712814295362,-4316.888255640399
1712814295402,-3221.387843030039
1712814295443,-2220.9829895710573
1712814295482,-1555.2582940012217
1712814295522,-400.993128573522
1712814295562,92.54300307948142
1712814295602,560.5491353129037
1712814295643,1861.8521754704416
1712814295683,3362.503361815121
1712814295723,3346.859683439601
1712814295763,1328.9701696145348
1712814295803,-713.2312256689183
1712814295844,-2187.027199706994
1712814295883,-3551.8432726543397
1712814295924,-4024.3120003910735
1712814295964,-4046.742697908543
1712814296004,-3302.8932529808953
1712814296045,-2804.983571825549
1712814296084,-2724.0071530505084
1712814296124,-2679.295719078742
1712814296164,-2092.735053394921
1712814296204,-1264.714273889549
1712814296245,-170.98013365641236
1712814296285,1180.1574430326
1712814296325,2345.2257395237684
1712814296365,3661.6763982903212
1712814296405,4704.2852922366
1712814296446,5467.48828306701
1712814296485,5751.0489543541335
1712814296526,6996.872218675911
1712814296566,8207.593157671392
1712814296606,8406.30047680717
1712814296647,6568.194221241865
1712814296686,5128.233441848308
1712814296726,3723.5792083959095
1712814296767,2431.4336095936596
1712814296807,2081.9421471334063
1712814296847,2432.499961549416
1712814296887,2541.2231049458496
1712814296927,2128.621051019989
1712814296967,916.6724866544828
1712814297007,1064.329938981682
1712814297048,2140.1535580046475
1712814297087,2726.56191576086
1712814297128,3637.8829786959104
1712814297168,4817.9884520005435
1712814297208,5551.515084095299
1712814297249,6701.211534184869
1712814297288,7232.561416457407
1712814297328,7688.732753687073
1712814297369,9457.012028908357
1712814297409,10436.850818254054
1712814297449,11619.653754917905
1712814297489,11026.315387696028
1712814297529,8714.918815402314
1712814297569,6388.529912206344
1712814297609,4810.557086752262
1712814297650,3853.5995512916707
1712814297690,3203.5274249613285
1712814297730,2870.5469396687113
1712814297770,3307.534588920884
1712814297810,2839.1186889978126
1712814297851,2522.007293736562
1712814297890,2650.750598571729
1712814297930,2976.6554109123535
1712814297971,3134.078906693496
1712814298011,3211.2073363652453
1712814298052,3824.8881829911843
1712814298091,4228.32406141283
1712814298131,4505.886286388151
1712814298171,5809.435738753993
1712814298212,7378.279257781804
1712814298252,8444.425408482552
1712814298292,8774.057848136406
1712814298332,8838.49831845332
1712814298372,8470.497576202266
1712814298412,6240.028211006895
1712814298453,4177.294145913795
1712814298493,3823.858641751576
1712814298533,2596.426480844617
1712814298573,2381.616990122013
1712814298613,2224.609511605464
1712814298654,1999.4134491006844
1712814298693,1365.2012755959295
1712814298733,1123.5820039999671
1712814298774,1434.3488556444645
1712814298814,2043.377605504822
1712814298854,3168.1992858005688
1712814298894,3633.1041612401605
1712814298934,3862.646537285298
1712814298974,4399.172609793954
1712814299014,4626.766377954744
1712814299055,4927.513820540626
1712814299094,5606.220705685671
1712814299134,5709.807666887529
1712814299175,5107.653677322902
1712814299215,3837.7089250423014
1712814299255,2307.1972611462697
1712814299295,1482.2550340490416
1712814299335,1048.4672641279176
1712814299375,1004.4230076661333
1712814299415,1055.3852736293338
1712814299456,707.1266920734197
1712814299495,449.98735776217654
1712814299536,134.27521859202534
1712814299576,877.400581038557
1712814299616,1234.5341740772128
1712814299657,1738.8033541305922
1712814299696,2516.1993775106966
1712814299736,3303.2486678427085
1712814299776,2978.5980034945533
1712814299816,4587.827111400664
1712814299857,4933.004517228808
1712814299897,4388.618803098798
1712814299936,2826.464811081998
1712814299977,2023.7279098331928
1712814300017,319.32156057003886
1712814300058,-547.86108217109
1712814300097,-889.8566986974329
1712814300137,-1049.6806702199392
1712814300177,-956.089756116271
1712814300217,-872.0273247780278
1712814300258,-1108.0735009880736
1712814300297,-62.71383734140545
1712814300337,786.1419670754112
1712814300378,1453.6572713209316
1712814300418,1691.6528822779655
1712814300458,2252.3149952013046
1712814300498,2916.3482886007987
1712814300538,3903.4062692518346
1712814300578,5106.208394485526
1712814300618,5845.847769930027
1712814300659,5553.163021353539
1712814300699,3529.7685848083347
1712814300739,1689.7083886843175
1712814300779,160.61619511339813
1712814300819,-438.4507453404367
1712814300860,-808.1760052954778
1712814300899,-1255.6307147266343
1712814300939,-1411.4377524633892
1712814300979,-1511.2292534834705
1712814301019,-1304.6373192882165
1712814301060,-732.5946592497639
1712814301100,-616.1839536000043
1712814301140,-377.09699336392805
1712814301180,1193.0446066213772
1712814301220,2241.388344296254
1712814301261,2878.8305777162313
1712814301300,3746.316033160314
1712814301341,4406.8666002009995
1712814301380,6046.5166715774685
1712814301421,5858.016913194675
1712814301462,4047.343152485788
1712814301501,2437.3379208669066
1712814301541,374.79899193998426
1712814301581,-1661.0742107811384
1712814301621,-3001.0945849437267
1712814301662,-2905.5787018700503
1712814301702,-3476.014039308764
1712814301742,-4017.3279886883684
1712814301782,-4470.802546739578
1712814301822,-4392.260665761307
1712814301863,-4497.587355372962
1712814301902,-3746.378870385699
1712814301942,-3055.524404454045
1712814301982,-1678.9702428258024
1712814302022,-1097.244414304383
1712814302063,-82.67541688214988
1712814302103,1688.924948037602
1712814302143,2707.9897790122777
1712814302183,3961.085355259478
1712814302223,4232.983098345809
1712814302264,4004.731734458357
1712814302303,2164.0641967495903
1712814302343,287.97780521027744
1712814302383,-1350.5752832186408
1712814302424,-2185.704926867038
1712814302464,-2641.6353117586114
1712814302504,-3386.335774080362
1712814302544,-3450.2647074414417
1712814302584,-3303.4087503901683
1712814302624,-3464.571221786551
1712814302665,-3865.3782994560897
1712814302704,-3228.8691675481386
1712814302745,-2921.419290792197
1712814302785,-2921.1478825816885
1712814302825,-1593.6243458073586
1712814302866,-556.4182694545016
1712814302905,520.8412918513641
1712814302945,710.9134603315033
1712814302985,2379.5806865738705
1712814303025,4495.8553444263525
1712814303066,5532.579707787838
1712814303106,5151.577308265492
1712814303146,3775.4591698702425
1712814303186,2206.2996424180456
1712814303226,368.6336603453383
1712814303267,-1135.2480543022975
1712814303306,-1011.4504608437419
1712814303346,-1121.5567664522678
1712814303387,-2143.683748827316
1712814303427,-2191.3313188832253
1712814303467,-2320.3926742156036
1712814303507,-1801.6139294514433
1712814303547,-1045.146144923754
1712814303587,-995.3184645855799
1712814303627,-25.75489683263004
1712814303668,903.9918378060684
1712814303707,2247.7156777195632
1712814303748,2713.0725271492265
1712814303788,3691.214903753251
1712814303828,4149.3802679227665
1712814303869,4857.225073033944
1712814303908,5338.242950457614
1712814303948,4624.154290170409
1712814303989,2345.735988501925
1712814304029,1460.4022800503299
1712814304070,783.1615790706128
1712814304109,460.6176700219512
1712814304149,347.7705773347989
1712814304189,299.2985761705786
1712814304230,216.21518786344677
1712814304270,6.316658595576882
1712814304310,-965.3007108280435
1712814304350,-848.0237310044467
1712814304390,-345.09097978286445
1712814304430,-243.60729718208313
1712814304471,210.88926661666483
1712814304510,1336.3288513938896
1712814304551,2485.145321784541
1712814304591,3042.2215336626396
1712814304631,3886.029752255883
1712814304672,4670.8641272624955
1712814304711,5284.697972544003
1712814304751,5123.573068541475
1712814304791,3679.2028931891546
1712814304832,1556.5392142320052
1712814304872,532.260364654474
1712814304912,-525.5112185962498
1712814304952,-760.2713641040027
1712814304992,-1006.559691824019
1712814305032,-1181.823528680019
1712814305073,-862.5424780915491
1712814305112,-547.7795407688245
1712814305152,-195.45632454613224
1712814305193,402.34167882287875
1712814305233,944.6074422504753
1712814305273,2042.1019876608625
1712814305313,2003.0677428958006
1712814305353,2141.647484760266
1712814305393,2462.728841086384
1712814305433,3131.6766884448007
1712814305474,3957.625798889436
1712814305513,4882.193621949293
1712814305553,4677.672182650771
1712814305594,3467.2886378439143
1712814305634,2336.310680058785
1712814305675,682.4771407777444
1712814305714,475.35571834398434
1712814305754,289.79224017169327
1712814305794,-190.28170401696116
1712814305834,-158.95257882773876
1712814305875,-911.4374416517094
1712814305915,-619.4589667203836
1712814305955,-603.874813111499
1712814305995,-468.6700523956679
1712814306035,-222.67152864858508
1712814306076,340.18197530321777
1712814306115,710.1032621422783
1712814306155,1697.5586680490524
1712814306195,2391.1374784926884
1712814306235,2981.4871560516767
1712814306276,3598.173986411188
1712814306315,4058.023072729353
1712814306356,2106.586477259174
1712814306396,553.2167554874904
1712814306436,-622.1342847128399
1712814306477,-1918.5088752275333
1712814306516,-2574.011575057637
1712814306556,-2714.8486491539516
1712814306596,-1821.9808351206593
1712814306636,-1447.931675247848
1712814306677,-1456.6779820127413
1712814306717,-1121.5805600085296
1712814306757,-1265.1813245019875
1712814306797,-666.6429691743106
1712814306837,-460.30618793331087
1712814306878,179.7404866986908
1712814306917,462.95100148627535
1712814306957,1292.8960304642096
1712814306998,2184.034421283286
1712814307037,1706.2389698829502
1712814307078,479.29311696160585
1712814307118,-1510.2944799419492
1712814307158,-3015.7178056444973
