dataReceived,timestamp,ppg,status
1712814171925,1712814159828,2150280,0
1712814171925,1712814159868,2150271,0
1712814171925,1712814159908,2149882,0
1712814171925,1712814159948,2149969,0
1712814171925,1712814159988,2150172,0
1712814171925,1712814160029,2150626,0
1712814171925,1712814160068,2151538,0
1712814171925,1712814160108,2152249,0
1712814171925,1712814160149,2153194,0
1712814171925,1712814160189,2154121,0
1712814171925,1712814160230,2155112,0
1712814171925,1712814160269,2156265,0
1712814171925,1712814160309,2157324,0
1712814171925,1712814160349,2157134,0
1712814171925,1712814160390,2155630,0
1712814171925,1712814160431,2154208,0
1712814171925,1712814160470,2152958,0
1712814171925,1712814160510,2152178,0
1712814171925,1712814160550,2152375,0
1712814171925,1712814160590,2152845,0
1712814171925,1712814160631,2154026,0
1712814171925,1712814160670,2154423,0
1712814171925,1712814160710,2154755,0
1712814171925,1712814160751,2155513,0
1712814171925,1712814160791,2156023,0
1712814171925,1712814160832,2156994,0
1712814171925,1712814160871,2157955,0
1712814171925,1712814160911,2158741,0
1712814171925,1712814160951,2160101,0
1712814171925,1712814160994,2161102,0
1712814171925,1712814161033,2162261,0
1712814171925,1712814161072,2161693,0
1712814171925,1712814161112,2160578,0
1712814171925,1712814161152,2160197,0
1712814171925,1712814161192,2160188,0
1712814171925,1712814161233,2160298,0
1712814171925,1712814161272,2161314,0
1712814171925,1712814161313,2162370,0
1712814171925,1712814161353,2162719,0
1712814171925,1712814161393,2163850,0
1712814171925,1712814161434,2164483,0
1712814171925,1712814161473,2163270,0
1712814171925,1712814161513,2162476,0
1712814171925,1712814161553,2164074,0
1712814171925,1712814161594,2165657,0
1712814171925,1712814161635,2166833,0
1712814171925,1712814161674,2168173,0
1712814171925,1712814161714,2169714,0
1712814171925,1712814161754,2171312,0
1712814171925,1712814161794,2172404,0
1712814171925,1712814161835,2172048,0
1712814171925,1712814161875,2170986,0
1712814171925,1712814161915,2169873,0
1712814171925,1712814161955,2169173,0
1712814171925,1712814161995,2168939,0
1712814171925,1712814162036,2169237,0
1712814171925,1712814162075,2169539,0
1712814171925,1712814162115,2170299,0
1712814171925,1712814162156,2171537,0
1712814171925,1712814162196,2173005,0
1712814171925,1712814162237,2173412,0
1712814171925,1712814162276,2176094,0
1712814171925,1712814162316,2178183,0
1712814171925,1712814162356,2180967,0
1712814171925,1712814162396,2182707,0
1712814171925,1712814162438,2183831,0
1712814171925,1712814162477,2186990,0
1712814171925,1712814162517,2190405,0
1712814171925,1712814162557,2200434,0
1712814171925,1712814162597,2206455,0
1712814171925,1712814162638,2212191,0
1712814171925,1712814162677,2218095,0
1712814171925,1712814162717,2225710,0
1712814171925,1712814162757,2234187,0
1712814171925,1712814162797,2237783,0
1712814171925,1712814162838,2236110,0
1712814171925,1712814162877,2229294,0
1712814171925,1712814162918,2225244,0
1712814171925,1712814162958,2224430,0
1712814171925,1712814162998,2223235,0
1712814171925,1712814163039,2224117,0
1712814171925,1712814163078,2225198,0
1712814171925,1712814163118,2225048,0
1712814171925,1712814163158,2224082,0
1712814171925,1712814163201,2223663,0
1712814171925,1712814163239,2221857,0
1712814171925,1712814163279,2217290,0
1712814171925,1712814163319,2213090,0
1712814171925,1712814163359,2210650,0
1712814171925,1712814163399,2208956,0
1712814171925,1712814163440,2208954,0
1712814171925,1712814163479,2207915,0
1712814171925,1712814163519,2207181,0
1712814171925,1712814163559,2206116,0
1712814171925,1712814163599,2205152,0
1712814171925,1712814163641,2203146,0
1712814171925,1712814163680,2202518,0
1712814171925,1712814163720,2203155,0
1712814171925,1712814163760,2203730,0
1712814171925,1712814163800,2204125,0
1712814171925,1712814163841,2205086,0
1712814171925,1712814163880,2206623,0
1712814171925,1712814163920,2205839,0
1712814171925,1712814163960,2203880,0
1712814171925,1712814164001,2202836,0
1712814171925,1712814164042,2202799,0
1712814171925,1712814164081,2204093,0
1712814171925,1712814164121,2207877,0
1712814171925,1712814164161,2212683,0
1712814171925,1712814164201,2216629,0
1712814171925,1712814164242,2220078,0
1712814171925,1712814164281,2223322,0
1712814171925,1712814164321,2226943,0
1712814171925,1712814164362,2227733,0
1712814171925,1712814164402,2228752,0
1712814171925,1712814164443,2228295,0
1712814171925,1712814164482,2227319,0
1712814171925,1712814164522,2228560,0
1712814171925,1712814164562,2230462,0
1712814171925,1712814164602,2230942,0
1712814171925,1712814164643,2230242,0
1712814171925,1712814164683,2228225,0
1712814171925,1712814164723,2226432,0
1712814171925,1712814164763,2225313,0
1712814171925,1712814164803,2224284,0
1712814171925,1712814164844,2224086,0
1712814171925,1712814164883,2224063,0
1712814171925,1712814164923,2224358,0
1712814171925,1712814164964,2224440,0
1712814171925,1712814165004,2224546,0
1712814171925,1712814165045,2224641,0
1712814171925,1712814165084,2225243,0
1712814171925,1712814165124,2226042,0
1712814171925,1712814165164,2226864,0
1712814171925,1712814165204,2227838,0
1712814171925,1712814165245,2228784,0
1712814171925,1712814165284,2229918,0
1712814171925,1712814165325,2230618,0
1712814171925,1712814165365,2229622,0
1712814171925,1712814165405,2228089,0
1712814171925,1712814165446,2226532,0
1712814171925,1712814165485,2225251,0
1712814171925,1712814165525,2224641,0
1712814171925,1712814165565,2224469,0
1712814171925,1712814165605,2224612,0
1712814171925,1712814165647,2224760,0
1712814171925,1712814165686,2224956,0
1712814171925,1712814165726,2221636,0
1712814171925,1712814165766,2219720,0
1712814171925,1712814165806,2216345,0
1712814171925,1712814165847,2215224,0
1712814171925,1712814165886,2213020,0
1712814171925,1712814165927,2210019,0
1712814171925,1712814165967,2206368,0
1712814171925,1712814166007,2202861,0
1712814171925,1712814166048,2197346,0
1712814171925,1712814166087,2193414,0
1712814171925,1712814166127,2190237,0
1712814171925,1712814166167,2187609,0
1712814171925,1712814166207,2186141,0
1712814171925,1712814166249,2184698,0
1712814171925,1712814166288,2183518,0
1712814171925,1712814166328,2182820,0
1712814171925,1712814166368,2182106,0
1712814171925,1712814166408,2181776,0
1712814171925,1712814166449,2181784,0
1712814171925,1712814166488,2181306,0
1712814171925,1712814166529,2181031,0
1712814171925,1712814166569,2181258,0
1712814171925,1712814166609,2184068,0
1712814171925,1712814166650,2189286,0
1712814171925,1712814166689,2186609,0
1712814171925,1712814166729,2193117,0
1712814171925,1712814166769,2194967,0
1712814171925,1712814166809,2197172,0
1712814171925,1712814166851,2181892,0
1712814171925,1712814166890,2171090,0
1712814171925,1712814166930,2184065,0
1712814171925,1712814166970,2203787,0
1712814171925,1712814167010,2210954,0
1712814171925,1712814167051,2213704,0
1712814171925,1712814167091,2220527,0
1712814171925,1712814167131,2227442,0
1712814171925,1712814167171,2229725,0
1712814171925,1712814167211,2228844,0
1712814171925,1712814167252,2229143,0
1712814171925,1712814167291,2228092,0
1712814171925,1712814167331,2226668,0
1712814171925,1712814167372,2223172,0
1712814171925,1712814167412,2223795,0
1712814171925,1712814167453,2223438,0
1712814171925,1712814167492,2224018,0
1712814171925,1712814167532,2225594,0
1712814171925,1712814167572,2227955,0
1712814171925,1712814167613,2227365,0
1712814171925,1712814167654,2224260,0
1712814171925,1712814167693,2229119,0
1712814171925,1712814167733,2240812,0
1712814171925,1712814167773,2245629,0
1712814171925,1712814167813,2250190,0
1712814171925,1712814167855,2258261,0
1712814171925,1712814167894,2272500,0
1712814171925,1712814167934,2283025,0
1712814171925,1712814167974,2289363,0
1712814171925,1712814168014,2293341,0
1712814171925,1712814168055,2296303,0
1712814171925,1712814168094,2303464,0
1712814171925,1712814168135,2308369,0
1712814171925,1712814168175,2302972,0
1712814171925,1712814168215,2300740,0
1712814171925,1712814168256,2296076,0
1712814171925,1712814168295,2291059,0
1712814171925,1712814168336,2291495,0
1712814171925,1712814168375,2295623,0
1712814171925,1712814168416,2293857,0
1712814171925,1712814168457,2295337,0
1712814171925,1712814168496,2294131,0
1712814171925,1712814168536,2288210,0
1712814171925,1712814168576,2280058,0
1712814171925,1712814168616,2276790,0
1712814171925,1712814168657,2270302,0
1712814171925,1712814168696,2268870,0
1712814171925,1712814168736,2265859,0
1712814171925,1712814168776,2264419,0
1712814171925,1712814168817,2263312,0
1712814171925,1712814168858,2263471,0
1712814171925,1712814168897,2264533,0
1712814171925,1712814168937,2266129,0
1712814171925,1712814168977,2267100,0
1712814171925,1712814169017,2268074,0
1712814171925,1712814169058,2267883,0
1712814171925,1712814169097,2267894,0
1712814171925,1712814169137,2266848,0
1712814171925,1712814169178,2265697,0
1712814171925,1712814169218,2265040,0
1712814171925,1712814169259,2264643,0
1712814171925,1712814169298,2263652,0
1712814171925,1712814169338,2265659,0
1712814171925,1712814169378,2267570,0
1712814171925,1712814169418,2268504,0
1712814171925,1712814169459,2268273,0
1712814171925,1712814169498,2268637,0
1712814171925,1712814169539,2268924,0
1712814171925,1712814169579,2269123,0
1712814171925,1712814169619,2269807,0
1712814171925,1712814169660,2270426,0
1712814171925,1712814169699,2271107,0
1712814171925,1712814169739,2271898,0
1712814171925,1712814169779,2272449,0
1712814171925,1712814169819,2273040,0
1712814171925,1712814169860,2273759,0
1712814171925,1712814169900,2274434,0
1712814171925,1712814169940,2275249,0
1712814171925,1712814169980,2276177,0
1712814171925,1712814170020,2277154,0
1712814171925,1712814170061,2277744,0
1712814171925,1712814170100,2277215,0
1712814171925,1712814170140,2275607,0
1712814171925,1712814170180,2273715,0
1712814171925,1712814170221,2272066,0
1712814171925,1712814170262,2270838,0
1712814171925,1712814170301,2270109,0
1712814171925,1712814170341,2269649,0
1712814171925,1712814170381,2269123,0
1712814171925,1712814170421,2268785,0
1712814171925,1712814170462,2268369,0
1712814171925,1712814170501,2268158,0
1712814171925,1712814170541,2268162,0
1712814171925,1712814170582,2268319,0
1712814171925,1712814170622,2268825,0
1712814171925,1712814170663,2269136,0
1712814171925,1712814170702,2269517,0
1712814171925,1712814170742,2268752,0
1712814171925,1712814170782,2266591,0
1712814171925,1712814170822,2263930,0
1712814171925,1712814170863,2261378,0
1712814171925,1712814170902,2259151,0
1712814171925,1712814170942,2257649,0
1712814171925,1712814170983,2256470,0
1712814171925,1712814171023,2255506,0
1712814171925,1712814171064,2254526,0
1712814171925,1712814171103,2253729,0
1712814171925,1712814171143,2253056,0
1712814171925,1712814171183,2252792,0
1712814171925,1712814171223,2252544,0
1712814171925,1712814171264,2252548,0
1712814171925,1712814171303,2252739,0
1712814171925,1712814171344,2252985,0
1712814171925,1712814171384,2252762,0
1712814171925,1712814171424,2250786,0
1712814171925,1712814171465,2247581,0
1712814171925,1712814171504,2243453,0
1712814171925,1712814171544,2238054,0
1712814171925,1712814171584,2233534,0
1712814171925,1712814171624,2230258,0
1712814171925,1712814171665,2227457,0
1712814171925,1712814171705,2224957,0
1712814171925,1712814171745,2223150,0
1712814171925,1712814171785,2222045,0
1712814171925,1712814171825,2221336,0
1712814183987,1712814171866,2220879,0
1712814183987,1712814171905,2220748,0
1712814183987,1712814171945,2220735,0
1712814183987,1712814171985,2221179,0
1712814183987,1712814172025,2222019,0
1712814183987,1712814172067,2222747,0
1712814183987,1712814172106,2222015,0
1712814183987,1712814172146,2219754,0
1712814183987,1712814172186,2217132,0
1712814183987,1712814172226,2214678,0
1712814183987,1712814172267,2212803,0
1712814183987,1712814172306,2211764,0
1712814183987,1712814172346,2211262,0
1712814183987,1712814172387,2211005,0
1712814183987,1712814172427,2210970,0
1712814183987,1712814172468,2210960,0
1712814183987,1712814172507,2211353,0
1712814183987,1712814172547,2212042,0
1712814183987,1712814172587,2212899,0
1712814183987,1712814172627,2213862,0
1712814183987,1712814172669,2214924,0
1712814183987,1712814172708,2216232,0
1712814183987,1712814172748,2217494,0
1712814183987,1712814172788,2217938,0
1712814183987,1712814172828,2216360,0
1712814183987,1712814172869,2214018,0
1712814183987,1712814172908,2211591,0
1712814183987,1712814172948,2209808,0
1712814183987,1712814172989,2208888,0
1712814183987,1712814173029,2208651,0
1712814183987,1712814173070,2208623,0
1712814183987,1712814173109,2208523,0
1712814183987,1712814173149,2208700,0
1712814183987,1712814173189,2209122,0
1712814183987,1712814173229,2209773,0
1712814183987,1712814173271,2210714,0
1712814183987,1712814173310,2211754,0
1712814183987,1712814173350,2213168,0
1712814183987,1712814173390,2214653,0
1712814183987,1712814173430,2216078,0
1712814183987,1712814173471,2216461,0
1712814183987,1712814173511,2215237,0
1712814183987,1712814173550,2212815,0
1712814183987,1712814173591,2210821,0
1712814183987,1712814173631,2209311,0
1712814183987,1712814173672,2208654,0
1712814183987,1712814173711,2209007,0
1712814183987,1712814173751,2209105,0
1712814183987,1712814173791,2209256,0
1712814183987,1712814173832,2209817,0
1712814183987,1712814173873,2210306,0
1712814183987,1712814173912,2211247,0
1712814183987,1712814173952,2212443,0
1712814183987,1712814173992,2213729,0
1712814183987,1712814174032,2215247,0
1712814183987,1712814174074,2216887,0
1712814183987,1712814174113,2218650,0
1712814183987,1712814174153,2219244,0
1712814183987,1712814174193,2217912,0
1712814183987,1712814174233,2215882,0
1712814183987,1712814174274,2213636,0
1712814183987,1712814174314,2212137,0
1712814183987,1712814174354,2211652,0
1712814183987,1712814174394,2211813,0
1712814183987,1712814174434,2212058,0
1712814183987,1712814174475,2212382,0
1712814183987,1712814174514,2213047,0
1712814183987,1712814174554,2213816,0
1712814183987,1712814174594,2214991,0
1712814183987,1712814174634,2216059,0
1712814183987,1712814174675,2217568,0
1712814183987,1712814174715,2219020,0
1712814183987,1712814174755,2220712,0
1712814183987,1712814174795,2222216,0
1712814183987,1712814174835,2222317,0
1712814183987,1712814174876,2220518,0
1712814183987,1712814174915,2218181,0
1712814183987,1712814174955,2215957,0
1712814183987,1712814174995,2214387,0
1712814183987,1712814175035,2213805,0
1712814183987,1712814175077,2213664,0
1712814183987,1712814175116,2213754,0
1712814183987,1712814175156,2213755,0
1712814183987,1712814175196,2213935,0
1712814183987,1712814175236,2214463,0
1712814183987,1712814175277,2215224,0
1712814183987,1712814175316,2216153,0
1712814183987,1712814175356,2217321,0
1712814183987,1712814175396,2218735,0
1712814183987,1712814175437,2220125,0
1712814183987,1712814175478,2221777,0
1712814183987,1712814175517,2223138,0
1712814183987,1712814175557,2223528,0
1712814183987,1712814175597,2221931,0
1712814183987,1712814175637,2219531,0
1712814183987,1712814175678,2217232,0
1712814183987,1712814175717,2215769,0
1712814183987,1712814175757,2214992,0
1712814183987,1712814175797,2214771,0
1712814183987,1712814175837,2214836,0
1712814183987,1712814175878,2214799,0
1712814183987,1712814175918,2214829,0
1712814183987,1712814175958,2215320,0
1712814183987,1712814175998,2215919,0
1712814183987,1712814176038,2216941,0
1712814183987,1712814176079,2217948,0
1712814183987,1712814176118,2219259,0
1712814183987,1712814176158,2220700,0
1712814183987,1712814176198,2222259,0
1712814183987,1712814176238,2223903,0
1712814183987,1712814176280,2224593,0
1712814183987,1712814176319,2223556,0
1712814183987,1712814176359,2221194,0
1712814183987,1712814176399,2218961,0
1712814183987,1712814176439,2217294,0
1712814183987,1712814176480,2216455,0
1712814183987,1712814176519,2216199,0
1712814183987,1712814176559,2216383,0
1712814183987,1712814176599,2216457,0
1712814183987,1712814176640,2216493,0
1712814183987,1712814176681,2216734,0
1712814183987,1712814176720,2217605,0
1712814183987,1712814176760,2218421,0
1712814183987,1712814176800,2219482,0
1712814183987,1712814176840,2220777,0
1712814183987,1712814176881,2222105,0
1712814183987,1712814176920,2223646,0
1712814183987,1712814176960,2225013,0
1712814183987,1712814177001,2224675,0
1712814183987,1712814177041,2222852,0
1712814183987,1712814177082,2220531,0
1712814183987,1712814177121,2218611,0
1712814183987,1712814177161,2217455,0
1712814183987,1712814177201,2217285,0
1712814183987,1712814177241,2217388,0
1712814183987,1712814177282,2217565,0
1712814183987,1712814177322,2217854,0
1712814183987,1712814177362,2218182,0
1712814183987,1712814177402,2218866,0
1712814183987,1712814177442,2219769,0
1712814183987,1712814177483,2220901,0
1712814183987,1712814177522,2222137,0
1712814183987,1712814177562,2223407,0
1712814183987,1712814177602,2224882,0
1712814183987,1712814177642,2226255,0
1712814183987,1712814177683,2226244,0
1712814183987,1712814177723,2224510,0
1712814183987,1712814177763,2222206,0
1712814183987,1712814177803,2220167,0
1712814183987,1712814177843,2218837,0
1712814183987,1712814177884,2218422,0
1712814183987,1712814177923,2218464,0
1712814183987,1712814177964,2218466,0
1712814183987,1712814178004,2218777,0
1712814183987,1712814178044,2219028,0
1712814183987,1712814178085,2219561,0
1712814183987,1712814178124,2220199,0
1712814183987,1712814178164,2221365,0
1712814183987,1712814178204,2222507,0
1712814183987,1712814178244,2223888,0
1712814183987,1712814178285,2225422,0
1712814183987,1712814178325,2227042,0
1712814183987,1712814178365,2228374,0
1712814183987,1712814178405,2228061,0
1712814183987,1712814178445,2226095,0
1712814183987,1712814178486,2223818,0
1712814183987,1712814178525,2221931,0
1712814183987,1712814178565,2220697,0
1712814183987,1712814178605,2220407,0
1712814183987,1712814178646,2220334,0
1712814183987,1712814178687,2220287,0
1712814183987,1712814178726,2220368,0
1712814183987,1712814178766,2220695,0
1712814183987,1712814178806,2221121,0
1712814183987,1712814178846,2221865,0
1712814183987,1712814178887,2222974,0
1712814183987,1712814178927,2224352,0
1712814183987,1712814178967,2225425,0
1712814183987,1712814179007,2226854,0
1712814183987,1712814179047,2228449,0
1712814183987,1712814179088,2229972,0
1712814183987,1712814179127,2230363,0
1712814183987,1712814179167,2229183,0
1712814183987,1712814179207,2226910,0
1712814183987,1712814179247,2224958,0
1712814183987,1712814179288,2223307,0
1712814183987,1712814179328,2222618,0
1712814183987,1712814179368,2222523,0
1712814183987,1712814179408,2222441,0
1712814183987,1712814179448,2222595,0
1712814183987,1712814179489,2222558,0
1712814183987,1712814179528,2222952,0
1712814183987,1712814179568,2223715,0
1712814183987,1712814179609,2224482,0
1712814183987,1712814179649,2225542,0
1712814183987,1712814179690,2226647,0
1712814183987,1712814179729,2227920,0
1712814183987,1712814179769,2229286,0
1712814183987,1712814179809,2230726,0
1712814183987,1712814179849,2231934,0
1712814183987,1712814179890,2231622,0
1712814183987,1712814179930,2229790,0
1712814183987,1712814179970,2227665,0
1712814183987,1712814180010,2226058,0
1712814183987,1712814180050,2224881,0
1712814183987,1712814180091,2224687,0
1712814183987,1712814180131,2224725,0
1712814183987,1712814180171,2224679,0
1712814183987,1712814180211,2224777,0
1712814183987,1712814180251,2225156,0
1712814183987,1712814180292,2225802,0
1712814183987,1712814180331,2226581,0
1712814183987,1712814180372,2227670,0
1712814183987,1712814180412,2228922,0
1712814183987,1712814180452,2230263,0
1712814183987,1712814180493,2231769,0
1712814183987,1712814180532,2233288,0
1712814183987,1712814180572,2234375,0
1712814183987,1712814180612,2233687,0
1712814183987,1712814180652,2231934,0
1712814183987,1712814180693,2230188,0
1712814183987,1712814180733,2228975,0
1712814183987,1712814180773,2228369,0
1712814183987,1712814180813,2228557,0
1712814183987,1712814180853,2228697,0
1712814183987,1712814180894,2229078,0
1712814183987,1712814180933,2229369,0
1712814183987,1712814180973,2229892,0
1712814183987,1712814181013,2230650,0
1712814183987,1712814181053,2231712,0
1712814183987,1712814181094,2232995,0
1712814183987,1712814181133,2234421,0
1712814183987,1712814181174,2235932,0
1712814183987,1712814181214,2237524,0
1712814183987,1712814181254,2239297,0
1712814183987,1712814181295,2240900,0
1712814183987,1712814181334,2241153,0
1712814183987,1712814181374,2239902,0
1712814183987,1712814181414,2238275,0
1712814183987,1712814181454,2236795,0
1712814183987,1712814181495,2236056,0
1712814183987,1712814181534,2235799,0
1712814183987,1712814181575,2236039,0
1712814183987,1712814181615,2236528,0
1712814183987,1712814181655,2236885,0
1712814183987,1712814181696,2237364,0
1712814183987,1712814181735,2238103,0
1712814183987,1712814181775,2239208,0
1712814183987,1712814181815,2240329,0
1712814183987,1712814181855,2241736,0
1712814183987,1712814181896,2243247,0
1712814183987,1712814181936,2244613,0
1712814183987,1712814181976,2246145,0
1712814183987,1712814182016,2247923,0
1712814183987,1712814182056,2249603,0
1712814183987,1712814182097,2251010,0
1712814183987,1712814182136,2250822,0
1712814183987,1712814182176,2249318,0
1712814183987,1712814182216,2248059,0
1712814183987,1712814182256,2246982,0
1712814183987,1712814182297,2246537,0
1712814183987,1712814182337,2246827,0
1712814183987,1712814182377,2247213,0
1712814183987,1712814182417,2247712,0
1712814183987,1712814182457,2248152,0
1712814183987,1712814182498,2248728,0
1712814183987,1712814182537,2249555,0
1712814183987,1712814182578,2250671,0
1712814183987,1712814182618,2251952,0
1712814183987,1712814182658,2253272,0
1712814183987,1712814182699,2254789,0
1712814183987,1712814182738,2256153,0
1712814183987,1712814182778,2257568,0
1712814183987,1712814182818,2258747,0
1712814183987,1712814182858,2260082,0
1712814183987,1712814182899,2261182,0
1712814183987,1712814182939,2260722,0
1712814183987,1712814182979,2259213,0
1712814183987,1712814183019,2257771,0
1712814183987,1712814183059,2256910,0
1712814183987,1712814183100,2256713,0
1712814183987,1712814183139,2257135,0
1712814183987,1712814183179,2257792,0
1712814183987,1712814183219,2258329,0
1712814183987,1712814183260,2258907,0
1712814183987,1712814183300,2259700,0
1712814183987,1712814183340,2260719,0
1712814183987,1712814183380,2261914,0
1712814183987,1712814183420,2263316,0
1712814183987,1712814183460,2264785,0
1712814183987,1712814183501,2266246,0
1712814183987,1712814183540,2267721,0
1712814183987,1712814183580,2269391,0
1712814183987,1712814183621,2270994,0
1712814183987,1712814183661,2272710,0
1712814183987,1712814183701,2273944,0
1712814183987,1712814183741,2273653,0
1712814183987,1712814183781,2272534,0
1712814183987,1712814183821,2271503,0
1712814183987,1712814183861,2270919,0
1712814195993,1712814183903,2271053,0
1712814195993,1712814183942,2271561,0
1712814195993,1712814183983,2272205,0
1712814195993,1712814184023,2272781,0
1712814195993,1712814184063,2273237,0
1712814195993,1712814184104,2274017,0
1712814195993,1712814184143,2274904,0
1712814195993,1712814184183,2275976,0
1712814195993,1712814184223,2277189,0
1712814195993,1712814184264,2278493,0
1712814195993,1712814184304,2279889,0
1712814195993,1712814184344,2281365,0
1712814195993,1712814184384,2283040,0
1712814195993,1712814184424,2284358,0
1712814195993,1712814184464,2284361,0
1712814195993,1712814184505,2283267,0
1712814195993,1712814184545,2282096,0
1712814195993,1712814184585,2281580,0
1712814195993,1712814184625,2281446,0
1712814195993,1712814184665,2281806,0
1712814195993,1712814184706,2282442,0
1712814195993,1712814184745,2282882,0
1712814195993,1712814184785,2283434,0
1712814195993,1712814184826,2284016,0
1712814195993,1712814184866,2284945,0
1712814195993,1712814184907,2286014,0
1712814195993,1712814184946,2287275,0
1712814195993,1712814184986,2288410,0
1712814195993,1712814185026,2289819,0
1712814195993,1712814185067,2291116,0
1712814195993,1712814185107,2292547,0
1712814195993,1712814185147,2293636,0
1712814195993,1712814185187,2293263,0
1712814195993,1712814185227,2291827,0
1712814195993,1712814185267,2290644,0
1712814195993,1712814185308,2289658,0
1712814195993,1712814185347,2289481,0
1712814195993,1712814185387,2289607,0
1712814195993,1712814185428,2290185,0
1712814195993,1712814185468,2290586,0
1712814195993,1712814185509,2290862,0
1712814195993,1712814185548,2291406,0
1712814195993,1712814185588,2292052,0
1712814195993,1712814185628,2292844,0
1712814195993,1712814185669,2293937,0
1712814195993,1712814185709,2295014,0
1712814195993,1712814185749,2296236,0
1712814195993,1712814185789,2297468,0
1712814195993,1712814185829,2298702,0
1712814195993,1712814185869,2299770,0
1712814195993,1712814185910,2299121,0
1712814195993,1712814185950,2297628,0
1712814195993,1712814185990,2296019,0
1712814195993,1712814186030,2294784,0
1712814195993,1712814186070,2294080,0
1712814195993,1712814186111,2293863,0
1712814195993,1712814186151,2294012,0
1712814195993,1712814186190,2293944,0
1712814195993,1712814186231,2294030,0
1712814195993,1712814186271,2294090,0
1712814195993,1712814186312,2294487,0
1712814195993,1712814186351,2294984,0
1712814195993,1712814186392,2295740,0
1712814195993,1712814186432,2297453,0
1712814195993,1712814186471,2298414,0
1712814195993,1712814186512,2299526,0
1712814195993,1712814186552,2300643,0
1712814195993,1712814186592,2300569,0
1712814195993,1712814186632,2298935,0
1712814195993,1712814186672,2296996,0
1712814195993,1712814186713,2295313,0
1712814195993,1712814186752,2294173,0
1712814195993,1712814186792,2293495,0
1712814195993,1712814186832,2293177,0
1712814195993,1712814186873,2292977,0
1712814195993,1712814186913,2292716,0
1712814195993,1712814186953,2292520,0
1712814195993,1712814186993,2292773,0
1712814195993,1712814187033,2292948,0
1712814195993,1712814187073,2293498,0
1712814195993,1712814187114,2294327,0
1712814195993,1712814187153,2295051,0
1712814195993,1712814187193,2295855,0
1712814195993,1712814187234,2296785,0
1712814195993,1712814187274,2297887,0
1712814195993,1712814187314,2299028,0
1712814195993,1712814187354,2299041,0
1712814195993,1712814187394,2297630,0
1712814195993,1712814187434,2295657,0
1712814195993,1712814187474,2293840,0
1712814195993,1712814187515,2292583,0
1712814195993,1712814187554,2291800,0
1712814195993,1712814187594,2291513,0
1712814195993,1712814187634,2291331,0
1712814195993,1712814187675,2291314,0
1712814195993,1712814187716,2291102,0
1712814195993,1712814187755,2291133,0
1712814195993,1712814187795,2291434,0
1712814195993,1712814187835,2291843,0
1712814195993,1712814187875,2292569,0
1712814195993,1712814187916,2293348,0
1712814195993,1712814187956,2294196,0
1712814195993,1712814187996,2295100,0
1712814195993,1712814188036,2296039,0
1712814195993,1712814188076,2297049,0
1712814195993,1712814188117,2298166,0
1712814195993,1712814188156,2298517,0
1712814195993,1712814188196,2297271,0
1712814195993,1712814188236,2295570,0
1712814195993,1712814188276,2293998,0
1712814195993,1712814188317,2292762,0
1712814195993,1712814188357,2292209,0
1712814195993,1712814188397,2291899,0
1712814195993,1712814188437,2291868,0
1712814195993,1712814188477,2291651,0
1712814195993,1712814188518,2291777,0
1712814195993,1712814188557,2291947,0
1712814195993,1712814188597,2292188,0
1712814195993,1712814188638,2292763,0
1712814195993,1712814188678,2293499,0
1712814195993,1712814188718,2294275,0
1712814195993,1712814188758,2295053,0
1712814195993,1712814188798,2296157,0
1712814195993,1712814188838,2297140,0
1712814195993,1712814188878,2298259,0
1712814195993,1712814188919,2299323,0
1712814195993,1712814188958,2299048,0
1712814195993,1712814188998,2297528,0
1712814195993,1712814189039,2295645,0
1712814195993,1712814189079,2294229,0
1712814195993,1712814189119,2293259,0
1712814195993,1712814189159,2292795,0
1712814195993,1712814189199,2292728,0
1712814195993,1712814189239,2292460,0
1712814195993,1712814189280,2292338,0
1712814195993,1712814189320,2292239,0
1712814195993,1712814189360,2292434,0
1712814195993,1712814189400,2292873,0
1712814195993,1712814189440,2293557,0
1712814195993,1712814189480,2294344,0
1712814195993,1712814189521,2295000,0
1712814195993,1712814189560,2295954,0
1712814195993,1712814189600,2296917,0
1712814195993,1712814189641,2297945,0
1712814195993,1712814189681,2299251,0
1712814195993,1712814189721,2299336,0
1712814195993,1712814189761,2297887,0
1712814195993,1712814189801,2295859,0
1712814195993,1712814189841,2293959,0
1712814195993,1712814189881,2292519,0
1712814195993,1712814189922,2291597,0
1712814195993,1712814189961,2290999,0
1712814195993,1712814190002,2290629,0
1712814195993,1712814190042,2290165,0
1712814195993,1712814190082,2290008,0
1712814195993,1712814190123,2289758,0
1712814195993,1712814190162,2289897,0
1712814195993,1712814190202,2290147,0
1712814195993,1712814190243,2290888,0
1712814195993,1712814190282,2291443,0
1712814195993,1712814190323,2292261,0
1712814195993,1712814190363,2293104,0
1712814195993,1712814190403,2293925,0
1712814195993,1712814190443,2294977,0
1712814195993,1712814190483,2296048,0
1712814195993,1712814190524,2296621,0
1712814195993,1712814190563,2295371,0
1712814195993,1712814190604,2293126,0
1712814195993,1712814190644,2290797,0
1712814195993,1712814190684,2288978,0
1712814195993,1712814190725,2287546,0
1712814195993,1712814190764,2286686,0
1712814195993,1712814190804,2286357,0
1712814195993,1712814190845,2285824,0
1712814195993,1712814190885,2285535,0
1712814195993,1712814190925,2285265,0
1712814195993,1712814190965,2285438,0
1712814195993,1712814191005,2285656,0
1712814195993,1712814191045,2286052,0
1712814195993,1712814191086,2286909,0
1712814195993,1712814191126,2287593,0
1712814195993,1712814191166,2288449,0
1712814195993,1712814191206,2289308,0
1712814195993,1712814191246,2290366,0
1712814195993,1712814191286,2291547,0
1712814195993,1712814191327,2292728,0
1712814195993,1712814191366,2292799,0
1712814195993,1712814191406,2290999,0
1712814195993,1712814191447,2289015,0
1712814195993,1712814191487,2287032,0
1712814195993,1712814191528,2285640,0
1712814195993,1712814191567,2284798,0
1712814195993,1712814191607,2284368,0
1712814195993,1712814191647,2284146,0
1712814195993,1712814191688,2283982,0
1712814195993,1712814191728,2283777,0
1712814195993,1712814191768,2283884,0
1712814195993,1712814191808,2284172,0
1712814195993,1712814191848,2284834,0
1712814195993,1712814191888,2285493,0
1712814195993,1712814191929,2286349,0
1712814195993,1712814191968,2287142,0
1712814195993,1712814192008,2288273,0
1712814195993,1712814192049,2289450,0
1712814195993,1712814192089,2290602,0
1712814195993,1712814192130,2290944,0
1712814195993,1712814192169,2289750,0
1712814195993,1712814192209,2287998,0
1712814195993,1712814192249,2286441,0
1712814195993,1712814192290,2285264,0
1712814195993,1712814192330,2284619,0
1712814195993,1712814192370,2284842,0
1712814195993,1712814192410,2284886,0
1712814195993,1712814192450,2284945,0
1712814195993,1712814192490,2284977,0
1712814195993,1712814192531,2284961,0
1712814195993,1712814192570,2285666,0
1712814195993,1712814192610,2286713,0
1712814195993,1712814192650,2287715,0
1712814195993,1712814192690,2289077,0
1712814195993,1712814192731,2290865,0
1712814195993,1712814192771,2292324,0
1712814195993,1712814192811,2293899,0
1712814195993,1712814192851,2295379,0
1712814195993,1712814192891,2295806,0
1712814195993,1712814192932,2294385,0
1712814195993,1712814192971,2292496,0
1712814195993,1712814193011,2290867,0
1712814195993,1712814193051,2289543,0
1712814195993,1712814193091,2289058,0
1712814195993,1712814193132,2289085,0
1712814195993,1712814193172,2289105,0
1712814195993,1712814193212,2289288,0
1712814195993,1712814193252,2289488,0
1712814195993,1712814193292,2289837,0
1712814195993,1712814193333,2290483,0
1712814195993,1712814193372,2291229,0
1712814195993,1712814193412,2292181,0
1712814195993,1712814193452,2293120,0
1712814195993,1712814193493,2293807,0
1712814195993,1712814193533,2294986,0
1712814195993,1712814193573,2296558,0
1712814195993,1712814193613,2298223,0
1712814195993,1712814193653,2299393,0
1712814195993,1712814193693,2298443,0
1712814195993,1712814193734,2297146,0
1712814195993,1712814193773,2295914,0
1712814195993,1712814193813,2295239,0
1712814195993,1712814193853,2295167,0
1712814195993,1712814193893,2295463,0
1712814195993,1712814193934,2296012,0
1712814195993,1712814193974,2296346,0
1712814195993,1712814194014,2296514,0
1712814195993,1712814194054,2296952,0
1712814195993,1712814194094,2297417,0
1712814195993,1712814194135,2297984,0
1712814195993,1712814194174,2298774,0
1712814195993,1712814194214,2299656,0
1712814195993,1712814194254,2300533,0
1712814195993,1712814194294,2301557,0
1712814195993,1712814194335,2302861,0
1712814195993,1712814194375,2304410,0
1712814195993,1712814194415,2305475,0
1712814195993,1712814194455,2304917,0
1712814195993,1712814194495,2303257,0
1712814195993,1712814194536,2301595,0
1712814195993,1712814194575,2300451,0
1712814195993,1712814194615,2299677,0
1712814195993,1712814194655,2299434,0
1712814195993,1712814194696,2299389,0
1712814195993,1712814194736,2299386,0
1712814195993,1712814194776,2299398,0
1712814195993,1712814194816,2300177,0
1712814195993,1712814194856,2302346,0
1712814195993,1712814194896,2305109,0
1712814195993,1712814194937,2307846,0
1712814195993,1712814194976,2310260,0
1712814195993,1712814195016,2312245,0
1712814195993,1712814195057,2313792,0
1712814195993,1712814195097,2315356,0
1712814195993,1712814195137,2316664,0
1712814195993,1712814195177,2316060,0
1712814195993,1712814195217,2314318,0
1712814195993,1712814195257,2312286,0
1712814195993,1712814195297,2310371,0
1712814195993,1712814195338,2309303,0
1712814195993,1712814195377,2309015,0
1712814195993,1712814195418,2308766,0
1712814195993,1712814195458,2308444,0
1712814195993,1712814195498,2308100,0
1712814195993,1712814195539,2308274,0
1712814195993,1712814195578,2308815,0
1712814195993,1712814195618,2309537,0
1712814195993,1712814195658,2310443,0
1712814195993,1712814195698,2311347,0
1712814195993,1712814195739,2312426,0
1712814195993,1712814195779,2313576,0
1712814195993,1712814195819,2314365,0
1712814195993,1712814195859,2314018,0
1712814195993,1712814195899,2312153,0
1712814208046,1712814195939,2310032,0
1712814208046,1712814195978,2307962,0
1712814208046,1712814196019,2306298,0
1712814208046,1712814196059,2305654,0
1712814208046,1712814196099,2305640,0
1712814208046,1712814196140,2306675,0
1712814208046,1712814196179,2308478,0
1712814208046,1712814196219,2309561,0
1712814208046,1712814196259,2309471,0
1712814208046,1712814196299,2309508,0
1712814208046,1712814196340,2309620,0
1712814208046,1712814196380,2310002,0
1712814208046,1712814196420,2310527,0
1712814208046,1712814196460,2311782,0
1712814208046,1712814196500,2313187,0
1712814208046,1712814196541,2313279,0
1712814208046,1712814196580,2311771,0
1712814208046,1712814196621,2309865,0
1712814208046,1712814196661,2308250,0
1712814208046,1712814196701,2307132,0
1712814208046,1712814196742,2306888,0
1712814208046,1712814196781,2306832,0
1712814208046,1712814196821,2306787,0
1712814208046,1712814196862,2306524,0
1712814208046,1712814196902,2306749,0
1712814208046,1712814196943,2307205,0
1712814208046,1712814196982,2310305,0
1712814208046,1712814197022,2313329,0
1712814208046,1712814197062,2316432,0
1712814208046,1712814197103,2318498,0
1712814208046,1712814197143,2320099,0
1712814208046,1712814197183,2321312,0
1712814208046,1712814197223,2321940,0
1712814208046,1712814197263,2320877,0
1712814208046,1712814197303,2318750,0
1712814208046,1712814197344,2316960,0
1712814208046,1712814197384,2315637,0
1712814208046,1712814197424,2314867,0
1712814208046,1712814197464,2314842,0
1712814208046,1712814197504,2315189,0
1712814208046,1712814197545,2315792,0
1712814208046,1712814197584,2316223,0
1712814208046,1712814197625,2316662,0
1712814208046,1712814197665,2316770,0
1712814208046,1712814197705,2317023,0
1712814208046,1712814197746,2317400,0
1712814208046,1712814197785,2318047,0
1712814208046,1712814197825,2318774,0
1712814208046,1712814197865,2319921,0
1712814208046,1712814197906,2320692,0
1712814208046,1712814197947,2320138,0
1712814208046,1712814197986,2318690,0
1712814208046,1712814198026,2317596,0
1712814208046,1712814198066,2317197,0
1712814208046,1712814198106,2317176,0
1712814208046,1712814198147,2317659,0
1712814208046,1712814198187,2319036,0
1712814208046,1712814198227,2319991,0
1712814208046,1712814198267,2321144,0
1712814208046,1712814198307,2324521,0
1712814208046,1712814198348,2326254,0
1712814208046,1712814198387,2328006,0
1712814208046,1712814198428,2330370,0
1712814208046,1712814198468,2332458,0
1712814208046,1712814198508,2334116,0
1712814208046,1712814198549,2335401,0
1712814208046,1712814198588,2335815,0
1712814208046,1712814198628,2334936,0
1712814208046,1712814198668,2333552,0
1712814208046,1712814198708,2332116,0
1712814208046,1712814198749,2331103,0
1712814208046,1712814198788,2330844,0
1712814208046,1712814198828,2330806,0
1712814208046,1712814198869,2330932,0
1712814208046,1712814198909,2331025,0
1712814208046,1712814198949,2331240,0
1712814208046,1712814198989,2331308,0
1712814208046,1712814199029,2331510,0
1712814208046,1712814199069,2331915,0
1712814208046,1712814199109,2332598,0
1712814208046,1712814199150,2333085,0
1712814208046,1712814199189,2333745,0
1712814208046,1712814199229,2334521,0
1712814208046,1712814199270,2333917,0
1712814208046,1712814199310,2332320,0
1712814208046,1712814199350,2330422,0
1712814208046,1712814199390,2328779,0
1712814208046,1712814199430,2327544,0
1712814208046,1712814199470,2326800,0
1712814208046,1712814199510,2326663,0
1712814208046,1712814199551,2326568,0
1712814208046,1712814199590,2326606,0
1712814208046,1712814199631,2326837,0
1712814208046,1712814199671,2327261,0
1712814208046,1712814199711,2327925,0
1712814208046,1712814199752,2328793,0
1712814208046,1712814199791,2329946,0
1712814208046,1712814199831,2330891,0
1712814208046,1712814199871,2331985,0
1712814208046,1712814199911,2331959,0
1712814208046,1712814199952,2327901,0
1712814208046,1712814199991,2325387,0
1712814208046,1712814200031,2318065,0
1712814208046,1712814200072,2311590,0
1712814208046,1712814200112,2308946,0
1712814208046,1712814200153,2308520,0
1712814208046,1712814200192,2312491,0
1712814208046,1712814200232,2320685,0
1712814208046,1712814200272,2329276,0
1712814208046,1712814200312,2338109,0
1712814208046,1712814200353,2348664,0
1712814208046,1712814200393,2362266,0
1712814208046,1712814200433,2373644,0
1712814208046,1712814200473,2378607,0
1712814208046,1712814200513,2381587,0
1712814208046,1712814200554,2385895,0
1712814208046,1712814200593,2389577,0
1712814208046,1712814200633,2394011,0
1712814208046,1712814200673,2397623,0
1712814208046,1712814200714,2407368,0
1712814208046,1712814200754,2415083,0
1712814208046,1712814200794,2420566,0
1712814208046,1712814200834,2429580,0
1712814208046,1712814200874,2438851,0
1712814208046,1712814200914,2451083,0
1712814208046,1712814200955,2466961,0
1712814208046,1712814200994,2484800,0
1712814208046,1712814201034,2494845,0
1712814208046,1712814201075,2498175,0
1712814208046,1712814201115,2495477,0
1712814208046,1712814201156,2497068,0
1712814208046,1712814201195,2498126,0
1712814208046,1712814201235,2497488,0
1712814208046,1712814201275,2496109,0
1712814208046,1712814201316,2494518,0
1712814208046,1712814201356,2493234,0
1712814208046,1712814201396,2493525,0
1712814208046,1712814201436,2495109,0
1712814208046,1712814201476,2495697,0
1712814208046,1712814201516,2496451,0
1712814208046,1712814201557,2495904,0
1712814208046,1712814201596,2495489,0
1712814208046,1712814201636,2499982,0
1712814208046,1712814201676,2502423,0
1712814208046,1712814201716,2504742,0
1712814208046,1712814201757,2504177,0
1712814208046,1712814201797,2503604,0
1712814208046,1712814201837,2502601,0
1712814208046,1712814201877,2504382,0
1712814208046,1712814201917,2504161,0
1712814208046,1712814201958,2504741,0
1712814208046,1712814201997,2505044,0
1712814208046,1712814202038,2505993,0
1712814208046,1712814202078,2509140,0
1712814208046,1712814202118,2511695,0
1712814208046,1712814202159,2513674,0
1712814208046,1712814202198,2516415,0
1712814208046,1712814202238,2518124,0
1712814208046,1712814202278,2518392,0
1712814208046,1712814202318,2520242,0
1712814208046,1712814202359,2522619,0
1712814208046,1712814202399,2524663,0
1712814208046,1712814202439,2525922,0
1712814208046,1712814202479,2525444,0
1712814208046,1712814202519,2523796,0
1712814208046,1712814202560,2521749,0
1712814208046,1712814202599,2519752,0
1712814208046,1712814202639,2518283,0
1712814208046,1712814202679,2517645,0
1712814208046,1712814202719,2517998,0
1712814208046,1712814202760,2519251,0
1712814208046,1712814202800,2520096,0
1712814208046,1712814202840,2519867,0
1712814208046,1712814202880,2517927,0
1712814208046,1712814202920,2514772,0
1712814208046,1712814202961,2511076,0
1712814208046,1712814203000,2508768,0
1712814208046,1712814203041,2507907,0
1712814208046,1712814203081,2507387,0
1712814208046,1712814203121,2506795,0
1712814208046,1712814203162,2505755,0
1712814208046,1712814203201,2504669,0
1712814208046,1712814203241,2503757,0
1712814208046,1712814203281,2503819,0
1712814208046,1712814203321,2504334,0
1712814208046,1712814203362,2505047,0
1712814208046,1712814203402,2505855,0
1712814208046,1712814203442,2506658,0
1712814208046,1712814203482,2507561,0
1712814208046,1712814203522,2508517,0
1712814208046,1712814203563,2509576,0
1712814208046,1712814203603,2510974,0
1712814208046,1712814203643,2512422,0
1712814208046,1712814203683,2513042,0
1712814208046,1712814203723,2512116,0
1712814208046,1712814203764,2510719,0
1712814208046,1712814203803,2509410,0
1712814208046,1712814203843,2508246,0
1712814208046,1712814203883,2507698,0
1712814208046,1712814203924,2507620,0
1712814208046,1712814203965,2507781,0
1712814208046,1712814204004,2507943,0
1712814208046,1712814204044,2508137,0
1712814208046,1712814204084,2508300,0
1712814208046,1712814204124,2508779,0
1712814208046,1712814204165,2509297,0
1712814208046,1712814204205,2509969,0
1712814208046,1712814204245,2510792,0
1712814208046,1712814204285,2510563,0
1712814208046,1712814204325,2509110,0
1712814208046,1712814204366,2507505,0
1712814208046,1712814204405,2506013,0
1712814208046,1712814204446,2504899,0
1712814208046,1712814204486,2504984,0
1712814208046,1712814204526,2507914,0
1712814208046,1712814204567,2513199,0
1712814208046,1712814204606,2516199,0
1712814208046,1712814204646,2514916,0
1712814208046,1712814204686,2508017,0
1712814208046,1712814204726,2507136,0
1712814208046,1712814204767,2504837,0
1712814208046,1712814204807,2489472,0
1712814208046,1712814204847,2485556,0
1712814208046,1712814204887,2479413,0
1712814208046,1712814204927,2467873,0
1712814208046,1712814204968,2458942,0
1712814208046,1712814205007,2449345,0
1712814208046,1712814205047,2439143,0
1712814208046,1712814205087,2431584,0
1712814208046,1712814205127,2425313,0
1712814208046,1712814205168,2419380,0
1712814208046,1712814205207,2417320,0
1712814208046,1712814205247,2414775,0
1712814208046,1712814205288,2410871,0
1712814208046,1712814205328,2408947,0
1712814208046,1712814205369,2406680,0
1712814208046,1712814205408,2404876,0
1712814208046,1712814205448,2403374,0
1712814208046,1712814205488,2401975,0
1712814208046,1712814205528,2400776,0
1712814208046,1712814205569,2398045,0
1712814208046,1712814205608,2394105,0
1712814208046,1712814205649,2389422,0
1712814208046,1712814205689,2384901,0
1712814208046,1712814205729,2381040,0
1712814208046,1712814205770,2378332,0
1712814208046,1712814205809,2376169,0
1712814208046,1712814205849,2373981,0
1712814208046,1712814205889,2371988,0
1712814208046,1712814205929,2370164,0
1712814208046,1712814205970,2368530,0
1712814208046,1712814206010,2367202,0
1712814208046,1712814206050,2365977,0
1712814208046,1712814206090,2365103,0
1712814208046,1712814206130,2364485,0
1712814208046,1712814206171,2363891,0
1712814208046,1712814206210,2363215,0
1712814208046,1712814206250,2361183,0
1712814208046,1712814206290,2357987,0
1712814208046,1712814206330,2354701,0
1712814208046,1712814206372,2352063,0
1712814208046,1712814206411,2350167,0
1712814208046,1712814206451,2348761,0
1712814208046,1712814206491,2347892,0
1712814208046,1712814206531,2347052,0
1712814208046,1712814206572,2346374,0
1712814208046,1712814206611,2345764,0
1712814208046,1712814206651,2345331,0
1712814208046,1712814206692,2345003,0
1712814208046,1712814206732,2344720,0
1712814208046,1712814206773,2344409,0
1712814208046,1712814206812,2344508,0
1712814208046,1712814206852,2344616,0
1712814208046,1712814206892,2344317,0
1712814208046,1712814206932,2342904,0
1712814208046,1712814206973,2340736,0
1712814208046,1712814207012,2338718,0
1712814208046,1712814207053,2337194,0
1712814208046,1712814207093,2336522,0
1712814208046,1712814207133,2336068,0
1712814208046,1712814207174,2335617,0
1712814208046,1712814207213,2335370,0
1712814208046,1712814207253,2335060,0
1712814208046,1712814207293,2335025,0
1712814208046,1712814207334,2335016,0
1712814208046,1712814207375,2335301,0
1712814208046,1712814207414,2335653,0
1712814208046,1712814207454,2336335,0
1712814208046,1712814207494,2336708,0
1712814208046,1712814207534,2337381,0
1712814208046,1712814207575,2337382,0
1712814208046,1712814207614,2336167,0
1712814208046,1712814207655,2334446,0
1712814208046,1712814207695,2332830,0
1712814208046,1712814207735,2331763,0
1712814208046,1712814207776,2331469,0
1712814208046,1712814207815,2331518,0
1712814208046,1712814207855,2331559,0
1712814208046,1712814207895,2331689,0
1712814208046,1712814207935,2331628,0
1712814220052,1712814207979,2331860,0
1712814220052,1712814208019,2332216,0
1712814220052,1712814208059,2332724,0
1712814220052,1712814208099,2333381,0
1712814220052,1712814208139,2334016,0
1712814220052,1712814208180,2334737,0
1712814220052,1712814208219,2335437,0
1712814220052,1712814208259,2335252,0
1712814220052,1712814208299,2334053,0
1712814220052,1712814208339,2332685,0
1712814220052,1712814208381,2331384,0
1712814220052,1712814208420,2330638,0
1712814220052,1712814208460,2330540,0
1712814220052,1712814208500,2330619,0
1712814220052,1712814208540,2330696,0
1712814220052,1712814208581,2330636,0
1712814220052,1712814208620,2330589,0
1712814220052,1712814208661,2330714,0
1712814220052,1712814208701,2330845,0
1712814220052,1712814208741,2331238,0
1712814220052,1712814208782,2331700,0
1712814220052,1712814208821,2332440,0
1712814220052,1712814208861,2333242,0
1712814220052,1712814208902,2333933,0
1712814220052,1712814208941,2333936,0
1712814220052,1712814208983,2332746,0
1712814220052,1712814209022,2331354,0
1712814220052,1712814209062,2329907,0
1712814220052,1712814209102,2328839,0
1712814220052,1712814209142,2328533,0
1712814220052,1712814209183,2328453,0
1712814220052,1712814209222,2326067,0
1712814220052,1712814209263,2318884,0
1712814220052,1712814209303,2315567,0
1712814220052,1712814209343,2318384,0
1712814220052,1712814209384,2322144,0
1712814220052,1712814209423,2325897,0
1712814220052,1712814209463,2330717,0
1712814220052,1712814209503,2335487,0
1712814220052,1712814209543,2339781,0
1712814220052,1712814209584,2343106,0
1712814220052,1712814209624,2344662,0
1712814220052,1712814209664,2345637,0
1712814220052,1712814209704,2346590,0
1712814220052,1712814209744,2347614,0
1712814220052,1712814209785,2349624,0
1712814220052,1712814209824,2351364,0
1712814220052,1712814209865,2352033,0
1712814220052,1712814209905,2352572,0
1712814220052,1712814209945,2352676,0
1712814220052,1712814209986,2352310,0
1712814220052,1712814210025,2351649,0
1712814220052,1712814210065,2351207,0
1712814220052,1712814210106,2351124,0
1712814220052,1712814210146,2351044,0
1712814220052,1712814210187,2351595,0
1712814220052,1712814210226,2351303,0
1712814220052,1712814210266,2350569,0
1712814220052,1712814210306,2350451,0
1712814220052,1712814210346,2350777,0
1712814220052,1712814210387,2353539,0
1712814220052,1712814210426,2356823,0
1712814220052,1712814210467,2364096,0
1712814220052,1712814210507,2368693,0
1712814220052,1712814210547,2373276,0
1712814220052,1712814210588,2376995,0
1712814220052,1712814210627,2380401,0
1712814220052,1712814210667,2382723,0
1712814220052,1712814210707,2384849,0
1712814220052,1712814210747,2385854,0
1712814220052,1712814210788,2385072,0
1712814220052,1712814210827,2382749,0
1712814220052,1712814210867,2379479,0
1712814220052,1712814210908,2374842,0
1712814220052,1712814210948,2368276,0
1712814220052,1712814210989,2363459,0
1712814220052,1712814211028,2359408,0
1712814220052,1712814211068,2356412,0
1712814220052,1712814211108,2356042,0
1712814220052,1712814211148,2354453,0
1712814220052,1712814211189,2349415,0
1712814220052,1712814211228,2344419,0
1712814220052,1712814211268,2337737,0
1712814220052,1712814211309,2333817,0
1712814220052,1712814211349,2331732,0
1712814220052,1712814211389,2329734,0
1712814220052,1712814211429,2327467,0
1712814220052,1712814211469,2325936,0
1712814220052,1712814211509,2324576,0
1712814220052,1712814211549,2321917,0
1712814220052,1712814211590,2318177,0
1712814220052,1712814211629,2313507,0
1712814220052,1712814211670,2309103,0
1712814220052,1712814211710,2304326,0
1712814220052,1712814211750,2299589,0
1712814220052,1712814211791,2291737,0
1712814220052,1712814211830,2289861,0
1712814220052,1712814211870,2286628,0
1712814220052,1712814211910,2283242,0
1712814220052,1712814211950,2280906,0
1712814220052,1712814211991,2279138,0
1712814220052,1712814212031,2277391,0
1712814220052,1712814212070,2275960,0
1712814220052,1712814212111,2274677,0
1712814220052,1712814212151,2273406,0
1712814220052,1712814212191,2272313,0
1712814220052,1712814212231,2270286,0
1712814220052,1712814212271,2266860,0
1712814220052,1712814212311,2263123,0
1712814220052,1712814212351,2259728,0
1712814220052,1712814212392,2257014,0
1712814220052,1712814212431,2254690,0
1712814220052,1712814212472,2253140,0
1712814220052,1712814212512,2251634,0
1712814220052,1712814212552,2250272,0
1712814220052,1712814212593,2248824,0
1712814220052,1712814212632,2247909,0
1712814220052,1712814212672,2247084,0
1712814220052,1712814212712,2246522,0
1712814220052,1712814212752,2246186,0
1712814220052,1712814212793,2245801,0
1712814220052,1712814212832,2245698,0
1712814220052,1712814212873,2245022,0
1712814220052,1712814212913,2242903,0
1712814220052,1712814212953,2239808,0
1712814220052,1712814212994,2236560,0
1712814220052,1712814213033,2233779,0
1712814220052,1712814213073,2231497,0
1712814220052,1712814213113,2229810,0
1712814220052,1712814213153,2228327,0
1712814220052,1712814213194,2227306,0
1712814220052,1712814213234,2226151,0
1712814220052,1712814213274,2225296,0
1712814220052,1712814213314,2224554,0
1712814220052,1712814213354,2224001,0
1712814220052,1712814213395,2223753,0
1712814220052,1712814213434,2223585,0
1712814220052,1712814213474,2223827,0
1712814220052,1712814213514,2223867,0
1712814220052,1712814213554,2223812,0
1712814220052,1712814213595,2222279,0
1712814220052,1712814213635,2219803,0
1712814220052,1712814213675,2217099,0
1712814220052,1712814213715,2214934,0
1712814220052,1712814213755,2212952,0
1712814220052,1712814213796,2211758,0
1712814220052,1712814213835,2211063,0
1712814220052,1712814213875,2210359,0
1712814220052,1712814213915,2209604,0
1712814220052,1712814213956,2209205,0
1712814220052,1712814213996,2208952,0
1712814220052,1712814214036,2208922,0
1712814220052,1712814214076,2209008,0
1712814220052,1712814214116,2209072,0
1712814220052,1712814214156,2209400,0
1712814220052,1712814214197,2209710,0
1712814220052,1712814214236,2210322,0
1712814220052,1712814214276,2210151,0
1712814220052,1712814214317,2208770,0
1712814220052,1712814214357,2206580,0
1712814220052,1712814214398,2204451,0
1712814220052,1712814214437,2202591,0
1712814220052,1712814214477,2201301,0
1712814220052,1712814214517,2200690,0
1712814220052,1712814214557,2200370,0
1712814220052,1712814214598,2200161,0
1712814220052,1712814214638,2199953,0
1712814220052,1712814214678,2199921,0
1712814220052,1712814214718,2199971,0
1712814220052,1712814214758,2200230,0
1712814220052,1712814214799,2200644,0
1712814220052,1712814214838,2201180,0
1712814220052,1712814214878,2201860,0
1712814220052,1712814214919,2202568,0
1712814220052,1712814214959,2203345,0
1712814220052,1712814215000,2203807,0
1712814220052,1712814215039,2203005,0
1712814220052,1712814215079,2201397,0
1712814220052,1712814215119,2199742,0
1712814220052,1712814215160,2198500,0
1712814220052,1712814215200,2197787,0
1712814220052,1712814215240,2197599,0
1712814220052,1712814215280,2197552,0
1712814220052,1712814215320,2197784,0
1712814220052,1712814215360,2197915,0
1712814220052,1712814215401,2198093,0
1712814220052,1712814215440,2198550,0
1712814220052,1712814215481,2199065,0
1712814220052,1712814215521,2199891,0
1712814220052,1712814215561,2200709,0
1712814220052,1712814215602,2201551,0
1712814220052,1712814215641,2202418,0
1712814220052,1712814215681,2203488,0
1712814220052,1712814215722,2203849,0
1712814220052,1712814215762,2203164,0
1712814220052,1712814215803,2201676,0
1712814220052,1712814215842,2200386,0
1712814220052,1712814215882,2199525,0
1712814220052,1712814215922,2199050,0
1712814220052,1712814215962,2199241,0
1712814220052,1712814216003,2199383,0
1712814220052,1712814216043,2199467,0
1712814220052,1712814216083,2199582,0
1712814220052,1712814216123,2199780,0
1712814220052,1712814216166,2200172,0
1712814220052,1712814216204,2200681,0
1712814220052,1712814216244,2201269,0
1712814220052,1712814216284,2201951,0
1712814220052,1712814216324,2202753,0
1712814220052,1712814216364,2203469,0
1712814220052,1712814216405,2203207,0
1712814220052,1712814216444,2201930,0
1712814220052,1712814216485,2200425,0
1712814220052,1712814216525,2199071,0
1712814220052,1712814216565,2198394,0
1712814220052,1712814216606,2198303,0
1712814220052,1712814216645,2198320,0
1712814220052,1712814216685,2198538,0
1712814220052,1712814216725,2198579,0
1712814220052,1712814216765,2198912,0
1712814220052,1712814216806,2199233,0
1712814220052,1712814216846,2199796,0
1712814220052,1712814216886,2200239,0
1712814220052,1712814216926,2200928,0
1712814220052,1712814216966,2201887,0
1712814220052,1712814217007,2202763,0
1712814220052,1712814217046,2203076,0
1712814220052,1712814217086,2202219,0
1712814220052,1712814217126,2200736,0
1712814220052,1712814217166,2198996,0
1712814220052,1712814217207,2197708,0
1712814220052,1712814217247,2196956,0
1712814220052,1712814217287,2196800,0
1712814220052,1712814217327,2196733,0
1712814220052,1712814217367,2196764,0
1712814220052,1712814217408,2196533,0
1712814220052,1712814217447,2196442,0
1712814220052,1712814217487,2196797,0
1712814220052,1712814217527,2197095,0
1712814220052,1712814217568,2197543,0
1712814220052,1712814217608,2198021,0
1712814220052,1712814217648,2198624,0
1712814220052,1712814217688,2199231,0
1712814220052,1712814217728,2199239,0
1712814220052,1712814217768,2197915,0
1712814220052,1712814217809,2195880,0
1712814220052,1712814217848,2194143,0
1712814220052,1712814217888,2192718,0
1712814220052,1712814217929,2191857,0
1712814220052,1712814217969,2191425,0
1712814220052,1712814218009,2191170,0
1712814220052,1712814218049,2190931,0
1712814220052,1712814218089,2190520,0
1712814220052,1712814218129,2190308,0
1712814220052,1712814218169,2190329,0
1712814220052,1712814218210,2190603,0
1712814220052,1712814218249,2190918,0
1712814220052,1712814218290,2191327,0
1712814220052,1712814218330,2191748,0
1712814220052,1712814218373,2192453,0
1712814220052,1712814218411,2192315,0
1712814220052,1712814218450,2190689,0
1712814220052,1712814218490,2188487,0
1712814220052,1712814218530,2186515,0
1712814220052,1712814218570,2185119,0
1712814220052,1712814218611,2184166,0
1712814220052,1712814218651,2183545,0
1712814220052,1712814218691,2183364,0
1712814220052,1712814218731,2183081,0
1712814220052,1712814218771,2182604,0
1712814220052,1712814218812,2182540,0
1712814220052,1712814218851,2182620,0
1712814220052,1712814218891,2182758,0
1712814220052,1712814218931,2183105,0
1712814220052,1712814218972,2183574,0
1712814220052,1712814219013,2184128,0
1712814220052,1712814219052,2184425,0
1712814220052,1712814219092,2184332,0
1712814220052,1712814219132,2182698,0
1712814220052,1712814219172,2180678,0
1712814220052,1712814219213,2178935,0
1712814220052,1712814219253,2177611,0
1712814220052,1712814219293,2177066,0
1712814220052,1712814219333,2176590,0
1712814220052,1712814219373,2176383,0
1712814220052,1712814219414,2176098,0
1712814220052,1712814219453,2175870,0
1712814220052,1712814219493,2175746,0
1712814220052,1712814219533,2175911,0
1712814220052,1712814219573,2176271,0
1712814220052,1712814219614,2176709,0
1712814220052,1712814219654,2177345,0
1712814220052,1712814219694,2177933,0
1712814220052,1712814219734,2178598,0
1712814220052,1712814219774,2178141,0
1712814220052,1712814219815,2176627,0
1712814220052,1712814219855,2174744,0
1712814220052,1712814219895,2173405,0
1712814220052,1712814219935,2172365,0
1712814220052,1712814219975,2171921,0
1712814232112,1712814220013,2171699,0
1712814232112,1712814220052,2171502,0
1712814232112,1712814220092,2171265,0
1712814232112,1712814220132,2171076,0
1712814232112,1712814220173,2171225,0
1712814232112,1712814220213,2171363,0
1712814232112,1712814220253,2171607,0
1712814232112,1712814220293,2172081,0
1712814232112,1712814220333,2172721,0
1712814232112,1712814220373,2173387,0
1712814232112,1712814220414,2173328,0
1712814232112,1712814220454,2172135,0
1712814232112,1712814220494,2170304,0
1712814232112,1712814220534,2168638,0
1712814232112,1712814220574,2167442,0
1712814232112,1712814220615,2166893,0
1712814232112,1712814220654,2166759,0
1712814232112,1712814220694,2166558,0
1712814232112,1712814220735,2166524,0
1712814232112,1712814220775,2166525,0
1712814232112,1712814220816,2166815,0
1712814232112,1712814220855,2167150,0
1712814232112,1712814220895,2167609,0
1712814232112,1712814220935,2168098,0
1712814232112,1712814220975,2168927,0
1712814232112,1712814221016,2169494,0
1712814232112,1712814221056,2169994,0
1712814232112,1712814221096,2169540,0
1712814232112,1712814221136,2167900,0
1712814232112,1712814221176,2165886,0
1712814232112,1712814221217,2164225,0
1712814232112,1712814221257,2163053,0
1712814232112,1712814221297,2162279,0
1712814232112,1712814221337,2162073,0
1712814232112,1712814221377,2161860,0
1712814232112,1712814221418,2161746,0
1712814232112,1712814221457,2161621,0
1712814232112,1712814221497,2161727,0
1712814232112,1712814221538,2162096,0
1712814232112,1712814221578,2162551,0
1712814232112,1712814221619,2163032,0
1712814232112,1712814221658,2163885,0
1712814232112,1712814221698,2164566,0
1712814232112,1712814221738,2165500,0
1712814232112,1712814221779,2166167,0
1712814232112,1712814221819,2166026,0
1712814232112,1712814221859,2164449,0
1712814232112,1712814221899,2162639,0
1712814232112,1712814221939,2161041,0
1712814232112,1712814221979,2159924,0
1712814232112,1712814222020,2159272,0
1712814232112,1712814222059,2159075,0
1712814232112,1712814222100,2159018,0
1712814232112,1712814222140,2158818,0
1712814232112,1712814222180,2158834,0
1712814232112,1712814222221,2159210,0
1712814232112,1712814222260,2159733,0
1712814232112,1712814222300,2160338,0
1712814232112,1712814222340,2160980,0
1712814232112,1712814222381,2161685,0
1712814232112,1712814222421,2162384,0
1712814232112,1712814222461,2163173,0
1712814232112,1712814222501,2164145,0
1712814232112,1712814222541,2165046,0
1712814232112,1712814222581,2164711,0
1712814232112,1712814222622,2163267,0
1712814232112,1712814222661,2161783,0
1712814232112,1712814222701,2160585,0
1712814232112,1712814222741,2159865,0
1712814232112,1712814222781,2159771,0
1712814232112,1712814222822,2159974,0
1712814232112,1712814222862,2160352,0
1712814232112,1712814222902,2160443,0
1712814232112,1712814222942,2160756,0
1712814232112,1712814222982,2161186,0
1712814232112,1712814223023,2161798,0
1712814232112,1712814223062,2162546,0
1712814232112,1712814223102,2163472,0
1712814232112,1712814223142,2164279,0
1712814232112,1712814223182,2165108,0
1712814232112,1712814223223,2166038,0
1712814232112,1712814223263,2166635,0
1712814232112,1712814223303,2167385,0
1712814232112,1712814223343,2167629,0
1712814232112,1712814223383,2166711,0
1712814232112,1712814223424,2165029,0
1712814232112,1712814223463,2163553,0
1712814232112,1712814223503,2162379,0
1712814232112,1712814223543,2161848,0
1712814232112,1712814223583,2161849,0
1712814232112,1712814223624,2162036,0
1712814232112,1712814223663,2161938,0
1712814232112,1712814223704,2161933,0
1712814232112,1712814223744,2162036,0
1712814232112,1712814223784,2162340,0
1712814232112,1712814223825,2162790,0
1712814232112,1712814223864,2163416,0
1712814232112,1712814223904,2164218,0
1712814232112,1712814223944,2165095,0
1712814232112,1712814223984,2166000,0
1712814232112,1712814224025,2166942,0
1712814232112,1712814224065,2167279,0
1712814232112,1712814224105,2166032,0
1712814232112,1712814224145,2164413,0
1712814232112,1712814224185,2163078,0
1712814232112,1712814224226,2161954,0
1712814232112,1712814224265,2161312,0
1712814232112,1712814224305,2161263,0
1712814232112,1712814224345,2161285,0
1712814232112,1712814224386,2161346,0
1712814232112,1712814224426,2161444,0
1712814232112,1712814224466,2161551,0
1712814232112,1712814224506,2161920,0
1712814232112,1712814224546,2162513,0
1712814232112,1712814224586,2162931,0
1712814232112,1712814224627,2163676,0
1712814232112,1712814224666,2164359,0
1712814232112,1712814224706,2165155,0
1712814232112,1712814224747,2165923,0
1712814232112,1712814224787,2166194,0
1712814232112,1712814224828,2165189,0
1712814232112,1712814224867,2163419,0
1712814232112,1712814224907,2161706,0
1712814232112,1712814224947,2160589,0
1712814232112,1712814224987,2159949,0
1712814232112,1712814225028,2159723,0
1712814232112,1712814225068,2159908,0
1712814232112,1712814225108,2159961,0
1712814232112,1712814225148,2160016,0
1712814232112,1712814225188,2160360,0
1712814232112,1712814225229,2160802,0
1712814232112,1712814225268,2161407,0
1712814232112,1712814225308,2162190,0
1712814232112,1712814225349,2163084,0
1712814232112,1712814225389,2164050,0
1712814232112,1712814225430,2165194,0
1712814232112,1712814225469,2166253,0
1712814232112,1712814225509,2166770,0
1712814232112,1712814225549,2166013,0
1712814232112,1712814225589,2164696,0
1712814232112,1712814225630,2163690,0
1712814232112,1712814225670,2162966,0
1712814232112,1712814225710,2162667,0
1712814232112,1712814225750,2162939,0
1712814232112,1712814225790,2163214,0
1712814232112,1712814225831,2163572,0
1712814232112,1712814225870,2163889,0
1712814232112,1712814225910,2164392,0
1712814232112,1712814225951,2164997,0
1712814232112,1712814225991,2165646,0
1712814232112,1712814226032,2166580,0
1712814232112,1712814226071,2167510,0
1712814232112,1712814226111,2168576,0
1712814232112,1712814226151,2169514,0
1712814232112,1712814226191,2169495,0
1712814232112,1712814226232,2168286,0
1712814232112,1712814226272,2167042,0
1712814232112,1712814226312,2166222,0
1712814232112,1712814226352,2165776,0
1712814232112,1712814226392,2165342,0
1712814232112,1712814226433,2164869,0
1712814232112,1712814226473,2165373,0
1712814232112,1712814226513,2164642,0
1712814232112,1712814226553,2164154,0
1712814232112,1712814226593,2163475,0
1712814232112,1712814226634,2161830,0
1712814232112,1712814226673,2158411,0
1712814232112,1712814226713,2153789,0
1712814232112,1712814226754,2147966,0
1712814232112,1712814226794,2141310,0
1712814232112,1712814226835,2133597,0
1712814232112,1712814226874,2127298,0
1712814232112,1712814226914,2124213,0
1712814232112,1712814226954,2125478,0
1712814232112,1712814226994,2131918,0
1712814232112,1712814227035,2141528,0
1712814232112,1712814227075,2156828,0
1712814232112,1712814227115,2172586,0
1712814232112,1712814227155,2193573,0
1712814232112,1712814227195,2209418,0
1712814232112,1712814227236,2216406,0
1712814232112,1712814227275,2223823,0
1712814232112,1712814227316,2229471,0
1712814232112,1712814227356,2238214,0
1712814232112,1712814227396,2253434,0
1712814232112,1712814227437,2269054,0
1712814232112,1712814227476,2277494,0
1712814232112,1712814227516,2269963,0
1712814232112,1712814227557,2285337,0
1712814232112,1712814227597,2291336,0
1712814232112,1712814227638,2293786,0
1712814232112,1712814227677,2280338,0
1712814232112,1712814227717,2270395,0
1712814232112,1712814227757,2264763,0
1712814232112,1712814227798,2260432,0
1712814232112,1712814227838,2258572,0
1712814232112,1712814227878,2259418,0
1712814232112,1712814227918,2259255,0
1712814232112,1712814227958,2258600,0
1712814232112,1712814227998,2264060,0
1712814232112,1712814228039,2268805,0
1712814232112,1712814228078,2269590,0
1712814232112,1712814228118,2271164,0
1712814232112,1712814228159,2280230,0
1712814232112,1712814228199,2287049,0
1712814232112,1712814228239,2296154,0
1712814232112,1712814228279,2305954,0
1712814232112,1712814228319,2314989,0
1712814232112,1712814228359,2320455,0
1712814232112,1712814228399,2323427,0
1712814232112,1712814228440,2326180,0
1712814232112,1712814228479,2330598,0
1712814232112,1712814228519,2338188,0
1712814232112,1712814228559,2342315,0
1712814232112,1712814228600,2338769,0
1712814232112,1712814228640,2335030,0
1712814232112,1712814228680,2331180,0
1712814232112,1712814228720,2329198,0
1712814232112,1712814228760,2332118,0
1712814232112,1712814228800,2333198,0
1712814232112,1712814228841,2337670,0
1712814232112,1712814228880,2338801,0
1712814232112,1712814228920,2342607,0
1712814232112,1712814228960,2344980,0
1712814232112,1712814229001,2343693,0
1712814232112,1712814229041,2341884,0
1712814232112,1712814229081,2337232,0
1712814232112,1712814229121,2332751,0
1712814232112,1712814229161,2329733,0
1712814232112,1712814229201,2327313,0
1712814232112,1712814229242,2325911,0
1712814232112,1712814229281,2325300,0
1712814232112,1712814229321,2324755,0
1712814232112,1712814229361,2324632,0
1712814232112,1712814229401,2324307,0
1712814232112,1712814229442,2323926,0
1712814232112,1712814229482,2322498,0
1712814232112,1712814229522,2320262,0
1712814232112,1712814229562,2317989,0
1712814232112,1712814229602,2316127,0
1712814232112,1712814229643,2314410,0
1712814232112,1712814229682,2313734,0
1712814232112,1712814229722,2313148,0
1712814232112,1712814229762,2312631,0
1712814232112,1712814229802,2312192,0
1712814232112,1712814229843,2312431,0
1712814232112,1712814229883,2312803,0
1712814232112,1712814229923,2313186,0
1712814232112,1712814229963,2313853,0
1712814232112,1712814230003,2314761,0
1712814232112,1712814230044,2316015,0
1712814232112,1712814230083,2317042,0
1712814232112,1712814230123,2317725,0
1712814232112,1712814230163,2316304,0
1712814232112,1712814230203,2313603,0
1712814232112,1712814230244,2311034,0
1712814232112,1712814230284,2308959,0
1712814232112,1712814230324,2307099,0
1712814232112,1712814230364,2305896,0
1712814232112,1712814230404,2305585,0
1712814232112,1712814230445,2304786,0
1712814232112,1712814230484,2304465,0
1712814232112,1712814230524,2304264,0
1712814232112,1712814230565,2303923,0
1712814232112,1712814230605,2303863,0
1712814232112,1712814230645,2304087,0
1712814232112,1712814230685,2304239,0
1712814232112,1712814230725,2304507,0
1712814232112,1712814230765,2304780,0
1712814232112,1712814230805,2305027,0
1712814232112,1712814230846,2304075,0
1712814232112,1712814230885,2301966,0
1712814232112,1712814230926,2299270,0
1712814232112,1712814230966,2296739,0
1712814232112,1712814231006,2294694,0
1712814232112,1712814231047,2293536,0
1712814232112,1712814231086,2292780,0
1712814232112,1712814231126,2291739,0
1712814232112,1712814231166,2291046,0
1712814232112,1712814231206,2290297,0
1712814232112,1712814231247,2289661,0
1712814232112,1712814231287,2289332,0
1712814232112,1712814231327,2289414,0
1712814232112,1712814231367,2288918,0
1712814232112,1712814231407,2288407,0
1712814232112,1712814231447,2284052,0
1712814232112,1712814231487,2278177,0
1712814232112,1712814231527,2276086,0
1712814232112,1712814231567,2275285,0
1712814232112,1712814231607,2276018,0
1712814232112,1712814231648,2273763,0
1712814232112,1712814231688,2274035,0
1712814232112,1712814231728,2273523,0
1712814232112,1712814231768,2268925,0
1712814232112,1712814231808,2267451,0
1712814232112,1712814231849,2266915,0
1712814232112,1712814231888,2262415,0
1712814232112,1712814231928,2257670,0
1712814232112,1712814231968,2255246,0
1712814232112,1712814232009,2252659,0
1712814244110,1712814232048,2250246,0
1712814244110,1712814232088,2249444,0
1712814244110,1712814232128,2248043,0
1712814244110,1712814232168,2245824,0
1712814244110,1712814232208,2242272,0
1712814244110,1712814232249,2239611,0
1712814244110,1712814232288,2237243,0
1712814244110,1712814232329,2236281,0
1712814244110,1712814232369,2239003,0
1712814244110,1712814232409,2242906,0
1712814244110,1712814232450,2246457,0
1712814244110,1712814232489,2250598,0
1712814244110,1712814232529,2254863,0
1712814244110,1712814232569,2258799,0
1712814244110,1712814232610,2262736,0
1712814244110,1712814232651,2266366,0
1712814244110,1712814232690,2269869,0
1712814244110,1712814232730,2273386,0
1712814244110,1712814232770,2276767,0
1712814244110,1712814232810,2280339,0
1712814244110,1712814232851,2282889,0
1712814244110,1712814232891,2284263,0
1712814244110,1712814232931,2285295,0
1712814244110,1712814232971,2285942,0
1712814244110,1712814233011,2286676,0
1712814244110,1712814233052,2287910,0
1712814244110,1712814233092,2289169,0
1712814244110,1712814233132,2290518,0
1712814244110,1712814233172,2292189,0
1712814244110,1712814233212,2293501,0
1712814244110,1712814233253,2295097,0
1712814244110,1712814233292,2296698,0
1712814244110,1712814233332,2298480,0
1712814244110,1712814233372,2300448,0
1712814244110,1712814233413,2302243,0
1712814244110,1712814233454,2304107,0
1712814244110,1712814233493,2306082,0
1712814244110,1712814233533,2307359,0
1712814244110,1712814233573,2307431,0
1712814244110,1712814233613,2306815,0
1712814244110,1712814233654,2306425,0
1712814244110,1712814233694,2306091,0
1712814244110,1712814233734,2306228,0
1712814244110,1712814233774,2306818,0
1712814244110,1712814233814,2307605,0
1712814244110,1712814233855,2308323,0
1712814244110,1712814233894,2308913,0
1712814244110,1712814233935,2309917,0
1712814244110,1712814233975,2310773,0
1712814244110,1712814234015,2312133,0
1712814244110,1712814234056,2313265,0
1712814244110,1712814234095,2316239,0
1712814244110,1712814234135,2317286,0
1712814244110,1712814234175,2317246,0
1712814244110,1712814234216,2316032,0
1712814244110,1712814234256,2314810,0
1712814244110,1712814234296,2313841,0
1712814244110,1712814234336,2313571,0
1712814244110,1712814234376,2313864,0
1712814244110,1712814234416,2314387,0
1712814244110,1712814234457,2314803,0
1712814244110,1712814234496,2315111,0
1712814244110,1712814234536,2315659,0
1712814244110,1712814234576,2316270,0
1712814244110,1712814234616,2317303,0
1712814244110,1712814234657,2318349,0
1712814244110,1712814234697,2319657,0
1712814244110,1712814234737,2321150,0
1712814244110,1712814234777,2322427,0
1712814244110,1712814234817,2322670,0
1712814244110,1712814234858,2321857,0
1712814244110,1712814234897,2320648,0
1712814244110,1712814234937,2319601,0
1712814244110,1712814234977,2318559,0
1712814244110,1712814235018,2318061,0
1712814244110,1712814235058,2317717,0
1712814244110,1712814235098,2317812,0
1712814244110,1712814235138,2317738,0
1712814244110,1712814235178,2317530,0
1712814244110,1712814235218,2317650,0
1712814244110,1712814235259,2317899,0
1712814244110,1712814235298,2318457,0
1712814244110,1712814235338,2319046,0
1712814244110,1712814235378,2319966,0
1712814244110,1712814235418,2320879,0
1712814244110,1712814235459,2321866,0
1712814244110,1712814235499,2321085,0
1712814244110,1712814235539,2319426,0
1712814244110,1712814235579,2317681,0
1712814244110,1712814235619,2315976,0
1712814244110,1712814235660,2314730,0
1712814244110,1712814235699,2314342,0
1712814244110,1712814235739,2314169,0
1712814244110,1712814235779,2314033,0
1712814244110,1712814235819,2313848,0
1712814244110,1712814235860,2313819,0
1712814244110,1712814235900,2313975,0
1712814244110,1712814235940,2314188,0
1712814244110,1712814235980,2314661,0
1712814244110,1712814236020,2315328,0
1712814244110,1712814236061,2316220,0
1712814244110,1712814236100,2317085,0
1712814244110,1712814236140,2318021,0
1712814244110,1712814236181,2318371,0
1712814244110,1712814236221,2317140,0
1712814244110,1712814236261,2315279,0
1712814244110,1712814236301,2313521,0
1712814244110,1712814236341,2312097,0
1712814244110,1712814236381,2311284,0
1712814244110,1712814236421,2310948,0
1712814244110,1712814236462,2310798,0
1712814244110,1712814236501,2310581,0
1712814244110,1712814236541,2310465,0
1712814244110,1712814236582,2310428,0
1712814244110,1712814236622,2310719,0
1712814244110,1712814236662,2310989,0
1712814244110,1712814236702,2311439,0
1712814244110,1712814236742,2312069,0
1712814244110,1712814236782,2312731,0
1712814244110,1712814236822,2313665,0
1712814244110,1712814236863,2314437,0
1712814244110,1712814236902,2313959,0
1712814244110,1712814236943,2312399,0
1712814244110,1712814236983,2310455,0
1712814244110,1712814237023,2308833,0
1712814244110,1712814237064,2307736,0
1712814244110,1712814237103,2307187,0
1712814244110,1712814237143,2306802,0
1712814244110,1712814237183,2306847,0
1712814244110,1712814237223,2306554,0
1712814244110,1712814237264,2306442,0
1712814244110,1712814237304,2306202,0
1712814244110,1712814237344,2306440,0
1712814244110,1712814237384,2306814,0
1712814244110,1712814237424,2307270,0
1712814244110,1712814237465,2307893,0
1712814244110,1712814237504,2308627,0
1712814244110,1712814237545,2309417,0
1712814244110,1712814237584,2309050,0
1712814244110,1712814237625,2307555,0
1712814244110,1712814237666,2305747,0
1712814244110,1712814237705,2304340,0
1712814244110,1712814237745,2303365,0
1712814244110,1712814237785,2303061,0
1712814244110,1712814237825,2303040,0
1712814244110,1712814237866,2302876,0
1712814244110,1712814237906,2302666,0
1712814244110,1712814237946,2302707,0
1712814244110,1712814237986,2302946,0
1712814244110,1712814238026,2303255,0
1712814244110,1712814238067,2303847,0
1712814244110,1712814238106,2304546,0
1712814244110,1712814238146,2305308,0
1712814244110,1712814238186,2306234,0
1712814244110,1712814238226,2306390,0
1712814244110,1712814238267,2305147,0
1712814244110,1712814238307,2303323,0
1712814244110,1712814238347,2301602,0
1712814244110,1712814238387,2300401,0
1712814244110,1712814238427,2299743,0
1712814244110,1712814238468,2299562,0
1712814244110,1712814238508,2299450,0
1712814244110,1712814238548,2299441,0
1712814244110,1712814238588,2299387,0
1712814244110,1712814238628,2299494,0
1712814244110,1712814238668,2299717,0
1712814244110,1712814238708,2300250,0
1712814244110,1712814238748,2301014,0
1712814244110,1712814238788,2301751,0
1712814244110,1712814238828,2302627,0
1712814244110,1712814238869,2303521,0
1712814244110,1712814238909,2302831,0
1712814244110,1712814238949,2301031,0
1712814244110,1712814238989,2298903,0
1712814244110,1712814239029,2297202,0
1712814244110,1712814239070,2295762,0
1712814244110,1712814239109,2295157,0
1712814244110,1712814239149,2294942,0
1712814244110,1712814239189,2294697,0
1712814244110,1712814239230,2294426,0
1712814244110,1712814239270,2294435,0
1712814244110,1712814239310,2294563,0
1712814244110,1712814239350,2295148,0
1712814244110,1712814239390,2295699,0
1712814244110,1712814239430,2296448,0
1712814244110,1712814239471,2297277,0
1712814244110,1712814239510,2298256,0
1712814244110,1712814239551,2298311,0
1712814244110,1712814239591,2296967,0
1712814244110,1712814239631,2294753,0
1712814244110,1712814239672,2292915,0
1712814244110,1712814239711,2291393,0
1712814244110,1712814239751,2290400,0
1712814244110,1712814239791,2290015,0
1712814244110,1712814239832,2289847,0
1712814244110,1712814239873,2289699,0
1712814244110,1712814239912,2289561,0
1712814244110,1712814239952,2289617,0
1712814244110,1712814239992,2289906,0
1712814244110,1712814240032,2290277,0
1712814244110,1712814240073,2290839,0
1712814244110,1712814240113,2291601,0
1712814244110,1712814240153,2292376,0
1712814244110,1712814240193,2293363,0
1712814244110,1712814240233,2292999,0
1712814244110,1712814240274,2291221,0
1712814244110,1712814240313,2288920,0
1712814244110,1712814240353,2286866,0
1712814244110,1712814240394,2285288,0
1712814244110,1712814240434,2284541,0
1712814244110,1712814240474,2284149,0
1712814244110,1712814240514,2283981,0
1712814244110,1712814240554,2283655,0
1712814244110,1712814240594,2283629,0
1712814244110,1712814240634,2283653,0
1712814244110,1712814240675,2284179,0
1712814244110,1712814240714,2284709,0
1712814244110,1712814240754,2285415,0
1712814244110,1712814240794,2286266,0
1712814244110,1712814240834,2287134,0
1712814244110,1712814240875,2288254,0
1712814244110,1712814240915,2288793,0
1712814244110,1712814240955,2287676,0
1712814244110,1712814240995,2285737,0
1712814244110,1712814241035,2283778,0
1712814244110,1712814241076,2282239,0
1712814244110,1712814241115,2281206,0
1712814244110,1712814241155,2280833,0
1712814244110,1712814241195,2280536,0
1712814244110,1712814241235,2280306,0
1712814244110,1712814241276,2280091,0
1712814244110,1712814241316,2280158,0
1712814244110,1712814241356,2280419,0
1712814244110,1712814241396,2280938,0
1712814244110,1712814241436,2281513,0
1712814244110,1712814241477,2282362,0
1712814244110,1712814241516,2283229,0
1712814244110,1712814241556,2284336,0
1712814244110,1712814241596,2285367,0
1712814244110,1712814241637,2285597,0
1712814244110,1712814241677,2284319,0
1712814244110,1712814241717,2282267,0
1712814244110,1712814241757,2280474,0
1712814244110,1712814241797,2279118,0
1712814244110,1712814241837,2278310,0
1712814244110,1712814241878,2278045,0
1712814244110,1712814241917,2278050,0
1712814244110,1712814241958,2277690,0
1712814244110,1712814241998,2277566,0
1712814244110,1712814242038,2277596,0
1712814244110,1712814242079,2277786,0
1712814244110,1712814242118,2278191,0
1712814244110,1712814242158,2278777,0
1712814244110,1712814242198,2279384,0
1712814244110,1712814242239,2279999,0
1712814244110,1712814242279,2281042,0
1712814244110,1712814242319,2282037,0
1712814244110,1712814242359,2282319,0
1712814244110,1712814242399,2281271,0
1712814244110,1712814242439,2279437,0
1712814244110,1712814242480,2277943,0
1712814244110,1712814242519,2276928,0
1712814244110,1712814242559,2276443,0
1712814244110,1712814242600,2276113,0
1712814244110,1712814242640,2275937,0
1712814244110,1712814242680,2275884,0
1712814244110,1712814242720,2275797,0
1712814244110,1712814242760,2276150,0
1712814244110,1712814242800,2276690,0
1712814244110,1712814242840,2277312,0
1712814244110,1712814242881,2278399,0
1712814244110,1712814242921,2279452,0
1712814244110,1712814242961,2280979,0
1712814244110,1712814243001,2282384,0
1712814244110,1712814243041,2282727,0
1712814244110,1712814243082,2281776,0
1712814244110,1712814243121,2280353,0
1712814244110,1712814243161,2279495,0
1712814244110,1712814243202,2278991,0
1712814244110,1712814243242,2278865,0
1712814244110,1712814243282,2278907,0
1712814244110,1712814243322,2278847,0
1712814244110,1712814243362,2278987,0
1712814244110,1712814243402,2279444,0
1712814244110,1712814243442,2280113,0
1712814244110,1712814243483,2281256,0
1712814244110,1712814243523,2282349,0
1712814244110,1712814243563,2283470,0
1712814244110,1712814243603,2284218,0
1712814244110,1712814243643,2285292,0
1712814244110,1712814243684,2286631,0
1712814244110,1712814243723,2287957,0
1712814244110,1712814243763,2288411,0
1712814244110,1712814243804,2287424,0
1712814244110,1712814243844,2286082,0
1712814244110,1712814243884,2284955,0
1712814244110,1712814243924,2284165,0
1712814244110,1712814243964,2283980,0
1712814244110,1712814244004,2284271,0
1712814244110,1712814244044,2284715,0
1712814256168,1712814244086,2285221,0
1712814256168,1712814244125,2285607,0
1712814256168,1712814244166,2286253,0
1712814256168,1712814244206,2287045,0
1712814256168,1712814244246,2288013,0
1712814256168,1712814244287,2289300,0
1712814256168,1712814244326,2290554,0
1712814256168,1712814244366,2291789,0
1712814256168,1712814244407,2293209,0
1712814256168,1712814244447,2294652,0
1712814256168,1712814244487,2295118,0
1712814256168,1712814244527,2294933,0
1712814256168,1712814244567,2293849,0
1712814256168,1712814244607,2292785,0
1712814256168,1712814244647,2291649,0
1712814256168,1712814244688,2290989,0
1712814256168,1712814244728,2291184,0
1712814256168,1712814244768,2291849,0
1712814256168,1712814244808,2292533,0
1712814256168,1712814244848,2292936,0
1712814256168,1712814244889,2293201,0
1712814256168,1712814244928,2293604,0
1712814256168,1712814244968,2294539,0
1712814256168,1712814245009,2295604,0
1712814256168,1712814245049,2297196,0
1712814256168,1712814245089,2298854,0
1712814256168,1712814245129,2300924,0
1712814256168,1712814245169,2302710,0
1712814256168,1712814245209,2303622,0
1712814256168,1712814245250,2302833,0
1712814256168,1712814245290,2301208,0
1712814256168,1712814245330,2299816,0
1712814256168,1712814245370,2298956,0
1712814256168,1712814245410,2298708,0
1712814256168,1712814245450,2299016,0
1712814256168,1712814245491,2299363,0
1712814256168,1712814245530,2299445,0
1712814256168,1712814245571,2299581,0
1712814256168,1712814245611,2299621,0
1712814256168,1712814245651,2300104,0
1712814256168,1712814245692,2300565,0
1712814256168,1712814245731,2301369,0
1712814256168,1712814245771,2302170,0
1712814256168,1712814245811,2302873,0
1712814256168,1712814245852,2303739,0
1712814256168,1712814245893,2304688,0
1712814256168,1712814245932,2305491,0
1712814256168,1712814245972,2304983,0
1712814256168,1712814246012,2303250,0
1712814256168,1712814246052,2299370,0
1712814256168,1712814246093,2298171,0
1712814256168,1712814246133,2297442,0
1712814256168,1712814246173,2296910,0
1712814256168,1712814246213,2296409,0
1712814256168,1712814246253,2295977,0
1712814256168,1712814246293,2295430,0
1712814256168,1712814246333,2295075,0
1712814256168,1712814246373,2295049,0
1712814256168,1712814246413,2295057,0
1712814256168,1712814246453,2295336,0
1712814256168,1712814246494,2295685,0
1712814256168,1712814246533,2296017,0
1712814256168,1712814246574,2296543,0
1712814256168,1712814246613,2297073,0
1712814256168,1712814246654,2296865,0
1712814256168,1712814246695,2295056,0
1712814256168,1712814246734,2292630,0
1712814256168,1712814246774,2290273,0
1712814256168,1712814246814,2288556,0
1712814256168,1712814246854,2287368,0
1712814256168,1712814246895,2286460,0
1712814256168,1712814246934,2285807,0
1712814256168,1712814246974,2284856,0
1712814256168,1712814247014,2284118,0
1712814256168,1712814247055,2283504,0
1712814256168,1712814247095,2283332,0
1712814256168,1712814247135,2283215,0
1712814256168,1712814247175,2283241,0
1712814256168,1712814247215,2283525,0
1712814256168,1712814247255,2283972,0
1712814256168,1712814247296,2284504,0
1712814256168,1712814247335,2284346,0
1712814256168,1712814247375,2282752,0
1712814256168,1712814247416,2280414,0
1712814256168,1712814247455,2278079,0
1712814256168,1712814247496,2276303,0
1712814256168,1712814247536,2275186,0
1712814256168,1712814247576,2274532,0
1712814256168,1712814247616,2274104,0
1712814256168,1712814247656,2273646,0
1712814256168,1712814247697,2273244,0
1712814256168,1712814247736,2273039,0
1712814256168,1712814247776,2273083,0
1712814256168,1712814247816,2273493,0
1712814256168,1712814247857,2273853,0
1712814256168,1712814247897,2274397,0
1712814256168,1712814247937,2275181,0
1712814256168,1712814247977,2275957,0
1712814256168,1712814248017,2275479,0
1712814256168,1712814248057,2273417,0
1712814256168,1712814248098,2271036,0
1712814256168,1712814248137,2269201,0
1712814256168,1712814248177,2267544,0
1712814256168,1712814248218,2266721,0
1712814256168,1712814248258,2266334,0
1712814256168,1712814248298,2266111,0
1712814256168,1712814248338,2265833,0
1712814256168,1712814248378,2265727,0
1712814256168,1712814248418,2265952,0
1712814256168,1712814248458,2266313,0
1712814256168,1712814248499,2267457,0
1712814256168,1712814248538,2268680,0
1712814256168,1712814248578,2270153,0
1712814256168,1712814248619,2271724,0
1712814256168,1712814248659,2272920,0
1712814256168,1712814248699,2272575,0
1712814256168,1712814248739,2270785,0
1712814256168,1712814248779,2268643,0
1712814256168,1712814248819,2266758,0
1712814256168,1712814248859,2265095,0
1712814256168,1712814248900,2264575,0
1712814256168,1712814248940,2264321,0
1712814256168,1712814248980,2264344,0
1712814256168,1712814249020,2264461,0
1712814256168,1712814249060,2264455,0
1712814256168,1712814249101,2264727,0
1712814256168,1712814249140,2265249,0
1712814256168,1712814249180,2266186,0
1712814256168,1712814249221,2267056,0
1712814256168,1712814249261,2268246,0
1712814256168,1712814249301,2269618,0
1712814256168,1712814249341,2271015,0
1712814256168,1712814249381,2271376,0
1712814256168,1712814249421,2270094,0
1712814256168,1712814249461,2268239,0
1712814256168,1712814249502,2266381,0
1712814256168,1712814249541,2265080,0
1712814256168,1712814249582,2264490,0
1712814256168,1712814249622,2264332,0
1712814256168,1712814249662,2264503,0
1712814256168,1712814249703,2264729,0
1712814256168,1712814249742,2264914,0
1712814256168,1712814249782,2265366,0
1712814256168,1712814249822,2266057,0
1712814256168,1712814249862,2266997,0
1712814256168,1712814249903,2268018,0
1712814256168,1712814249943,2269256,0
1712814256168,1712814249983,2270604,0
1712814256168,1712814250023,2272126,0
1712814256168,1712814250063,2273718,0
1712814256168,1712814250104,2274496,0
1712814256168,1712814250143,2273528,0
1712814256168,1712814250183,2271901,0
1712814256168,1712814250223,2270389,0
1712814256168,1712814250264,2269421,0
1712814256168,1712814250304,2269036,0
1712814256168,1712814250344,2269176,0
1712814256168,1712814250384,2269566,0
1712814256168,1712814250424,2269976,0
1712814256168,1712814250464,2270605,0
1712814256168,1712814250505,2271317,0
1712814256168,1712814250545,2272383,0
1712814256168,1712814250585,2273456,0
1712814256168,1712814250625,2274738,0
1712814256168,1712814250665,2276203,0
1712814256168,1712814250706,2277796,0
1712814256168,1712814250745,2279679,0
1712814256168,1712814250785,2281344,0
1712814256168,1712814250825,2283069,0
1712814256168,1712814250865,2283564,0
1712814256168,1712814250906,2282590,0
1712814256168,1712814250946,2281552,0
1712814256168,1712814250986,2280468,0
1712814256168,1712814251026,2280059,0
1712814256168,1712814251066,2280213,0
1712814256168,1712814251107,2280854,0
1712814256168,1712814251146,2281382,0
1712814256168,1712814251186,2282044,0
1712814256168,1712814251227,2282789,0
1712814256168,1712814251267,2283435,0
1712814256168,1712814251307,2284581,0
1712814256168,1712814251347,2285930,0
1712814256168,1712814251387,2287429,0
1712814256168,1712814251427,2288933,0
1712814256168,1712814251467,2290613,0
1712814256168,1712814251508,2292166,0
1712814256168,1712814251548,2294039,0
1712814256168,1712814251588,2295709,0
1712814256168,1712814251628,2296372,0
1712814256168,1712814251668,2295738,0
1712814256168,1712814251709,2294674,0
1712814256168,1712814251748,2294032,0
1712814256168,1712814251788,2293814,0
1712814256168,1712814251829,2294022,0
1712814256168,1712814251869,2294733,0
1712814256168,1712814251910,2295231,0
1712814256168,1712814251949,2295925,0
1712814256168,1712814251989,2296614,0
1712814256168,1712814252029,2297613,0
1712814256168,1712814252069,2298458,0
1712814256168,1712814252110,2299235,0
1712814256168,1712814252150,2300357,0
1712814256168,1712814252190,2301317,0
1712814256168,1712814252230,2302864,0
1712814256168,1712814252270,2304317,0
1712814256168,1712814252311,2306294,0
1712814256168,1712814252350,2308159,0
1712814256168,1712814252390,2309623,0
1712814256168,1712814252430,2309455,0
1712814256168,1712814252471,2308415,0
1712814256168,1712814252511,2307403,0
1712814256168,1712814252551,2306913,0
1712814256168,1712814252591,2306954,0
1712814256168,1712814252631,2307313,0
1712814256168,1712814252671,2307967,0
1712814256168,1712814252712,2308497,0
1712814256168,1712814252751,2308895,0
1712814256168,1712814252791,2309495,0
1712814256168,1712814252832,2310164,0
1712814256168,1712814252871,2310971,0
1712814256168,1712814252912,2311785,0
1712814256168,1712814252952,2312634,0
1712814256168,1712814252992,2313889,0
1712814256168,1712814253032,2315041,0
1712814256168,1712814253072,2316236,0
1712814256168,1712814253113,2317577,0
1712814256168,1712814253152,2317844,0
1712814256168,1712814253192,2316926,0
1712814256168,1712814253232,2315479,0
1712814256168,1712814253272,2314427,0
1712814256168,1712814253313,2313790,0
1712814256168,1712814253353,2314051,0
1712814256168,1712814253393,2314087,0
1712814256168,1712814253433,2314152,0
1712814256168,1712814253473,2314285,0
1712814256168,1712814253514,2314300,0
1712814256168,1712814253553,2314448,0
1712814256168,1712814253593,2314952,0
1712814256168,1712814253634,2315532,0
1712814256168,1712814253674,2316223,0
1712814256168,1712814253714,2316966,0
1712814256168,1712814253754,2318084,0
1712814256168,1712814253794,2319179,0
1712814256168,1712814253834,2319892,0
1712814256168,1712814253874,2319372,0
1712814256168,1712814253915,2318053,0
1712814256168,1712814253954,2316703,0
1712814256168,1712814253994,2315639,0
1712814256168,1712814254035,2315085,0
1712814256168,1712814254075,2315170,0
1712814256168,1712814254116,2315061,0
1712814256168,1712814254155,2314867,0
1712814256168,1712814254195,2314819,0
1712814256168,1712814254235,2314754,0
1712814256168,1712814254276,2314948,0
1712814256168,1712814254316,2315320,0
1712814256168,1712814254356,2315687,0
1712814256168,1712814254396,2316264,0
1712814256168,1712814254436,2316972,0
1712814256168,1712814254476,2317807,0
1712814256168,1712814254517,2318492,0
1712814256168,1712814254556,2317953,0
1712814256168,1712814254596,2316247,0
1712814256168,1712814254636,2314478,0
1712814256168,1712814254676,2313055,0
1712814256168,1712814254717,2312153,0
1712814256168,1712814254757,2311789,0
1712814256168,1712814254797,2311285,0
1712814256168,1712814254837,2311040,0
1712814256168,1712814254877,2310800,0
1712814256168,1712814254918,2310622,0
1712814256168,1712814254957,2310575,0
1712814256168,1712814254997,2310799,0
1712814256168,1712814255038,2311136,0
1712814256168,1712814255078,2311752,0
1712814256168,1712814255119,2312552,0
1712814256168,1712814255158,2313523,0
1712814256168,1712814255198,2314216,0
1712814256168,1712814255238,2313571,0
1712814256168,1712814255278,2311659,0
1712814256168,1712814255319,2309635,0
1712814256168,1712814255359,2308018,0
1712814256168,1712814255399,2306676,0
1712814256168,1712814255439,2305892,0
1712814256168,1712814255479,2305425,0
1712814256168,1712814255520,2305163,0
1712814256168,1712814255559,2304838,0
1712814256168,1712814255599,2304538,0
1712814256168,1712814255639,2304404,0
1712814256168,1712814255679,2304598,0
1712814256168,1712814255720,2305000,0
1712814256168,1712814255760,2305473,0
1712814256168,1712814255800,2306259,0
1712814256168,1712814255840,2307010,0
1712814256168,1712814255880,2307997,0
1712814256168,1712814255921,2308347,0
1712814256168,1712814255961,2307266,0
1712814256168,1712814256001,2305256,0
1712814256168,1712814256041,2303189,0
1712814256168,1712814256081,2301501,0
1712814268226,1712814256123,2300069,0
1712814268226,1712814256162,2299358,0
1712814268226,1712814256202,2298977,0
1712814268226,1712814256242,2298568,0
1712814268226,1712814256283,2298307,0
1712814268226,1712814256324,2297980,0
1712814268226,1712814256363,2297884,0
1712814268226,1712814256403,2298149,0
1712814268226,1712814256443,2298573,0
1712814268226,1712814256483,2299194,0
1712814268226,1712814256524,2300105,0
1712814268226,1712814256564,2300986,0
1712814268226,1712814256604,2301867,0
1712814268226,1712814256644,2302914,0
1712814268226,1712814256684,2304060,0
1712814268226,1712814256725,2304147,0
1712814268226,1712814256765,2302774,0
1712814268226,1712814256805,2300805,0
1712814268226,1712814256845,2299145,0
1712814268226,1712814256885,2297800,0
1712814268226,1712814256926,2296794,0
1712814268226,1712814256965,2296499,0
1712814268226,1712814257006,2296128,0
1712814268226,1712814257046,2296019,0
1712814268226,1712814257086,2295756,0
1712814268226,1712814257127,2295836,0
1712814268226,1712814257166,2295962,0
1712814268226,1712814257206,2296623,0
1712814268226,1712814257246,2297258,0
1712814268226,1712814257287,2298239,0
1712814268226,1712814257327,2299311,0
1712814268226,1712814257367,2300391,0
1712814268226,1712814257407,2301754,0
1712814268226,1712814257447,2303273,0
1712814268226,1712814257487,2304682,0
1712814268226,1712814257528,2306169,0
1712814268226,1712814257568,2306811,0
1712814268226,1712814257608,2305871,0
1712814268226,1712814257648,2304373,0
1712814268226,1712814257688,2303104,0
1712814268226,1712814257729,2302088,0
1712814268226,1712814257769,2301641,0
1712814268226,1712814257809,2301673,0
1712814268226,1712814257849,2301775,0
1712814268226,1712814257889,2301773,0
1712814268226,1712814257930,2301969,0
1712814268226,1712814257969,2302216,0
1712814268226,1712814258010,2303387,0
1712814268226,1712814258049,2304296,0
1712814268226,1712814258089,2305097,0
1712814268226,1712814258130,2306330,0
1712814268226,1712814258170,2307359,0
1712814268226,1712814258210,2308553,0
1712814268226,1712814258250,2309889,0
1712814268226,1712814258290,2311201,0
1712814268226,1712814258331,2312622,0
1712814268226,1712814258370,2314039,0
1712814268226,1712814258410,2314565,0
1712814268226,1712814258450,2313614,0
1712814268226,1712814258491,2312313,0
1712814268226,1712814258531,2311158,0
1712814268226,1712814258571,2310465,0
1712814268226,1712814258611,2310167,0
1712814268226,1712814258651,2310288,0
1712814268226,1712814258691,2310569,0
1712814268226,1712814258732,2310694,0
1712814268226,1712814258771,2310878,0
1712814268226,1712814258811,2311222,0
1712814268226,1712814258852,2311821,0
1712814268226,1712814258892,2312522,0
1712814268226,1712814258932,2313457,0
1712814268226,1712814258972,2314536,0
1712814268226,1712814259012,2315546,0
1712814268226,1712814259052,2316778,0
1712814268226,1712814259092,2318007,0
1712814268226,1712814259133,2319210,0
1712814268226,1712814259172,2320482,0
1712814268226,1712814259213,2321855,0
1712814268226,1712814259253,2323219,0
1712814268226,1712814259293,2323847,0
1712814268226,1712814259334,2323049,0
1712814268226,1712814259373,2321794,0
1712814268226,1712814259413,2320819,0
1712814268226,1712814259453,2320137,0
1712814268226,1712814259493,2320088,0
1712814268226,1712814259534,2320063,0
1712814268226,1712814259574,2320263,0
1712814268226,1712814259614,2320155,0
1712814268226,1712814259654,2320265,0
1712814268226,1712814259694,2320371,0
1712814268226,1712814259735,2320795,0
1712814268226,1712814259774,2321484,0
1712814268226,1712814259814,2322438,0
1712814268226,1712814259854,2323470,0
1712814268226,1712814259894,2324424,0
1712814268226,1712814259935,2325492,0
1712814268226,1712814259975,2326455,0
1712814268226,1712814260015,2327731,0
1712814268226,1712814260055,2328832,0
1712814268226,1712814260095,2330231,0
1712814268226,1712814260136,2330729,0
1712814268226,1712814260175,2330083,0
1712814268226,1712814260215,2328953,0
1712814268226,1712814260255,2327937,0
1712814268226,1712814260296,2327244,0
1712814268226,1712814260336,2327047,0
1712814268226,1712814260376,2327147,0
1712814268226,1712814260416,2327188,0
1712814268226,1712814260456,2327099,0
1712814268226,1712814260496,2327048,0
1712814268226,1712814260537,2327201,0
1712814268226,1712814260576,2327757,0
1712814268226,1712814260616,2328105,0
1712814268226,1712814260657,2328809,0
1712814268226,1712814260697,2329753,0
1712814268226,1712814260737,2330619,0
1712814268226,1712814260777,2331493,0
1712814268226,1712814260817,2332454,0
1712814268226,1712814260857,2333622,0
1712814268226,1712814260897,2334585,0
1712814268226,1712814260938,2335057,0
1712814268226,1712814260977,2334175,0
1712814268226,1712814261018,2332774,0
1712814268226,1712814261058,2331495,0
1712814268226,1712814261098,2330440,0
1712814268226,1712814261139,2330001,0
1712814268226,1712814261178,2329913,0
1712814268226,1712814261218,2329832,0
1712814268226,1712814261258,2329806,0
1712814268226,1712814261298,2329670,0
1712814268226,1712814261339,2329682,0
1712814268226,1712814261379,2329871,0
1712814268226,1712814261419,2330265,0
1712814268226,1712814261459,2330766,0
1712814268226,1712814261499,2331628,0
1712814268226,1712814261540,2332447,0
1712814268226,1712814261579,2333329,0
1712814268226,1712814261620,2334278,0
1712814268226,1712814261660,2335444,0
1712814268226,1712814261700,2336540,0
1712814268226,1712814261741,2337413,0
1712814268226,1712814261780,2337079,0
1712814268226,1712814261820,2335794,0
1712814268226,1712814261860,2333789,0
1712814268226,1712814261900,2332469,0
1712814268226,1712814261941,2331342,0
1712814268226,1712814261981,2330681,0
1712814268226,1712814262021,2330467,0
1712814268226,1712814262061,2330154,0
1712814268226,1712814262101,2330025,0
1712814268226,1712814262142,2329753,0
1712814268226,1712814262181,2329755,0
1712814268226,1712814262222,2329915,0
1712814268226,1712814262262,2330214,0
1712814268226,1712814262302,2330735,0
1712814268226,1712814262343,2331426,0
1712814268226,1712814262382,2332163,0
1712814268226,1712814262422,2332956,0
1712814268226,1712814262462,2333922,0
1712814268226,1712814262502,2334960,0
1712814268226,1712814262543,2336003,0
1712814268226,1712814262583,2337120,0
1712814268226,1712814262623,2337594,0
1712814268226,1712814262663,2336565,0
1712814268226,1712814262703,2334874,0
1712814268226,1712814262744,2333101,0
1712814268226,1712814262783,2331580,0
1712814268226,1712814262824,2330553,0
1712814268226,1712814262864,2329946,0
1712814268226,1712814262904,2329576,0
1712814268226,1712814262945,2329230,0
1712814268226,1712814262984,2328904,0
1712814268226,1712814263024,2328822,0
1712814268226,1712814263065,2328734,0
1712814268226,1712814263105,2328942,0
1712814268226,1712814263145,2329364,0
1712814268226,1712814263185,2329853,0
1712814268226,1712814263225,2330579,0
1712814268226,1712814263265,2331310,0
1712814268226,1712814263306,2332260,0
1712814268226,1712814263346,2333099,0
1712814268226,1712814263386,2334003,0
1712814268226,1712814263426,2335137,0
1712814268226,1712814263466,2336438,0
1712814268226,1712814263506,2337118,0
1712814268226,1712814263547,2336049,0
1712814268226,1712814263586,2334310,0
1712814268226,1712814263627,2332522,0
1712814268226,1712814263667,2331135,0
1712814268226,1712814263707,2329959,0
1712814268226,1712814263748,2329331,0
1712814268226,1712814263787,2328896,0
1712814268226,1712814263827,2328524,0
1712814268226,1712814263867,2328055,0
1712814268226,1712814263908,2327586,0
1712814268226,1712814263948,2327460,0
1712814268226,1712814263988,2327448,0
1712814268226,1712814264028,2327759,0
1712814268226,1712814264068,2328143,0
1712814268226,1712814264108,2328587,0
1712814268226,1712814264149,2329158,0
1712814268226,1712814264188,2329746,0
1712814268226,1712814264228,2330473,0
1712814268226,1712814264268,2331196,0
1712814268226,1712814264308,2332101,0
1712814268226,1712814264349,2332918,0
1712814268226,1712814264389,2332379,0
1712814268226,1712814264429,2330610,0
1712814268226,1712814264469,2328363,0
1712814268226,1712814264509,2326409,0
1712814268226,1712814264550,2324698,0
1712814268226,1712814264589,2323543,0
1712814268226,1712814264629,2322602,0
1712814268226,1712814264669,2321737,0
1712814268226,1712814264709,2320737,0
1712814268226,1712814264750,2319828,0
1712814268226,1712814264790,2319147,0
1712814268226,1712814264830,2318698,0
1712814268226,1712814264870,2318530,0
1712814268226,1712814264910,2318550,0
1712814268226,1712814264951,2318585,0
1712814268226,1712814264990,2318853,0
1712814268226,1712814265030,2319326,0
1712814268226,1712814265070,2319699,0
1712814268226,1712814265111,2320134,0
1712814268226,1712814265151,2320818,0
1712814268226,1712814265191,2321151,0
1712814268226,1712814265231,2320249,0
1712814268226,1712814265271,2317891,0
1712814268226,1712814265311,2315265,0
1712814268226,1712814265352,2312918,0
1712814268226,1712814265391,2310920,0
1712814268226,1712814265431,2309441,0
1712814268226,1712814265472,2308238,0
1712814268226,1712814265512,2307064,0
1712814268226,1712814265552,2305994,0
1712814268226,1712814265592,2304886,0
1712814268226,1712814265632,2304113,0
1712814268226,1712814265672,2303646,0
1712814268226,1712814265712,2303337,0
1712814268226,1712814265753,2303395,0
1712814268226,1712814265792,2303507,0
1712814268226,1712814265833,2303649,0
1712814268226,1712814265873,2303972,0
1712814268226,1712814265913,2304254,0
1712814268226,1712814265954,2304754,0
1712814268226,1712814265993,2305092,0
1712814268226,1712814266033,2304037,0
1712814268226,1712814266073,2301434,0
1712814268226,1712814266113,2298625,0
1712814268226,1712814266154,2296104,0
1712814268226,1712814266194,2294074,0
1712814268226,1712814266234,2292416,0
1712814268226,1712814266274,2291370,0
1712814268226,1712814266314,2290307,0
1712814268226,1712814266355,2289154,0
1712814268226,1712814266394,2288205,0
1712814268226,1712814266434,2287459,0
1712814268226,1712814266474,2286976,0
1712814268226,1712814266514,2286797,0
1712814268226,1712814266555,2286526,0
1712814268226,1712814266595,2286758,0
1712814268226,1712814266635,2286816,0
1712814268226,1712814266675,2287182,0
1712814268226,1712814266715,2287536,0
1712814268226,1712814266756,2288063,0
1712814268226,1712814266795,2287741,0
1712814268226,1712814266835,2285677,0
1712814268226,1712814266875,2282918,0
1712814268226,1712814266916,2280173,0
1712814268226,1712814266956,2278230,0
1712814268226,1712814266996,2276723,0
1712814268226,1712814267036,2275762,0
1712814268226,1712814267076,2274803,0
1712814268226,1712814267116,2273866,0
1712814268226,1712814267157,2272953,0
1712814268226,1712814267196,2272232,0
1712814268226,1712814267236,2271898,0
1712814268226,1712814267277,2271660,0
1712814268226,1712814267317,2271748,0
1712814268226,1712814267358,2271850,0
1712814268226,1712814267397,2272177,0
1712814268226,1712814267437,2272615,0
1712814268226,1712814267477,2273168,0
1712814268226,1712814267518,2272972,0
1712814268226,1712814267558,2271115,0
1712814268226,1712814267598,2268592,0
1712814268226,1712814267638,2266080,0
1712814268226,1712814267678,2264192,0
1712814268226,1712814267718,2262888,0
1712814268226,1712814267759,2262150,0
1712814268226,1712814267798,2261511,0
1712814268226,1712814267838,2260847,0
1712814268226,1712814267879,2260259,0
1712814268226,1712814267919,2259803,0
1712814268226,1712814267960,2259863,0
1712814268226,1712814267999,2259881,0
1712814268226,1712814268039,2260388,0
1712814268226,1712814268079,2260896,0
1712814268226,1712814268119,2261580,0
1712814280252,1712814268159,2262562,0
1712814280252,1712814268199,2263372,0
1712814280252,1712814268239,2263076,0
1712814280252,1712814268279,2261284,0
1712814280252,1712814268319,2258929,0
1712814280252,1712814268360,2256850,0
1712814280252,1712814268399,2255136,0
1712814280252,1712814268439,2254377,0
1712814280252,1712814268480,2253852,0
1712814280252,1712814268520,2253436,0
1712814280252,1712814268560,2253149,0
1712814280252,1712814268600,2252913,0
1712814280252,1712814268640,2252942,0
1712814280252,1712814268680,2253289,0
1712814280252,1712814268721,2253941,0
1712814280252,1712814268761,2254464,0
1712814280252,1712814268801,2255535,0
1712814280252,1712814268841,2256575,0
1712814280252,1712814268881,2257694,0
1712814280252,1712814268921,2258568,0
1712814280252,1712814268962,2257985,0
1712814280252,1712814269001,2255965,0
1712814280252,1712814269041,2253687,0
1712814280252,1712814269082,2251721,0
1712814280252,1712814269122,2250215,0
1712814280252,1712814269162,2249296,0
1712814280252,1712814269202,2248902,0
1712814280252,1712814269242,2248728,0
1712814280252,1712814269282,2248576,0
1712814280252,1712814269322,2248549,0
1712814280252,1712814269363,2248691,0
1712814280252,1712814269403,2249319,0
1712814280252,1712814269443,2249961,0
1712814280252,1712814269483,2250913,0
1712814280252,1712814269523,2252000,0
1712814280252,1712814269564,2253275,0
1712814280252,1712814269603,2254519,0
1712814280252,1712814269643,2255938,0
1712814280252,1712814269684,2257324,0
1712814280252,1712814269724,2256993,0
1712814280252,1712814269765,2255352,0
1712814280252,1712814269804,2253362,0
1712814280252,1712814269844,2251489,0
1712814280252,1712814269884,2250095,0
1712814280252,1712814269925,2249118,0
1712814280252,1712814269965,2249214,0
1712814280252,1712814270005,2249100,0
1712814280252,1712814270045,2249417,0
1712814280252,1712814270085,2249769,0
1712814280252,1712814270125,2250510,0
1712814280252,1712814270166,2251323,0
1712814280252,1712814270205,2252365,0
1712814280252,1712814270245,2253442,0
1712814280252,1712814270285,2254738,0
1712814280252,1712814270325,2256197,0
1712814280252,1712814270366,2257737,0
1712814280252,1712814270406,2259359,0
1712814280252,1712814270446,2261156,0
1712814280252,1712814270486,2262256,0
1712814280252,1712814270526,2261779,0
1712814280252,1712814270567,2259991,0
1712814280252,1712814270606,2258256,0
1712814280252,1712814270646,2256818,0
1712814280252,1712814270686,2255902,0
1712814280252,1712814270726,2255628,0
1712814280252,1712814270767,2255690,0
1712814280252,1712814270807,2255905,0
1712814280252,1712814270847,2256095,0
1712814280252,1712814270887,2256380,0
1712814280252,1712814270927,2256991,0
1712814280252,1712814270968,2257809,0
1712814280252,1712814271007,2259029,0
1712814280252,1712814271047,2260246,0
1712814280252,1712814271087,2261650,0
1712814280252,1712814271127,2263116,0
1712814280252,1712814271168,2264605,0
1712814280252,1712814271208,2266260,0
1712814280252,1712814271248,2267910,0
1712814280252,1712814271288,2269817,0
1712814280252,1712814271328,2271360,0
1712814280252,1712814271369,2271492,0
1712814280252,1712814271408,2270492,0
1712814280252,1712814271448,2269239,0
1712814280252,1712814271488,2268448,0
1712814280252,1712814271528,2267790,0
1712814280252,1712814271569,2267875,0
1712814280252,1712814271609,2268251,0
1712814280252,1712814271649,2268827,0
1712814280252,1712814271689,2269354,0
1712814280252,1712814271729,2269963,0
1712814280252,1712814271770,2270830,0
1712814280252,1712814271809,2272095,0
1712814280252,1712814271849,2273266,0
1712814280252,1712814271889,2274687,0
1712814280252,1712814271929,2276208,0
1712814280252,1712814271970,2277762,0
1712814280252,1712814272010,2279531,0
1712814280252,1712814272050,2281399,0
1712814280252,1712814272090,2283291,0
1712814280252,1712814272130,2285297,0
1712814280252,1712814272171,2287250,0
1712814280252,1712814272210,2288479,0
1712814280252,1712814272250,2288341,0
1712814280252,1712814272291,2287524,0
1712814280252,1712814272331,2286848,0
1712814280252,1712814272371,2286399,0
1712814280252,1712814272411,2286490,0
1712814280252,1712814272451,2287167,0
1712814280252,1712814272491,2287734,0
1712814280252,1712814272531,2288486,0
1712814280252,1712814272572,2289275,0
1712814280252,1712814272612,2290102,0
1712814280252,1712814272652,2291226,0
1712814280252,1712814272692,2292541,0
1712814280252,1712814272732,2293846,0
1712814280252,1712814272773,2295241,0
1712814280252,1712814272812,2296709,0
1712814280252,1712814272852,2298436,0
1712814280252,1712814272892,2300222,0
1712814280252,1712814272932,2301784,0
1712814280252,1712814272973,2303609,0
1712814280252,1712814273012,2305419,0
1712814280252,1712814273053,2307056,0
1712814280252,1712814273093,2307287,0
1712814280252,1712814273133,2306462,0
1712814280252,1712814273174,2305816,0
1712814280252,1712814273213,2305224,0
1712814280252,1712814273253,2305085,0
1712814280252,1712814273293,2305438,0
1712814280252,1712814273333,2306120,0
1712814280252,1712814273374,2306645,0
1712814280252,1712814273414,2307258,0
1712814280252,1712814273454,2307794,0
1712814280252,1712814273494,2308533,0
1712814280252,1712814273534,2309614,0
1712814280252,1712814273575,2310756,0
1712814280252,1712814273614,2312021,0
1712814280252,1712814273655,2313413,0
1712814280252,1712814273695,2314950,0
1712814280252,1712814273735,2316435,0
1712814280252,1712814273776,2317923,0
1712814280252,1712814273815,2319633,0
1712814280252,1712814273855,2321185,0
1712814280252,1712814273895,2321984,0
1712814280252,1712814273935,2321519,0
1712814280252,1712814273976,2320690,0
1712814280252,1712814274016,2319823,0
1712814280252,1712814274056,2319436,0
1712814280252,1712814274096,2319565,0
1712814280252,1712814274136,2319973,0
1712814280252,1712814274177,2320488,0
1712814280252,1712814274216,2320817,0
1712814280252,1712814274256,2321044,0
1712814280252,1712814274296,2321424,0
1712814280252,1712814274337,2321978,0
1712814280252,1712814274378,2322536,0
1712814280252,1712814274417,2323385,0
1712814280252,1712814274457,2324168,0
1712814280252,1712814274497,2325022,0
1712814280252,1712814274537,2325973,0
1712814280252,1712814274578,2327039,0
1712814280252,1712814274618,2328102,0
1712814280252,1712814274658,2329237,0
1712814280252,1712814274698,2329732,0
1712814280252,1712814274738,2328855,0
1712814280252,1712814274779,2327517,0
1712814280252,1712814274818,2326177,0
1712814280252,1712814274859,2325440,0
1712814280252,1712814274899,2325015,0
1712814280252,1712814274939,2324932,0
1712814280252,1712814274980,2324826,0
1712814280252,1712814275019,2324543,0
1712814280252,1712814275059,2324119,0
1712814280252,1712814275100,2323954,0
1712814280252,1712814275140,2323786,0
1712814280252,1712814275180,2323919,0
1712814280252,1712814275220,2324145,0
1712814280252,1712814275260,2324418,0
1712814280252,1712814275300,2324647,0
1712814280252,1712814275341,2325123,0
1712814280252,1712814275381,2325500,0
1712814280252,1712814275421,2325600,0
1712814280252,1712814275461,2324544,0
1712814280252,1712814275501,2322358,0
1712814280252,1712814275541,2319912,0
1712814280252,1712814275582,2317863,0
1712814280252,1712814275621,2316289,0
1712814280252,1712814275662,2315295,0
1712814280252,1712814275702,2314437,0
1712814280252,1712814275742,2313295,0
1712814280252,1712814275783,2312106,0
1712814280252,1712814275822,2311058,0
1712814280252,1712814275862,2310174,0
1712814280252,1712814275902,2309398,0
1712814280252,1712814275943,2308906,0
1712814280252,1712814275983,2308512,0
1712814280252,1712814276023,2308323,0
1712814280252,1712814276063,2308359,0
1712814280252,1712814276103,2308443,0
1712814280252,1712814276143,2307736,0
1712814280252,1712814276184,2305420,0
1712814280252,1712814276223,2302423,0
1712814280252,1712814276263,2299419,0
1712814280252,1712814276303,2296974,0
1712814280252,1712814276346,2295069,0
1712814280252,1712814276384,2293607,0
1712814280252,1712814276424,2292313,0
1712814280252,1712814276464,2290857,0
1712814280252,1712814276504,2289759,0
1712814280252,1712814276544,2288829,0
1712814280252,1712814276585,2288283,0
1712814280252,1712814276624,2287916,0
1712814280252,1712814276664,2287480,0
1712814280252,1712814276704,2287626,0
1712814280252,1712814276744,2287796,0
1712814280252,1712814276785,2287991,0
1712814280252,1712814276825,2287992,0
1712814280252,1712814276865,2286439,0
1712814280252,1712814276905,2283465,0
1712814280252,1712814276945,2280061,0
1712814280252,1712814276986,2276771,0
1712814280252,1712814277025,2273900,0
1712814280252,1712814277065,2271844,0
1712814280252,1712814277105,2270294,0
1712814280252,1712814277146,2269050,0
1712814280252,1712814277186,2267874,0
1712814280252,1712814277226,2266885,0
1712814280252,1712814277266,2266246,0
1712814280252,1712814277306,2265783,0
1712814280252,1712814277346,2265793,0
1712814280252,1712814277387,2266016,0
1712814280252,1712814277426,2266374,0
1712814280252,1712814277466,2266955,0
1712814280252,1712814277507,2267581,0
1712814280252,1712814277547,2268211,0
1712814280252,1712814277588,2267680,0
1712814280252,1712814277627,2265348,0
1712814280252,1712814277667,2262385,0
1712814280252,1712814277707,2259198,0
1712814280252,1712814277747,2256519,0
1712814280252,1712814277788,2254437,0
1712814280252,1712814277828,2253069,0
1712814280252,1712814277868,2252144,0
1712814280252,1712814277908,2251291,0
1712814280252,1712814277948,2250430,0
1712814280252,1712814277989,2249901,0
1712814280252,1712814278028,2249730,0
1712814280252,1712814278068,2249766,0
1712814280252,1712814278108,2250245,0
1712814280252,1712814278148,2250723,0
1712814280252,1712814278189,2251495,0
1712814280252,1712814278229,2252471,0
1712814280252,1712814278269,2253449,0
1712814280252,1712814278309,2254734,0
1712814280252,1712814278349,2256186,0
1712814280252,1712814278390,2256891,0
1712814280252,1712814278429,2255980,0
1712814280252,1712814278469,2253775,0
1712814280252,1712814278509,2251471,0
1712814280252,1712814278552,2249504,0
1712814280252,1712814278591,2248197,0
1712814280252,1712814278630,2247700,0
1712814280252,1712814278670,2247470,0
1712814280252,1712814278710,2247449,0
1712814280252,1712814278750,2247418,0
1712814280252,1712814278791,2247598,0
1712814280252,1712814278831,2248061,0
1712814280252,1712814278871,2248672,0
1712814280252,1712814278911,2249726,0
1712814280252,1712814278951,2250873,0
1712814280252,1712814278992,2252056,0
1712814280252,1712814279031,2253795,0
1712814280252,1712814279071,2255296,0
1712814280252,1712814279112,2256914,0
1712814280252,1712814279152,2258660,0
1712814280252,1712814279193,2260382,0
1712814280252,1712814279232,2262241,0
1712814280252,1712814279272,2262959,0
1712814280252,1712814279312,2261953,0
1712814280252,1712814279352,2260142,0
1712814280252,1712814279393,2258408,0
1712814280252,1712814279433,2256919,0
1712814280252,1712814279473,2255897,0
1712814280252,1712814279513,2255579,0
1712814280252,1712814279553,2255450,0
1712814280252,1712814279594,2255492,0
1712814280252,1712814279633,2255344,0
1712814280252,1712814279674,2255478,0
1712814280252,1712814279714,2255718,0
1712814280252,1712814279754,2256406,0
1712814280252,1712814279795,2257488,0
1712814280252,1712814279834,2258750,0
1712814280252,1712814279874,2260246,0
1712814280252,1712814279915,2261866,0
1712814280252,1712814279954,2263257,0
1712814280252,1712814279995,2264969,0
1712814280252,1712814280035,2266647,0
1712814280252,1712814280075,2268463,0
1712814280252,1712814280115,2270517,0
1712814280252,1712814280155,2271666,0
1712814292312,1712814280195,2271211,0
1712814292312,1712814280234,2269973,0
1712814292312,1712814280275,2268867,0
1712814292312,1712814280315,2268027,0
1712814292312,1712814280355,2267689,0
1712814292312,1712814280396,2267970,0
1712814292312,1712814280435,2268308,0
1712814292312,1712814280475,2268502,0
1712814292312,1712814280516,2268778,0
1712814292312,1712814280556,2269218,0
1712814292312,1712814280597,2269999,0
1712814292312,1712814280636,2271009,0
1712814292312,1712814280676,2272161,0
1712814292312,1712814280716,2273559,0
1712814292312,1712814280757,2274857,0
1712814292312,1712814280797,2276427,0
1712814292312,1712814280837,2278100,0
1712814292312,1712814280877,2279686,0
1712814292312,1712814280917,2281313,0
1712814292312,1712814280957,2283222,0
1712814292312,1712814280998,2285056,0
1712814292312,1712814281037,2286582,0
1712814292312,1712814281078,2286413,0
1712814292312,1712814281118,2285289,0
1712814292312,1712814281158,2284095,0
1712814292312,1712814281199,2283205,0
1712814292312,1712814281238,2282659,0
1712814292312,1712814281278,2282401,0
1712814292312,1712814281319,2282178,0
1712814292312,1712814281359,2282065,0
1712814292312,1712814281399,2282573,0
1712814292312,1712814281439,2282744,0
1712814292312,1712814281479,2284247,0
1712814292312,1712814281519,2285269,0
1712814292312,1712814281559,2287854,0
1712814292312,1712814281600,2289482,0
1712814292312,1712814281640,2290959,0
1712814292312,1712814281680,2292452,0
1712814292312,1712814281720,2293903,0
1712814292312,1712814281760,2295660,0
1712814292312,1712814281801,2297402,0
1712814292312,1712814281840,2299135,0
1712814292312,1712814281880,2300766,0
1712814292312,1712814281920,2300899,0
1712814292312,1712814281960,2299892,0
1712814292312,1712814282001,2298442,0
1712814292312,1712814282041,2297277,0
1712814292312,1712814282081,2296442,0
1712814292312,1712814282121,2296151,0
1712814292312,1712814282161,2296083,0
1712814292312,1712814282202,2296000,0
1712814292312,1712814282241,2295917,0
1712814292312,1712814282281,2295760,0
1712814292312,1712814282321,2296119,0
1712814292312,1712814282361,2296477,0
1712814292312,1712814282402,2297024,0
1712814292312,1712814282442,2297745,0
1712814292312,1712814282482,2298644,0
1712814292312,1712814282522,2299696,0
1712814292312,1712814282562,2300761,0
1712814292312,1712814282603,2301916,0
1712814292312,1712814282642,2303093,0
1712814292312,1712814282682,2304298,0
1712814292312,1712814282722,2305612,0
1712814292312,1712814282763,2306671,0
1712814292312,1712814282803,2306575,0
1712814292312,1712814282843,2305225,0
1712814292312,1712814282883,2303342,0
1712814292312,1712814282923,2301709,0
1712814292312,1712814282963,2300472,0
1712814292312,1712814283004,2299770,0
1712814292312,1712814283043,2299376,0
1712814292312,1712814283083,2298794,0
1712814292312,1712814283123,2298392,0
1712814292312,1712814283164,2297965,0
1712814292312,1712814283204,2297603,0
1712814292312,1712814283244,2297554,0
1712814292312,1712814283284,2297806,0
1712814292312,1712814283324,2298098,0
1712814292312,1712814283364,2298548,0
1712814292312,1712814283405,2299121,0
1712814292312,1712814283444,2299691,0
1712814292312,1712814283484,2300250,0
1712814292312,1712814283525,2301172,0
1712814292312,1712814283565,2302012,0
1712814292312,1712814283606,2302358,0
1712814292312,1712814283645,2300996,0
1712814292312,1712814283685,2298852,0
1712814292312,1712814283725,2296916,0
1712814292312,1712814283765,2295298,0
1712814292312,1712814283806,2294108,0
1712814292312,1712814283845,2293457,0
1712814292312,1712814283886,2292856,0
1712814292312,1712814283926,2292266,0
1712814292312,1712814283966,2291587,0
1712814292312,1712814284007,2291117,0
1712814292312,1712814284046,2290873,0
1712814292312,1712814284086,2290818,0
1712814292312,1712814284126,2291137,0
1712814292312,1712814284166,2291419,0
1712814292312,1712814284207,2291956,0
1712814292312,1712814284247,2292664,0
1712814292312,1712814284287,2293283,0
1712814292312,1712814284327,2293972,0
1712814292312,1712814284367,2293641,0
1712814292312,1712814284408,2291808,0
1712814292312,1712814284447,2289494,0
1712814292312,1712814284487,2287468,0
1712814292312,1712814284527,2285874,0
1712814292312,1712814284568,2284832,0
1712814292312,1712814284609,2284119,0
1712814292312,1712814284648,2283499,0
1712814292312,1712814284688,2282719,0
1712814292312,1712814284728,2282036,0
1712814292312,1712814284768,2281641,0
1712814292312,1712814284809,2281610,0
1712814292312,1712814284849,2281555,0
1712814292312,1712814284889,2281801,0
1712814292312,1712814284929,2282293,0
1712814292312,1712814284969,2282950,0
1712814292312,1712814285010,2283717,0
1712814292312,1712814285049,2284598,0
1712814292312,1712814285089,2284062,0
1712814292312,1712814285129,2282163,0
1712814292312,1712814285170,2279384,0
1712814292312,1712814285211,2277075,0
1712814292312,1712814285250,2274951,0
1712814292312,1712814285290,2273252,0
1712814292312,1712814285330,2272128,0
1712814292312,1712814285370,2271281,0
1712814292312,1712814285411,2270394,0
1712814292312,1712814285451,2269708,0
1712814292312,1712814285491,2269211,0
1712814292312,1712814285531,2269057,0
1712814292312,1712814285571,2269128,0
1712814292312,1712814285612,2269252,0
1712814292312,1712814285651,2269530,0
1712814292312,1712814285691,2270194,0
1712814292312,1712814285731,2270776,0
1712814292312,1712814285772,2271683,0
1712814292312,1712814285813,2272035,0
1712814292312,1712814285852,2270481,0
1712814292312,1712814285892,2268163,0
1712814292312,1712814285932,2265402,0
1712814292312,1712814285972,2262780,0
1712814292312,1712814286013,2260679,0
1712814292312,1712814286053,2259388,0
1712814292312,1712814286093,2258341,0
1712814292312,1712814286133,2257563,0
1712814292312,1712814286173,2257005,0
1712814292312,1712814286214,2256486,0
1712814292312,1712814286253,2256284,0
1712814292312,1712814286294,2256437,0
1712814292312,1712814286334,2256524,0
1712814292312,1712814286374,2256958,0
1712814292312,1712814286415,2257746,0
1712814292312,1712814286454,2258688,0
