Timestamp,Cleaned_PPG
1712016476222,0.0
1712016476265,0.0
1712016476303,0.0
1712016476342,0.0
1712016476384,0.0
1712016476423,0.0
1712016476463,0.0
1712016476503,0.0
1712016476543,0.0
1712016476584,0.0
1712016476623,0.0
1712016476663,0.0
1712016476703,0.0
1712016476743,0.0
1712016476784,0.0
1712016476823,0.0
1712016476864,0.0
1712016476904,0.0
1712016476944,0.0
1712016476985,0.0
1712016477024,0.0
1712016477064,0.0
1712016477104,0.0
1712016477144,0.0
1712016477185,0.0
1712016477224,0.0
1712016477264,0.0
1712016477304,0.0
1712016477345,0.0
1712016477386,0.0
1712016477425,0.0
1712016477465,0.0
1712016477505,2120019.0
1712016477545,1989474.831098407
1712016477586,1867103.319770211
1712016477625,1752664.2333320803
1712016477665,1645317.5536456476
1712016477705,1544648.2531430237
1712016477746,1450343.3290250278
1712016477786,1362055.398086226
1712016477826,1279243.026902262
1712016477866,1201575.0788793
1712016477906,1128604.7757437872
1712016477946,1058233.524755148
1712016477987,991600.2822345286
1712016478026,929188.3825679293
1712016478066,870851.6862898308
1712016478106,815814.5457044342
1712016478146,765392.8179109544
1712016478187,718416.074898774
1712016478226,674155.8430442063
1712016478266,633626.5549432321
1712016478306,595339.4919930804
1712016478347,560344.3930131621
1712016478388,527879.4511383888
1712016478427,496645.56432569097
1712016478470,467580.21426200494
1712016478507,439255.5575937154
1712016478547,412994.2305689077
1712016478588,388930.570715284
1712016478627,366807.4284045603
1712016478667,345701.03878326155
1712016478708,324932.0421043262
1712016478748,304721.02681084815
1712016478789,285740.06622346584
1712016478828,267634.43859870033
1712016478868,251584.2664819127
1712016478908,235634.97927578725
1712016478948,220715.16420322098
1712016478989,207839.93994245864
1712016479028,195685.03780867555
1712016479068,184177.41991167236
1712016479108,173897.07595122885
1712016479148,164629.85584435333
1712016479190,155853.4260423286
1712016479229,148024.33510014694
1712016479269,140907.57756821392
1712016479309,133268.80322443787
1712016479349,126834.14404813247
1712016479390,120508.56235875655
1712016479429,113172.12403519661
1712016479469,105527.11174505367
1712016479509,97944.68065248756
1712016479550,90534.39863200905
1712016479591,84079.22060758201
1712016479630,78786.76284249779
1712016479670,73482.44610806461
1712016479710,69604.44706242904
1712016479750,66439.12174437195
1712016479791,65266.55769012589
1712016479830,63026.95767918555
1712016479870,61013.18615567777
1712016479910,57706.5326733524
1712016479950,55287.01107062213
1712016479991,52466.36341691157
1712016480031,50761.08031627815
1712016480071,49625.29900319502
1712016480111,48474.95680682361
1712016480151,45996.717587617226
1712016480192,42681.62534061633
1712016480231,37943.601050407626
1712016480271,34743.775946545415
1712016480311,32547.996104835533
1712016480351,31130.48742427677
1712016480392,29450.43677921407
1712016480431,29049.868132611737
1712016480472,28345.302716360427
1712016480512,28047.587647667155
1712016480552,27272.701385827735
1712016480593,27881.361244284082
1712016480632,28615.11961433431
1712016480675,28620.98726407485
1712016480712,29372.799094836693
1712016480752,31509.99026703881
1712016480793,32585.25261677988
1712016480832,35666.31998081133
1712016480873,37811.886285384186
1712016480913,38069.71586172562
1712016480953,38178.00470316503
1712016480994,37991.75948155299
1712016481033,37235.094972307794
1712016481073,35787.138978279196
1712016481113,36361.56916185375
1712016481153,37117.659468567
1712016481194,37612.47627875116
1712016481234,40153.38140054839
1712016481273,41659.02169676032
1712016481314,43736.600956259295
1712016481354,45045.1328308424
1712016481395,47394.22733481042
1712016481434,49273.53684300929
1712016481474,50482.632011679
1712016481514,51142.55844522547
1712016481554,46548.9154326655
1712016481595,47699.12495967746
1712016481635,48574.697235081345
1712016481675,52236.478004961275
1712016481715,56952.078690089285
1712016481755,51653.872618831694
1712016481796,44669.37381554162
1712016481835,40525.84228597861
1712016481875,33727.582183488645
1712016481915,17880.057205228135
1712016481956,-470.5762233156711
1712016481997,-14061.51869487809
1712016482036,-17251.173900381196
1712016482076,-9148.030952656642
1712016482116,-4000.2947529596277
1712016482156,-2824.7763816192746
1712016482197,-1227.680889878422
1712016482236,1184.836953769438
1712016482276,2754.935959406197
1712016482317,4209.925863188226
1712016482357,5481.23313198192
1712016482398,5963.580812807661
1712016482437,7656.764754203148
1712016482477,8054.343516790774
1712016482517,5621.448019182775
1712016482557,3798.708254297264
1712016482598,1441.6502705151215
1712016482638,-186.0137940570712
1712016482678,-2626.600510094315
1712016482718,-3112.2283891467378
1712016482758,-4260.5465288404375
1712016482799,-6406.527550321072
1712016482838,-7043.2604588740505
1712016482878,-11456.261867851019
1712016482919,-16677.55190349836
1712016482959,-22188.65427883761
1712016483000,-30683.72743919771
1712016483039,-30552.904914020095
1712016483079,-29717.368633069098
1712016483119,-30383.582539627794
1712016483159,-30186.52919092728
1712016483200,-21011.986560209654
1712016483239,-3629.3836320545524
1712016483280,7977.741130388342
1712016483320,13255.61448445823
1712016483360,9913.777999234851
1712016483401,7782.7467033769935
1712016483440,9373.648735368624
1712016483480,11772.106941552833
1712016483520,12276.597732576076
1712016483560,13821.89268361684
1712016483601,14207.964504191652
1712016483641,13435.933445502538
1712016483680,14342.28161414899
1712016483721,10695.890280324034
1712016483761,10770.972570800222
1712016483802,11043.863378891256
1712016483841,10674.568579426967
1712016483881,11779.386738393456
1712016483921,10992.249352013692
1712016483961,10244.443640913349
1712016484002,8735.594587196596
1712016484041,8665.00341246929
1712016484081,6900.097720330115
1712016484121,8073.4218644518405
1712016484161,7833.610194966197
1712016484202,7820.826706992462
1712016484242,6993.200510144234
1712016484282,5749.051523132715
1712016484322,5634.596166076139
1712016484362,6292.133804623038
1712016484403,7074.227454744279
1712016484442,8686.815232304856
1712016484482,9876.413316802122
1712016484522,9321.599173122086
1712016484562,10843.393768640235
1712016484604,9835.318791166414
1712016484643,8469.898252730258
1712016484683,8790.088258383796
1712016484723,8152.186968511902
1712016484763,7064.842095666565
1712016484804,7125.532347583212
1712016484843,5515.748365089297
1712016484883,5272.671195667703
1712016484923,5420.549870668445
1712016484964,5357.101847345009
1712016485004,7122.424445709214
1712016485044,6919.638055922929
1712016485084,7000.276317272801
1712016485124,9123.50564293284
1712016485164,8857.106313394383
1712016485205,9570.54958206229
1712016485244,10803.058431020007
1712016485284,9325.30310543254
1712016485324,5900.007489933167
1712016485364,5812.86795448279
1712016485405,4710.407938924618
1712016485445,3414.0528025887907
1712016485485,1968.6267697783187
1712016485525,1377.2840731139295
1712016485565,1740.0285689737648
1712016485606,2322.4292211132124
1712016485645,2004.1177103715017
1712016485685,3075.9834162639454
1712016485725,3230.412142859772
1712016485765,1727.6759516773745
1712016485806,3580.1668719830923
1712016485845,4267.793700729497
1712016485885,4227.267501316033
1712016485926,2212.8353230422363
1712016485966,-1128.8335176920518
1712016486007,-1765.12514640484
1712016486046,-2595.240857235156
1712016486086,-3321.0459070936777
1712016486126,-2477.4945560591295
1712016486166,-2297.505510100629
1712016486207,-2097.298866217956
1712016486246,-2728.7925890870392
1712016486286,-2778.2908648015
1712016486326,-2520.3609313480556
1712016486366,-1639.9044653978199
1712016486408,-1623.561273372732
1712016486447,-503.84383674664423
1712016486487,745.0112120234407
1712016486527,1163.4439053307287
1712016486567,1253.22929568775
1712016486608,-303.73010965716094
1712016486647,-2495.407949421555
1712016486687,-4379.299703529105
1712016486727,-4235.948352670297
1712016486768,-2609.676977553405
1712016486809,-2715.9711936395615
1712016486848,-3318.6864350647666
1712016486888,-3774.7601332985796
1712016486928,-3226.1360520590097
1712016486968,-3134.6871332470328
1712016487009,-1461.8999354038388
1712016487048,12.237113510258496
1712016487088,236.42455718293786
1712016487129,1500.1480314629152
1712016487169,3074.263959052507
1712016487210,3716.182046502363
1712016487249,3180.214866878465
1712016487289,638.7397011565045
1712016487329,-888.441873727832
1712016487369,-590.9318680930883
1712016487410,-857.7755777724087
1712016487450,-281.99357377924025
1712016487490,637.3727424582466
1712016487530,1079.481553063728
1712016487570,1029.8650201768614
1712016487611,1225.4214693461545
1712016487650,1430.1211503650993
1712016487690,2505.672968527302
1712016487730,3318.906802440528
1712016487770,4031.5864168759435
1712016487812,5868.537953259423
1712016487851,5149.842787873
1712016487891,5276.703808082268
1712016487931,3788.800192547962
1712016487971,2615.341597700957
1712016488012,1751.8859284278005
1712016488051,730.0263064703904
1712016488092,1084.1120661627501
1712016488132,1311.341787434183
1712016488172,1344.6928277350962
1712016488213,683.6512162145227
1712016488303,393.1218533879146
1712016488343,300.291298488155
1712016488383,1279.8999802200124
1712016488423,2755.5962581932545
1712016488464,3017.3297050138935
1712016488504,3619.62389536947
1712016488544,4100.850714219734
1712016488584,3971.8835338735953
1712016488624,2978.620737696998
1712016488665,1219.2941432455555
1712016488704,-128.16051204875112
1712016488744,-418.87848448660225
1712016488784,-266.8392935786396
1712016488825,158.260283395648
1712016488866,466.7718798778951
1712016488905,782.3740953840315
1712016488945,1276.5961849833839
1712016488985,1847.920491777826
1712016489025,2075.6313894903287
1712016489066,2813.609208010137
1712016489106,4409.384464884177
1712016489145,4534.067956360988
1712016489186,6297.505441806279
1712016489226,7200.776058865711
1712016489267,5592.194122764282
1712016489306,2793.9664360200986
1712016489346,1717.1865973267704
1712016489386,972.4795539313927
1712016489426,1110.031579292845
1712016489468,1569.3468094556592
1712016489507,1553.918595139403
1712016489547,3015.0031588282436
1712016489587,2047.9199105831794
1712016489627,2176.9311488233507
1712016489668,3025.137425776571
1712016489707,2592.2762180641294
1712016489747,4477.881780160591
1712016489788,4369.811926961876
1712016489828,5420.177283983678
1712016489869,5753.480968207121
1712016489908,5686.732947535813
1712016489948,4050.8201930448413
1712016489988,1984.4357513189316
1712016490028,433.2067120312713
1712016490070,532.8940548147075
1712016490109,203.14353331830353
1712016490149,702.5551828322932
1712016490189,876.534702965524
1712016490229,696.220558042638
1712016490270,520.7563696876168
1712016490310,1192.5201056469232
1712016490350,2177.3192506060004
1712016490390,1761.5016995668411
1712016490430,2910.1410255301744
1712016490471,3474.467127810698
1712016490510,4527.552880973555
1712016490550,4986.422846307047
1712016490591,6412.435708253644
1712016490631,4300.410150144715
1712016490672,931.7285781530663
1712016490711,-1705.8276991397142
1712016490751,-1693.2282859105617
1712016490791,-1898.01585375797
1712016490831,-3267.2835722933523
1712016490872,-2185.2972159776837
1712016490911,-1785.9189991373569
1712016490951,-2822.87968960125
1712016490991,-1541.7292267102748
1712016491032,-1898.160642830655
1712016491072,-1787.607150150463
1712016491112,1758.2478079665452
1712016491152,2969.4198048147373
1712016491192,7805.903144257609
1712016491232,13033.659203280695
1712016491273,16652.27948751254
1712016491312,18245.51133991778
1712016491352,15339.708512842655
1712016491392,11205.326211339794
1712016491432,6302.569843179546
1712016491473,10130.565862326417
1712016491513,23969.783813113347
1712016491553,36623.412717010826
1712016491593,40425.61611266667
1712016491633,44858.308496049605
1712016491674,19575.91824028315
1712016491713,-98032.79856311763
1712016491753,-73214.33094671601
1712016491793,-22467.42486134218
1712016491834,-2409.751111912541
1712016491874,-7555.274134077132
1712016491914,-5959.723974644672
1712016491954,5151.599470186047
1712016491994,9963.085306768771
1712016492034,15005.081360688433
1712016492075,19334.122673975304
1712016492114,21399.469117751345
1712016492154,24954.31891323626
1712016492194,26619.24289990589
1712016492235,28002.67364119459
1712016492275,30738.632584746927
1712016492315,32358.37895307131
1712016492355,35264.08642370254
1712016492395,34421.28563883435
1712016492435,34195.55672297161
1712016492476,29220.58063924825
1712016492515,26177.501035459805
1712016492555,22282.611910282634
1712016492596,16848.154762374237
1712016492636,12370.18882194627
1712016492676,8205.315031840466
1712016492716,10041.065476229414
1712016492756,3172.185603632126
1712016492796,-8370.539943994023
1712016492836,-22105.511794066057
1712016492877,-29938.260414694436
1712016492916,-36256.41529931687
1712016492957,-9622.758393037133
1712016492996,106192.92994888872
1712016493037,96374.5087937587
1712016493078,64855.53188053798
1712016493117,46438.01848670654
1712016493157,55960.59249744937
1712016493197,58394.5532829375
1712016493237,55872.85217734706
1712016493278,56482.22186866449
1712016493317,51410.878318310715
1712016493357,46558.659165160265
1712016493397,37624.45359944599
1712016493438,30244.524667253718
1712016493478,18955.50871943962
1712016493518,5033.980717652943
1712016493558,-1484.5777569855563
1712016493598,-7006.471036574803
1712016493638,-9443.106807626784
1712016493679,-12236.365755855106
1712016493718,-13529.646149566863
1712016493758,-21576.3922509579
1712016493799,2659.9825356514193
1712016493838,-2490.4786758003756
1712016493879,-8257.788593337871
1712016493919,-13749.369227167219
1712016493959,-11455.698631407693
1712016493999,-6709.395673681982
1712016494039,-2788.9702791930176
1712016494080,-2222.0288284588605
1712016494119,-1391.4759014518932
1712016494160,1944.3054616823792
1712016494200,3106.9079686440527
1712016494240,-265.6423687711358
1712016494281,-880.1703965235502
1712016494320,-994.0202895542607
1712016494360,-117.59385082731023
1712016494400,2497.641371798236
1712016494440,4359.410895598587
1712016494481,6212.529218741693
1712016494521,5169.714296344668
1712016494561,6662.635068203323
1712016494601,10769.865677868016
1712016494641,14643.862584352493
1712016494682,18315.456165521406
1712016494721,19134.944561674725
1712016494761,19954.9579947046
1712016494801,24341.850211497862
1712016494841,21594.114660378546
1712016494882,22736.65150268795
1712016494922,20582.08631634619
1712016494962,17926.026505651884
1712016495002,14501.959542374127
1712016495042,18549.8727885494
1712016495083,-5173.892901360057
1712016495122,-25.30388023564592
1712016495162,6363.577993460931
1712016495203,18566.865657930262
1712016495243,20265.73192373151
1712016495284,15895.013186718337
1712016495323,17308.271028751973
1712016495363,23135.436818304006
1712016495403,23918.387287883088
1712016495443,23864.043580819387
1712016495484,24648.890814400278
1712016495524,26261.019466986414
1712016495564,26213.243724696338
1712016495604,27571.413344261236
1712016495644,28608.547472599894
1712016495685,24255.26956485957
1712016495724,22426.775802538265
1712016495764,20280.765689627267
1712016495804,19000.981401078403
1712016495845,20562.90224147169
1712016495885,21367.57108549215
1712016495925,19274.70992882736
1712016495965,18662.90397667419
1712016496005,19466.136599422432
1712016496045,20841.94127829373
1712016496086,17407.71201897785
1712016496125,23979.572475199588
1712016496165,24276.5123281274
1712016496206,24289.819016331807
1712016496246,24994.961632809136
1712016496287,27692.677459265105
1712016496326,29536.11124741286
1712016496366,25449.956891982816
1712016496406,24234.075064880773
1712016496446,25343.10349980835
1712016496487,23756.045199264307
1712016496527,21673.041045031045
1712016496567,24684.805022733286
1712016496607,26398.22251650691
1712016496647,25429.11229514191
1712016496688,26284.540492213797
1712016496727,28731.110424083658
1712016496767,29115.188098649494
1712016496808,30161.62733847648
1712016496847,31891.62036480382
1712016496888,32617.650398724712
1712016496928,32134.71093340963
1712016496968,35089.46984468913
1712016497008,33568.375631545205
1712016497048,32752.88283261191
1712016497089,33937.99205644103
1712016497128,29991.525002860464
1712016497169,28741.106570770964
1712016497209,29293.44837358268
1712016497249,28746.50147799868
1712016497290,27698.28491737414
1712016497329,29428.60433253739
1712016497369,30616.670144196134
1712016497409,26757.947912802454
1712016497449,27972.40742435213
1712016497490,29829.660738423467
1712016497530,30632.080727421213
1712016497570,28799.94258101657
1712016497610,28237.33286187146
1712016497650,30690.806560016703
1712016497691,32292.93755038362
1712016497730,30289.708552856
1712016497770,30000.760380138177
1712016497810,31007.953643706627
1712016497850,29434.46479282994
1712016497891,26931.924379540607
1712016497930,25753.484535497613
1712016497971,32459.323262279388
1712016498011,29108.99619561853
1712016498051,23062.42648257548
1712016498092,21915.07082385756
1712016498131,25182.291809444316
1712016498171,30203.92743258085
1712016498211,29491.26446640957
1712016498252,23043.86576267192
1712016498292,22305.919009771198
1712016498332,26566.401852292474
1712016498372,27312.369488955475
1712016498412,26372.437699564267
1712016498452,22558.455627335235
1712016498493,22614.475759747438
1712016498533,22378.016981878318
1712016498573,21050.959250935353
1712016498613,20253.78125689691
1712016498653,19526.96387475403
1712016498694,21194.667907727417
1712016498734,20556.1291925665
1712016498774,20020.839503015857
1712016498814,17223.333291642368
1712016498854,17588.462592403404
1712016498895,16356.394729237072
1712016498934,15097.960545958951
1712016498975,13538.091665991116
1712016499015,12135.705026237294
1712016499055,6374.754658679012
1712016499096,3049.9555831891485
1712016499135,2735.16599109862
1712016499175,-2731.312743352726
1712016499216,-10333.505481932312
1712016499256,-23364.005585266743
1712016499297,-24506.011485388502
1712016499337,-19323.531077020336
1712016499377,-19101.302836683113
1712016499417,-21482.019147448707
1712016499457,-26501.937507143244
1712016499498,-24550.48082815809
1712016499537,-18471.496752373874
1712016499578,-15631.112805421464
1712016499618,-16968.219260524027
1712016499658,-15043.062530809082
1712016499699,-12463.003659079317
1712016499739,-9165.12855729973
1712016499779,-8222.21006301418
1712016499819,-6271.565846164245
1712016499860,-5534.459515623748
1712016499900,-7599.181463998742
1712016499940,-8903.739239062183
1712016499980,-10455.202534649521
1712016500020,-9773.764531570021
1712016500061,-7984.801276859827
1712016500102,-5593.8237470728345
1712016500141,-5618.975807219744
1712016500182,-2685.344432976097
1712016500222,-1520.0662189177237
1712016500264,-2862.721901285462
1712016500305,-3411.1572690485045
1712016500345,-3506.3812170443125
1712016500385,-3394.7092978209257
1712016500425,-8822.755387273617
1712016500465,-13342.295545931906
1712016500505,-21425.086805557832
1712016500545,-22760.70230871532
1712016500585,-24297.951208391227
1712016500625,-28923.358695574105
1712016500665,-39563.501674353145
1712016500705,-42018.006135626696
1712016500745,-32930.33630490163
1712016500785,-23756.232332901563
1712016500825,-22540.594942444004
1712016500865,-24984.88550808374
1712016500905,-21067.929535402916
1712016500945,-12332.166357574984
1712016500985,-6123.230164319277
1712016501025,-2196.7488329885527
1712016501065,3377.0088580613956
1712016501105,8254.535457197577
1712016501145,11014.237632039003
1712016501185,14039.486497852951
1712016501225,19678.445739950985
1712016501265,22364.661848955788
1712016501305,22925.787749374285
1712016501345,23086.129220828414
1712016501385,25448.313179966528
1712016501425,28160.00110646477
1712016501465,30082.079331940506
1712016501505,31369.53309635492
1712016501545,34633.03786501894
1712016501585,34934.386663475074
1712016501625,37582.2826042315
1712016501665,37186.666158674285
1712016501705,37938.52472029906
1712016501745,37853.61723061884
1712016501785,41201.72259820672
1712016501825,36328.80527856853
1712016501865,28771.358688918874
1712016501905,27035.293811236974
1712016501945,35208.934411569964
1712016501985,39670.946970431134
1712016502025,34625.57479944965
1712016502065,27841.328413208015
1712016502105,27408.461682745256
1712016502145,31552.637872578576
1712016502185,31156.15643105656
1712016502225,28156.738073311746
1712016502265,26573.940375419334
1712016502305,27128.447898872197
1712016502345,25655.174951336347
1712016502385,25127.845922082663
1712016502425,26407.84349811729
1712016502465,27138.313082300592
1712016502505,25312.5792092802
1712016502545,24492.309074515942
1712016502585,24351.455850277096
1712016502625,22861.921463831794
1712016502665,20276.28085815441
1712016502705,18738.98034913512
1712016502745,18013.998010387644
1712016502785,17415.73615412321
1712016502825,16959.07549631549
1712016502865,15561.230757491663
1712016502905,15282.607144735754
1712016502945,14824.774187984876
1712016502985,13974.614678990096
1712016503025,13812.766243106686
1712016503065,13124.059322634712
1712016503105,13665.782817886677
1712016503145,14253.947685204446
1712016503185,14050.883518442977
1712016503225,13996.585492019076
1712016503265,14432.003201958723
1712016503305,13617.22781845741
1712016503345,10852.503801523708
1712016503385,10201.233046405017
1712016503425,10812.525655287318
1712016503465,10359.492723343894
1712016503505,9829.455385118723
1712016503545,9980.808259578887
1712016503585,10313.831601015292
1712016503625,9283.42375984462
1712016503665,8804.465628936887
1712016503705,9822.143632416613
1712016503745,9946.464618997183
1712016503785,9609.42779437825
1712016503825,9680.789915181696
1712016503865,9109.925678909756
1712016503905,9965.766017407645
1712016503945,11923.298797301948
1712016503985,11703.829556261655
1712016504025,10315.253270403482
1712016504065,8206.342122179456
1712016504105,6298.061098988168
1712016504145,6638.945746702142
1712016504185,6912.572235465515
1712016504225,7450.265605742112
1712016504265,9219.49517722521
1712016504305,7192.914767192677
1712016504345,4112.331437536981
1712016504385,3883.1876185247675
1712016504425,7107.139801776502
1712016504465,9505.660251747351
1712016504505,9489.366089656949
1712016504545,7665.962983027101
1712016504585,5909.156668130774
1712016504625,6904.806125717238
1712016504665,7638.529812087771
1712016504705,6160.583317212295
1712016504745,4938.97731411038
1712016504785,4122.723816046491
1712016504825,2802.0133918677457
1712016504865,2695.543990514707
1712016504905,3712.2678109393455
1712016504945,4474.463960312307
1712016504985,4034.4230343084782
1712016505025,1169.457066711504
1712016505065,-7844.488043971825
1712016505105,-15262.999611631967
1712016505145,-14714.258632579818
1712016505185,-12590.047070257366
1712016505225,-10030.101490437053
1712016505265,-8130.462559046689
1712016505305,-5734.410748817492
1712016505345,-3677.252784910612
1712016505385,-1694.4567798506469
1712016505425,-2041.7310578748584
1712016505465,-1743.2421450493857
1712016505505,-1531.33159701759
1712016505545,-3572.331701516174
1712016505585,-1662.2532537775114
1712016505625,692.5921570174396
1712016505665,1946.6450695842505
1712016505705,-314.3011268330738
1712016505745,-1340.9144530985504
1712016505785,109.67722130194306
1712016505825,1776.2312655649148
1712016505865,3322.701813972555
1712016505905,4147.342359329108
1712016505945,3259.3935433099978
1712016505985,4050.0129913603887
1712016506025,3407.487511205487
1712016506065,1834.9881453420967
1712016506105,776.843460961245
1712016506145,587.6520527396351
1712016506185,999.2525288295001
1712016506225,1555.073778779246
1712016506265,1777.6979725784622
1712016506305,2310.481636033859
1712016506345,1508.0702344970778
1712016506385,3166.7975603179075
1712016506425,2209.336597296875
1712016506465,2492.9171136156656
1712016506505,3690.921091318596
1712016506545,4487.335992899258
1712016506585,4676.849378155079
1712016506625,5615.558921610005
1712016506665,5948.856947444845
1712016506705,5531.640221638605
1712016506745,3733.2170653734356
1712016506785,1085.6941860355437
1712016506825,1010.6674890657887
1712016506865,308.08285252563655
1712016506905,1247.9567488050088
1712016506945,1720.3904616814107
1712016506985,2009.1899290950969
1712016507025,980.8118118257262
1712016507065,583.617959628813
1712016507105,5787.286162504926
1712016507145,6309.057477866299
1712016507185,763.1789558716118
1712016507225,-64.70232005324215
1712016507265,3396.9117922084406
1712016507305,7976.013064994011
1712016507345,9481.899114550091
1712016507385,6458.617346674204
1712016507425,-937.0783165334724
1712016507465,-3336.9967489773408
1712016507505,-1159.8008206808008
1712016507545,2767.2177306967787
1712016507585,4244.9192065508105
1712016507625,2507.4328060373664
1712016507665,-1307.6389280306175
1712016507705,-260.30949373357
1712016507745,2391.3853861470707
1712016507785,4461.230114991777
1712016507825,5527.050964824855
1712016507865,5019.850167847704
1712016507905,4055.5326711572707
1712016507945,3030.47889449168
1712016507985,4674.410546300933
1712016508025,6684.787691411562
1712016508065,8096.413220830727
1712016508105,5165.207345907576
1712016508145,1896.8518227282912
1712016508185,-507.52750842878595
1712016508225,-748.9491880363785
1712016508265,-117.13536587543786
1712016508305,332.95272351522
1712016508345,203.67534120660275
1712016508385,-4271.2122006630525
1712016508425,-3699.575109034311
1712016508465,2720.605698945932
1712016508505,5865.663952209521
1712016508545,4020.3437290750444
1712016508585,2158.7747035613284
1712016508625,2383.7361138528213
1712016508665,3096.413626857102
1712016508705,9275.233463495038
1712016508745,10165.992566427216
1712016508785,7607.50365442317
1712016508825,4181.603453875054
1712016508865,-154.30607870407403
1712016508905,95.73858722858131
1712016508945,2310.0245772432536
1712016508985,2485.2855547675863
1712016509025,1619.347852599807
1712016509065,1229.452223054599
1712016509105,211.1644114535302
1712016509145,-624.9255404835567
1712016509185,343.27733936486766
1712016509225,2645.729403827805
1712016509265,3293.763186609838
1712016509305,2959.869346799329
1712016509345,2592.1184070776217
1712016509385,4390.483660934493
1712016509425,5890.428343566135
1712016509465,4513.167314379476
1712016509505,2473.374954068102
1712016509545,-97.66972838807851
1712016509585,-343.20739308185875
1712016509625,-847.7622296502814
1712016509665,-918.1137968762778
1712016509705,-1288.531836219132
1712016509745,-1274.8590065855533
1712016509785,-1984.4783841837198
1712016509825,-1612.1938280523755
1712016509865,-630.7260554283857
1712016509905,-374.3485931074247
1712016509945,1282.8927904218435
1712016509985,1007.9947423953563
1712016510025,1188.3201261842623
1712016510065,2211.393157158047
1712016510105,2049.819805385545
1712016510145,2566.010318283923
1712016510185,134.73341788351536
1712016510225,-2297.3090289551765
1712016510265,-4248.604784543626
1712016510305,-5078.688455382362
1712016510345,-4591.979380499572
1712016510385,-4344.4318566778675
1712016510425,-4336.155367077328
1712016510465,-3761.4280335106887
1712016510505,-3908.2816100269556
1712016510545,-2790.1385667244904
1712016510585,-1632.7831601165235
1712016510625,-1149.2212424534373
1712016510665,-821.921249221079
1712016510705,-540.0210723532364
1712016510745,1694.3326307609677
1712016510785,1895.2025512955151
1712016510825,-47.44154169410467
1712016510865,-3205.6324144471437
1712016510905,-4967.195878569968
1712016510945,-5440.769669463392
1712016510985,-5075.765603519976
1712016511025,-4590.3866587751545
1712016511065,-5027.81961387163
1712016511105,-5241.324736530893
1712016511145,-5415.7578813368455
1712016511185,-5407.128878994379
1712016511225,-4312.707997576334
1712016511265,-3116.472681580577
1712016511305,-1714.6586816394702
1712016511345,-1026.8545952597633
1712016511385,-1286.9314391994849
1712016511425,-1103.1278096213937
1712016511465,163.354042601306
1712016511505,-3583.5902777826414
1712016511545,-9544.744048581924
1712016511585,-10944.393377535976
1712016511625,-10441.566781296395
1712016511665,-10662.900774130598
1712016511705,-8954.043160308152
1712016511745,-8290.070163937286
1712016511785,-8566.7212833222
1712016511825,-9280.259087847546
1712016511865,-8319.690103800502
1712016511905,-7366.779179314151
1712016511945,-7329.065134854987
1712016511985,-5846.440627101809
1712016512025,-4099.175766198896
1712016512065,-3178.121832992416
1712016512105,-1840.0273944092914
1712016512145,-1017.9659652523696
1712016512185,-1118.3460229877383
1712016512225,-4099.4362855432555
1712016512265,-6330.564480726607
1712016512306,-8244.139387617819
1712016512395,-7976.108911255375
1712016512435,-7411.425551743712
1712016512475,-7817.544600288384
1712016512515,-6808.32757581491
1712016512556,-6014.993162475526
1712016512596,-6120.9346134969965
1712016512636,-6455.811058038846
1712016512676,-4601.767926924862
1712016512716,-2503.5293249203824
1712016512757,-2102.3142589833587
1712016512796,-2531.941696523223
1712016512837,-1532.8376862960868
1712016512877,1369.4695385363884
1712016512917,1835.28714749543
1712016512958,-945.9388397005387
1712016512997,-4305.821144464891
1712016513037,-7271.876643933356
1712016513077,-7971.621469764039
1712016513117,-7553.154825079255
1712016513158,-6853.167066178285
1712016513197,-7740.942073737271
1712016513237,-7387.163698405959
1712016513278,-6793.0606837491505
1712016513318,-6426.220346054062
1712016513358,-6214.769059318118
1712016513398,-5186.708834668621
1712016513438,-3547.1403382839635
1712016513478,-1286.7009602724575
1712016513518,-669.5968593633734
1712016513559,120.95093847997487
1712016513598,667.6329799792729
1712016513638,1961.4190101716667
1712016513679,-565.6936456062831
1712016513719,-3690.9075309196487
1712016513760,-4382.379178562202
1712016513799,-4981.064332881477
1712016513839,-5269.994732062332
1712016513879,-4747.447070441674
1712016513919,-4401.123489605263
1712016513960,-5056.489331889898
1712016514000,-4711.896292728372
1712016514040,-3615.2903808625415
1712016514080,-2733.4334339294583
1712016514120,-985.6185482004657
1712016514161,-72.06964261736721
1712016514200,1584.3832824770361
1712016514240,1979.8856597524136
1712016514280,2623.517362122424
1712016514320,4432.422545050271
1712016514361,4272.652328179218
1712016514401,2031.905125576537
1712016514441,-1797.8470094897784
1712016514481,-4217.006313121878
1712016514521,-5116.733084899373
1712016514562,-5637.822842859197
1712016514601,-4529.1218044562265
1712016514641,-4940.271779941395
1712016514681,-2695.4082552855834
1712016514722,-992.3405218534172
1712016514762,-1553.6426994651556
1712016514802,-2218.0240798406303
1712016514842,-990.2630002317019
1712016514882,-68.21143610216677
1712016514922,1884.474476003088
1712016514963,3547.6572226900607
1712016515002,3581.709412363358
1712016515042,1324.3672883291729
1712016515082,29.221145547926426
1712016515123,438.09841403970495
1712016515163,508.22353600524366
1712016515203,-2455.035625143908
1712016515243,-4108.157918621786
1712016515283,-4256.428138104267
1712016515323,-2658.8970475629903
1712016515364,-2284.5658897547983
1712016515403,-1167.223560567014
1712016515443,-1080.8114864602685
1712016515484,-1179.5088351843879
1712016515524,302.3015242861584
1712016515565,1555.8289668182842
1712016515604,2804.9824715955183
1712016515644,4023.3293261816725
1712016515684,5044.188472806476
1712016515724,6118.870387671515
1712016515765,7684.440678159241
1712016515805,7946.183036458213
1712016515845,8027.142400394194
1712016515885,5298.240632977337
1712016515925,4117.401373681147
1712016515966,2216.17425396014
1712016516005,-210.63145233131945
1712016516045,-2.8720024805516005
1712016516085,1836.0693392064422
1712016516126,2226.1265005329624
1712016516166,1795.1083522657864
1712016516206,663.5821700575761
1712016516246,562.1300946259871
1712016516286,2214.11178935878
1712016516326,6131.796077040024
1712016516367,8391.891472916584
1712016516406,8351.93399079889
1712016516446,7415.301118307281
1712016516487,9155.089515308384
1712016516527,8684.84835426975
1712016516568,6313.137574711349
1712016516607,3123.1806204067543
1712016516647,3092.8945286991075
1712016516688,1961.8024586513638
1712016516728,1309.6351272361353
1712016516769,1013.0105373132974
1712016516808,1300.1403917223215
1712016516849,1279.8522991156206
1712016516889,1393.2637469908223
1712016516929,2389.6358261085115
1712016516970,3046.664509300608
1712016517010,3377.7580996295437
1712016517050,3855.098230274394
1712016517091,4107.142424466088
1712016517131,5089.373312474228
1712016517172,5554.9635778758675
1712016517211,5220.58576845238
1712016517251,3579.48353733588
1712016517292,1553.7543086307123
1712016517332,471.14918270427734
1712016517373,-219.84240839537233
1712016517412,57.960595407523215
1712016517452,1531.1759720328264
1712016517493,1249.4427837692201
1712016517533,1365.0339466342703
1712016517574,1995.0596431260929
1712016517613,2788.078761591576
1712016517653,3784.801978670992
1712016517693,3751.972970993258
1712016517734,3352.5806738925166
1712016517775,3212.7499514864758
1712016517814,4994.840419352055
1712016517854,6247.195219866931
1712016517895,5576.606451833621
1712016517935,4003.850787412375
1712016517976,2201.7304368154146
1712016518015,1825.8224871126004
1712016518055,1439.2341874921694
1712016518095,2084.232450408861
1712016518136,1906.2038152860478
1712016518177,1698.5389523245394
1712016518216,999.4028841969557
1712016518257,1667.9605172211304
1712016518297,1721.3789700507186
1712016518337,2243.0284140883014
1712016518378,3552.65861471463
1712016518418,3805.500072332099
1712016518458,5282.792534972541
1712016518498,5333.150440169964
1712016518538,3611.164734599646
1712016518579,2449.888048109133
1712016518619,1424.5985926138237
1712016518659,388.57722645252943
1712016518699,-604.3008097587153
1712016518740,-2135.6822882322595
1712016518781,-1471.1392543250695
1712016518820,-1476.9725164212286
1712016518861,-1752.9543956946582
1712016518901,-1989.5083017218858
1712016518941,-1389.36245006416
1712016518982,-557.0611567967571
1712016519021,1063.049041398801
1712016519062,2143.954462209251
1712016519102,3013.921793207526
1712016519142,3190.1862373426557
1712016519183,3551.0371283311397
1712016519223,3290.2651571654715
1712016519263,2014.895420779474
1712016519303,253.18330929987133
1712016519344,519.9484037617221
1712016519384,-254.17432211572304
1712016519424,26.752650164999068
1712016519464,697.3370282109827
1712016519504,437.67589579196647
1712016519545,1035.3320351010188
1712016519586,1288.0750061366707
1712016519625,2351.8509480226785
1712016519666,3646.0504192886874
1712016519706,5109.440112884622
1712016519746,5183.252780628391
1712016519787,6679.281236410141
1712016519827,7464.926952418406
1712016519867,7280.8398972633295
1712016519907,5535.261628156062
1712016519947,4943.360450740904
1712016519988,4629.0099547063
1712016520028,5179.357608744409
1712016520068,5691.5079773333855
1712016520108,6703.928864937741
1712016520148,6814.362384060863
1712016520190,7105.841528667137
1712016520229,7000.12525076326
1712016520269,7319.8844063431025
1712016520309,7661.753687214106
1712016520349,8699.727709098719
1712016520390,8120.36870702263
1712016520430,8284.583850256167
1712016520470,7216.284299957566
1712016520510,5233.203937698156
1712016520550,5246.277397289872
1712016520591,5761.514610978309
1712016520631,5400.337072466034
1712016520671,5174.282922224142
1712016520711,5567.406390199438
1712016520751,5577.811195367016
1712016520792,6226.788820339367
1712016520831,5938.414192125201
1712016520872,7125.159171178937
1712016520912,7578.493202403653
1712016520952,6714.03939611651
1712016520993,7084.619528487325
1712016521032,7291.875815525185
1712016521072,6556.124052914791
1712016521113,5947.465637341142
1712016521153,5150.240597442258
1712016521194,5028.311666440219
1712016521233,4423.864172794856
1712016521273,5213.557563847862
1712016521313,4869.922991759144
1712016521354,4955.982699924149
1712016521395,4347.518225870095
1712016521434,4860.142925498076
1712016521474,5289.729413393885
1712016521515,5678.814693556167
1712016521555,6163.146598226391
1712016521596,6392.700793866068
1712016521635,6586.081760615576
1712016521675,7520.532891233452
1712016521716,6591.068601088598
1712016521756,5946.013101425488
1712016521797,5673.8395032160915
1712016521837,4979.772508019581
1712016521877,4977.548396288417
1712016521917,5554.763911515474
1712016521957,5784.453294449486
1712016521998,5750.173650091048
1712016522038,5588.850733463652
1712016522078,5763.900681377854
1712016522118,6525.998609820381
1712016522158,6420.512044356205
1712016522201,6038.001632919535
1712016522241,6597.232789230533
1712016522281,6802.204954638146
1712016522321,6878.451469891705
1712016522361,5572.516253894195
1712016522402,4636.38263946306
1712016522442,3478.2683604964986
1712016522482,3781.452021292411
1712016522522,4485.39796719607
1712016522563,4721.895106413402
1712016522604,4233.562180433888
1712016522643,4314.875430659391
1712016522683,4384.791431677062
1712016522724,4446.962781729177
1712016522764,4485.493946278468
1712016522805,5476.472610914148
1712016522844,5855.431166052818
1712016522885,5800.005762946792
1712016522925,6120.067952927202
1712016522965,5290.262261125259
1712016523006,4077.15837849956
1712016523046,2583.473724490963
1712016523086,2214.4194072159007
1712016523126,1791.8187593128532
1712016523166,2256.5414188774303
1712016523208,2172.422869430855
1712016523248,2504.9193436605856
1712016523288,2320.609113219194
1712016523328,2187.77155777812
1712016523368,2091.0243164720014
1712016523409,2135.020575218834
1712016523449,3147.516537294723
1712016523489,3907.6722122882493
1712016523529,4163.95214784611
1712016523569,4358.452050812077
1712016523610,3949.1174974776804
1712016523650,3515.8380028726533
1712016523690,2434.9203979801387
1712016523730,2563.4058980653062
1712016523770,1624.474962348584
1712016523811,2194.372862815857
1712016523850,2134.0907296631485
1712016523891,2856.844873941969
1712016523931,3067.703208436724
1712016523971,3255.6933640413918
1712016524012,3369.9989638654515
1712016524051,4100.288639363833
1712016524091,3870.6021359544247
1712016524132,4155.8614406445995
1712016524172,4767.772037811112
1712016524213,5140.996839686297
1712016524252,4809.039963413961
1712016524292,4033.371151504107
1712016524332,3482.424517435953
1712016524373,3413.386298344005
1712016524414,3097.0571929933503
1712016524449,2709.990542227868
1712016524489,2651.344873820897
1712016524529,1749.8553017498925
1712016524569,1476.2069745254703
1712016524610,1195.5380845260806
1712016524649,2163.98173566442
1712016524689,2861.847832137253
1712016524730,3004.6964666089043
1712016524770,3253.143016502261
1712016524810,3875.1731459153816
1712016524850,4261.382627043873
1712016524890,4180.3169316514395
1712016524930,2991.355790639296
1712016524970,1787.5692744823173
1712016525011,1023.78868438676
1712016525050,734.2898856727406
1712016525090,554.1778860422783
1712016525131,109.53803919441998
1712016525171,542.2538431030698
1712016525212,-94.54518720507622
1712016525251,-792.2598605887033
1712016525291,-381.3455525804311
1712016525331,-80.7433910779655
1712016525371,592.0130896633491
1712016525412,138.3466966515407
1712016525451,1150.9702095692046
1712016525492,1119.4907732671127
1712016525532,1553.7637037173845
1712016525572,791.3071909360588
1712016525613,145.8858702145517
1712016525652,-1208.6834690300748
1712016525692,-1353.3735461207107
1712016525732,-1563.4872053097934
1712016525772,-970.555054419674
1712016525813,-333.0933415237814
1712016525852,-332.7331599490717
1712016525892,-27.798431608825922
1712016525933,-104.66354780830443
1712016525973,-481.39908016566187
1712016526013,58.46576836518943
1712016526053,1506.713859084528
1712016526093,2033.8284773332998
1712016526133,2327.0287419664674
1712016526173,2283.2679815664887
1712016526214,1605.8097021547146
1712016526253,778.5195822897367
1712016526293,-987.497147471644
1712016526334,-1146.1355306087062
1712016526374,-1242.0154192759655
1712016526415,-935.6126889782026
1712016526454,-881.641876722686
1712016526494,-912.4769512461498
1712016526534,-451.3577844663523
1712016526574,-261.65449083968997
1712016526615,366.7678203606047
1712016526654,514.7078358493745
1712016526695,1656.4992698477581
1712016526735,1713.5485716531985
1712016526775,2560.075520024635
1712016526816,2476.2878684755415
1712016526855,2300.8242632914335
1712016526895,857.7164281676523
1712016526935,-809.3344417875633
1712016526975,-1428.007629695814
1712016527016,-1445.6141719319858
1712016527056,-2177.059663888067
1712016527095,-2251.6667532320134
1712016527136,-3054.5681207971647
1712016527176,-2981.560081292875
1712016527217,-2577.31503023766
1712016527256,-234.379896286875
1712016527296,-1324.7826910028234
1712016527336,-1414.1820657020435
1712016527376,-3432.593943310436
1712016527417,-3692.4419483207166
1712016527457,-2024.3291667895392
1712016527497,518.1166705852374
1712016527537,2208.281712696422
1712016527577,1495.7693929160014
1712016527618,-4906.581935562659
1712016527657,-9480.509056499228
1712016527697,-6797.26785550639
1712016527738,-1504.8158578136936
1712016527778,1486.9602061789483
1712016527818,1870.8568555442616
1712016527858,-761.787546498701
1712016527898,-3293.9946283558384
1712016527938,-2156.060452524107
1712016527978,1351.0923174768686
1712016528019,3093.500175088644
1712016528059,2791.7467983206734
1712016528099,2199.4334123916924
1712016528139,1800.3400431303307
1712016528179,2710.536376416683
1712016528220,4181.630438748281
1712016528259,3510.9591540396214
1712016528299,2606.7394602121785
1712016528340,1646.447201560717
1712016528380,2020.1516930479556
1712016528420,2358.9767135307193
1712016528460,3435.7859889212996
1712016528500,2507.0843133935705
1712016528540,394.5343185374513
1712016528580,1676.9897388899699
1712016528621,1466.7008579410613
1712016528661,3956.319517062977
1712016528701,5709.778355504852
1712016528741,5716.670017555356
1712016528781,4590.960550101008
1712016528822,3088.6270482381806
1712016528861,2838.7365936720744
1712016528902,6058.736576513387
1712016528942,9579.486267858185
1712016528982,6948.025009419769
1712016529023,3662.9942854112014
1712016529062,2125.6674810526893
1712016529102,1438.0909117017873
1712016529142,3124.2832047324628
1712016529182,4800.474176014308
1712016529223,4158.864876315463
1712016529263,2913.0007637073286
1712016529303,2700.9823939232156
1712016529343,2975.866305485368
1712016529383,4010.771872184705
1712016529424,5375.102219686378
1712016529463,5805.502607721835
1712016529503,5715.825010831468
1712016529543,5352.87404168956
1712016529584,6192.354553931393
1712016529624,6254.345183367841
1712016529664,4245.036863293964
1712016529704,3673.067392027937
1712016529744,2080.6932524992153
1712016529784,1097.9934479240328
1712016529825,-444.8300499864854
1712016529864,-797.8074702825397
1712016529904,-723.3001632760279
1712016529944,-6098.9875780721195
1712016529984,-6520.7802515211515
1712016530025,-10843.695453741122
1712016530065,-17587.867980943993
1712016530105,-23935.008621963672
1712016530145,-28889.978435025085
1712016530185,-32445.98274065461
1712016530226,-43133.91242721351
1712016530265,-52534.73114615679
1712016530306,-60211.41537437169
1712016530346,-68381.50541626848
1712016530386,-82329.50162265869
1712016530427,-96037.03140457487
1712016530468,-103449.05923658144
1712016530508,-109852.25157673191
1712016530548,-115682.23282790929
1712016530589,-120365.05555155361
1712016530629,-124755.11882513529
1712016530669,-130472.91442656051
1712016530709,-133219.6977443872
1712016530749,-135834.68032418052
1712016530790,-138789.5277757356
1712016530831,-136706.33596262243
1712016530870,-127157.70844098274
1712016530910,-122350.76713799685
1712016530950,-113837.64591661375
1712016530991,-100487.71712730546
1712016531032,-85376.69484619983
1712016531071,-67042.36628837883
1712016531111,-48292.10108983796
1712016531152,-36046.20608447958
1712016531192,-26367.602656777017
1712016531233,-17697.317198301665
1712016531273,-19173.602538513485
1712016531313,-16546.182946794666
1712016531353,-13936.967700311914
1712016531393,-15124.693198760971
1712016531434,-12427.997268540785
1712016531474,-12985.657818847336
1712016531517,-11177.046813243534
1712016531554,-8650.175699160434
1712016531595,-9618.498322395142
1712016531636,-16304.647365707904
1712016531675,-6638.749400244094
1712016531716,-2185.526062649209
1712016531756,2511.194245752413
1712016531796,10444.10767261777
1712016531837,12167.71898631705
1712016531877,20405.61698870128
1712016531917,22598.341951890383
1712016531957,27515.342824209947
1712016531997,27928.58971648803
1712016532038,25808.95854276698
1712016532078,27320.06884735264
1712016532118,28690.13692498952
1712016532158,23927.658449199982
1712016532198,23499.256125648506
1712016532240,22609.76653024275
1712016532279,17013.72473668307
1712016532319,11050.383935354184
1712016532360,1524.5499177295715
1712016532400,-6348.322020186577
1712016532441,-7745.48777887458
1712016532480,-14784.131488791667
1712016532520,-16459.48061495088
1712016532561,-10724.280921669211
1712016532601,-6277.911577573512
1712016532642,-63.73299744538963
1712016532681,7662.08581150556
1712016532722,10662.963619002141
1712016532762,16527.90394877689
1712016532802,19905.83132494567
1712016532843,18996.24567154888
1712016532883,21573.620483591687
1712016532923,35143.579982141964
1712016532964,39646.83030368714
1712016533004,38916.26474345196
1712016533045,38037.88745295955
1712016533084,34926.19814378722
1712016533124,37487.183348721825
1712016533164,29405.128109912854
1712016533204,28868.646023019217
1712016533245,24464.38172236178
1712016533285,20845.745467758738
1712016533325,25181.505653091706
1712016533365,25688.10234479932
1712016533405,19270.480285036378
1712016533446,15884.682514255866
1712016533485,16163.585654824972
1712016533526,14606.619280247949
1712016533566,16653.71699216403
1712016533606,19141.595908206422
1712016533647,20778.991142642684
1712016533687,20066.716411312576
1712016533729,16558.807481371798
1712016533767,19148.139110221528
1712016533807,22482.83372576628
1712016533848,21488.29433124233
1712016533887,22241.129204943776
1712016533928,20428.362979294732
1712016533968,17414.091584506445
1712016534008,13562.942783607636
1712016534049,8662.170842044521
1712016534088,7849.213533943053
1712016534128,9792.865362331271
1712016534169,13567.910480313934
1712016534209,14411.637910934165
1712016534250,6954.563457258977
1712016534289,9753.75037332112
1712016534329,12171.487462441437
1712016534370,13997.188386267982
1712016534410,14233.471757881809
1712016534451,17225.524589536246
1712016534490,16168.543326954823
1712016534531,16306.833164708689
1712016534571,19952.955140199047
1712016534611,18045.316924569197
1712016534653,14792.79375031218
1712016534692,14021.556580693927
1712016534732,11430.004962930456
1712016534773,10161.412996072322
1712016534813,10353.20112884324
1712016534854,9476.413768769242
1712016534894,9939.361578911543
1712016534934,12055.086584636942
1712016534974,12326.834633164108
1712016535014,12619.026950346306
1712016535055,13432.259012867697
1712016535095,13096.081398145296
1712016535135,14782.130539799575
1712016535175,15022.94033658458
1712016535216,15811.902732070535
1712016535257,16775.397277348675
1712016535296,16209.167703030631
1712016535336,11306.968298359774
1712016535377,8756.94248818839
1712016535417,9175.976968858391
1712016535458,7583.078591285739
1712016535497,7156.037854470313
1712016535537,8187.798941345885
1712016535578,7613.339734755456
1712016535618,8101.999188500922
1712016535659,7656.435244837776
1712016535699,8748.948657394387
1712016535739,9878.41038524732
1712016535779,10909.798818675801
1712016535819,11906.975806115195
1712016535860,10987.392412633635
1712016535900,11291.072193491273
1712016535943,12463.853788182605
1712016535981,10671.087988786865
1712016536021,8346.20021264162
1712016536062,6324.403453410137
1712016536101,6378.137836416718
1712016536141,6324.370949004777
1712016536182,6307.857934325002
1712016536222,6550.782562283799
1712016536263,7283.89476815844
1712016536302,6979.9411376523785
1712016536343,7189.819735350087
1712016536383,7734.318650093861
1712016536423,8644.632628650405
1712016536464,9752.985822652467
1712016536507,10189.13131511584
1712016536547,9988.953319137916
1712016536588,10350.290526602417
1712016536628,10336.855988603085
1712016536668,7673.560016316362
1712016536708,5552.964353312273
1712016536748,6060.856947936118
1712016536788,5997.004296677187
1712016536828,5914.7291573989205
1712016536869,7210.470534907654
1712016536908,7361.591526340228
1712016536948,8255.342647682875
1712016536988,7834.362993185408
1712016537029,7769.1015606969595
1712016537069,8223.276628968306
1712016537109,8697.576035753358
1712016537149,9218.33934653923
1712016537189,9786.830835179426
1712016537229,9490.002470106818
1712016537270,10128.56871049758
1712016537309,9003.826511438005
1712016537349,6635.752289320342
1712016537389,4006.6738209864125
1712016537429,3691.4348798184656
1712016537470,3608.4360062219203
1712016537510,3781.753248827532
1712016537550,3548.0389946349896
1712016537590,4003.175460282713
1712016537630,4183.198416975327
1712016537671,4917.258091940079
1712016537710,5170.325755777769
1712016537750,5543.175885504112
1712016537790,5670.950306721032
1712016537830,6801.6663844343275
1712016537871,6597.124446912669
1712016537911,6849.945716352202
1712016537951,7862.8538294998
1712016537991,7066.983946849592
1712016538031,6155.128735567443
1712016538071,4362.502406347543
1712016538111,4702.179572904017
1712016538151,4403.542043826077
1712016538191,5053.319069162477
1712016538231,5218.640322660096
1712016538272,5619.801985456608
1712016538311,5253.619933368638
1712016538351,5473.312090102583
1712016538392,5741.078198777512
1712016538432,6710.776134870946
1712016538472,6937.457735092845
1712016538512,8748.665310448036
1712016538552,8093.555424179882
1712016538592,8358.194240283221
1712016538632,8314.236655526329
1712016538673,7505.799828492105
1712016538712,5500.219064025674
1712016538753,4212.303649102338
1712016538792,3782.873456981033
1712016538833,4207.06213871669
1712016538874,4636.420241261832
1712016538913,3955.6910797609016
1712016538953,3800.5019730217755
1712016538993,3831.5052114711143
1712016539033,4005.2513560089283
1712016539074,4673.7217416269705
1712016539113,4130.166658058763
1712016539153,4829.0985429883
1712016539193,4767.1024008356035
1712016539234,5233.399107153062
1712016539274,5525.513050869573
1712016539314,4216.899112762883
1712016539354,3335.4021139875986
1712016539394,1859.327653507702
1712016539434,1050.2176368813962
1712016539475,1169.4903883906081
1712016539514,982.8019824279472
1712016539554,2163.479484946467
1712016539595,2427.383199924603
1712016539635,2786.905569332652
1712016539675,2732.595615767408
1712016539715,3675.974352044519
1712016539755,4245.898706144653
1712016539795,3474.910356167704
1712016539835,4581.127910105512
1712016539876,4682.795225163922
1712016539915,5066.295981548261
1712016539955,5149.953911989927
1712016539995,4052.3548083258793
1712016540035,3326.7893005581573
1712016540076,2524.1685249577276
1712016540116,2668.202276237309
1712016540156,2466.5498203309253
1712016540196,3395.1942667844705
1712016540236,3768.6349031152204
1712016540277,3543.9856717465445
1712016540316,3068.5155446687713
1712016540356,4057.9705412704498
1712016540396,4984.798920749221
1712016540437,5447.216010358185
1712016540477,5960.328626991715
1712016540517,5533.765492088627
1712016540557,6121.123468206264
1712016540597,6332.671880059876
1712016540637,5154.095331936143
1712016540678,3588.1818198980764
1712016540717,3437.0013227672316
1712016540757,3548.273095036857
1712016540798,4254.641255973838
1712016540838,3901.7852294556797
1712016540878,3798.712580239866
1712016540918,2866.1443872898817
1712016540958,3360.456723409239
1712016540998,3251.7386715528555
1712016541038,3265.5705938735045
1712016541079,3881.3579694395885
1712016541118,4808.709250607528
1712016541158,5460.800422632135
1712016541198,5619.517978304066
1712016541239,5051.936946710572
1712016541280,3772.925231166184
1712016541319,1754.4885065359995
1712016541359,1422.7967307874933
1712016541399,896.9710935731418
1712016541439,1282.6132925297134
1712016541480,1730.5512356385589
1712016541519,1589.7129766540602
1712016541559,1509.5166095704772
1712016541599,1387.8059319076128
1712016541640,1179.3512328751385
1712016541680,1435.0072094625793
1712016541720,1304.2155589275062
1712016541760,1743.0488354768604
1712016541800,3000.9515673844144
1712016541840,3452.094444411341
1712016541881,2775.1390035799704
1712016541920,1787.9787601665594
1712016541960,553.9189577349462
1712016542001,293.0767072699964
1712016542041,529.280330833979
1712016542081,1074.325401484035
1712016542121,1270.7291079424322
1712016542161,2030.0066524026915
1712016542201,2170.328601073008
1712016542241,2189.473389143124
1712016542282,2373.3310126867145
1712016542321,2557.599127217196
1712016542361,2864.478126022499
1712016542401,2804.7411674861796
1712016542441,3136.454307457432
1712016542482,3317.8984596556984
1712016542522,2480.464640283957
1712016542562,1583.5650215111673
1712016542602,1282.1169024277478
1712016542642,539.4367753509432
1712016542683,848.5381306726485
1712016542722,1459.9582539801486
1712016542762,1278.138203161303
1712016542802,958.0687115043402
1712016542842,627.0290413238108
1712016542883,979.3166525391862
1712016542923,1045.01911215391
1712016542963,1374.0842127115466
1712016543003,1824.20823919354
1712016543043,2109.7895462880842
1712016543084,2332.74691470759
1712016543123,2138.150920727756
1712016543163,936.0555685060099
1712016543204,-411.015854019206
1712016543243,-1044.5344487344846
1712016543284,-1900.8303615245968
1712016543324,-1886.9151042769663
1712016543364,-1279.1494415588677
1712016543404,-1362.1079670558684
1712016543444,-1927.5182495322078
1712016543485,-1156.118878471665
1712016543524,-1021.1901755407453
1712016543565,-435.44648345187306
1712016543605,335.9327599545941
1712016543645,1243.5088461423293
1712016543686,1070.4359200578183
1712016543725,2159.9449172159657
1712016543765,2296.5966738387942
1712016543805,1259.5077065955848
1712016543845,-935.8043661001138
1712016543886,-2495.867053227965
1712016543926,-2600.0741292308085
1712016543966,-2517.100628604181
1712016544006,-2163.331099804025
1712016544046,-2382.3387092738412
1712016544086,-1630.6779850660823
1712016544126,-1874.517794540152
1712016544166,-2287.7741566309705
1712016544206,-1854.1640161587857
1712016544246,-1110.834629714489
1712016544287,161.4166055014357
1712016544326,995.790081278421
1712016544366,1419.3422378101386
1712016544406,1769.3333926647902
1712016544446,1386.4504762045108
1712016544487,-402.4886282738298
1712016544527,-3165.994973591063
1712016544567,-3747.858074646909
1712016544607,-3973.6235895589925
1712016544647,-3881.6888554738835
1712016544687,-3604.530288832262
1712016544727,-2963.281000273302
1712016544767,-4180.310211880133
1712016544807,-4240.081676418427
1712016544847,-3620.3538468228653
1712016544888,-2957.615430138074
1712016544927,-2596.04448840674
1712016544967,-1406.6578943585046
1712016545007,-1733.620873272419
1712016545047,-1090.4288804810494
1712016545088,-93.17657500505447
1712016545128,-155.6437636334449
1712016545168,-2658.4267047252506
1712016545208,-5628.572386007756
1712016545248,-6316.001005532686
1712016545289,-6863.980282884557
1712016545328,-5490.791281068698
1712016545368,-5157.675332296174
1712016545408,-4853.724035799969
1712016545448,-4272.470289858989
1712016545489,-3987.8656958527863
1712016545528,-3011.911383692175
1712016545568,-2749.7136484403163
1712016545609,-1650.6360902553424
1712016545649,-1045.3917052149773
1712016545689,-231.61868528090417
1712016545729,931.8704973878339
1712016545769,1979.2573457499966
1712016545809,2461.9689476061612
1712016545849,-412.90824263496324
1712016545890,-3039.275960525498
1712016545929,-4308.16247961903
1712016545969,-4621.4517433857545
1712016546009,-4705.511910966132
1712016546049,-3147.7361473580822
1712016546090,-3707.00411487557
1712016546130,-4665.218198784627
1712016546170,-3860.876226510387
1712016546210,-3733.3319289521314
1712016546250,-2799.3441447531804
1712016546291,-2190.023731568828
1712016546330,-1460.5792123866268
1712016546370,-1159.6483657434583
1712016546410,-391.03209202038124
1712016546450,813.9418343007565
1712016546491,892.2244834350422
1712016546530,-1460.9392245421186
1712016546571,-4704.7815282940865
1712016546611,-6325.285298327915
1712016546651,-7279.36836878676
1712016546692,-6665.932982637547
1712016546731,-6440.092797762714
1712016546771,-6153.912609083578
1712016546811,-6070.094685718883
1712016546851,-5624.573601475917
1712016546892,-4776.118502889294
1712016546932,-3493.299630779773
1712016546972,-2643.2564210491255
1712016547012,-2228.1482858890668
1712016547052,-1535.5669132871553
1712016547092,-1278.8296145107597
1712016547132,-790.6535366205499
1712016547172,209.4593612961471
1712016547212,194.04575987532735
1712016547252,-1617.3351834714413
1712016547293,-4810.964791163802
1712016547332,-6777.597332450561
1712016547372,-6656.991911722347
1712016547413,-6209.019766643643
1712016547453,-5610.00972363865
1712016547493,-4586.666799147148
1712016547533,-4151.552031442523
1712016547573,-3718.107516101096
1712016547613,-3147.9568207059056
1712016547653,-2290.6383026698604
1712016547694,-1432.9333170456812
1712016547733,-618.2482496793382
1712016547773,505.50285839196295
1712016547813,1256.3506307955831
1712016547853,2239.185014726594
1712016547894,2204.2612067377195
1712016547934,2875.926116249524
1712016547974,1078.6967387152836
1712016548014,-2165.2478904156014
1712016548054,-4351.5425825975835
1712016548095,-5492.499774251133
1712016548134,-5420.411569200922
1712016548174,-5312.1045686667785
1712016548214,-5215.836105448194
1712016548255,-5056.8699215971865
1712016548295,-4564.189301238395
1712016548335,-4103.230904099066
1712016548375,-3308.560903882142
1712016548415,-1580.3524604821578
1712016548455,89.50110829016194
1712016548496,21.56745896860957
1712016548533,517.9601727803238
1712016548573,1288.3582599852234
1712016548614,1906.7666601515375
1712016548654,3034.695669271983
1712016548694,3577.7334469892085
1712016548734,1085.4144162200391
1712016548774,-2943.959187381901
1712016548814,-5171.962872343138
1712016548854,-6176.61442580726
1712016548895,-6435.73809130583
1712016548934,-5586.95532117784
1712016548975,-5564.462836152874
1712016549014,-5049.003326917533
1712016549055,-5607.895741269924
1712016549096,-4373.591352827847
1712016549135,-3173.514828953892
1712016549175,-1985.1797484555282
1712016549215,-1324.4062937078997
1712016549255,-491.4305046470836
1712016549296,546.6072555724531
1712016549336,952.7302739201114
1712016549375,2183.7431864459068
1712016549416,2841.5390397617593
1712016549456,2799.6958832051605
1712016549497,1118.1979481014423
1712016549536,-1503.0768654141575
1712016549576,-3871.645521566272
1712016549616,-4180.5448821866885
1712016549656,-3617.9341323566623
1712016549697,-3047.073024132289
1712016549736,-2947.673826798331
1712016549777,-2528.3145222626626
1712016549817,-1767.079709767364
1712016549857,-1108.3285312764347
1712016549898,-1018.2149836178869
1712016549937,-173.58715139422566
1712016549977,651.0096856621094
1712016550017,1786.8333175228909
1712016550057,2981.495849966537
1712016550098,3554.060897742398
1712016550138,4750.571020608302
1712016550178,5457.924236154184
1712016550218,5721.4897089172155
1712016550258,4299.112812303007
1712016550299,359.19292107690126
1712016550338,-1678.6304442593828
1712016550378,-3006.940773841925
1712016550418,-3555.6393572916277
1712016550458,-2699.5481258207
1712016550499,-2984.0237021893263
1712016550539,-3063.220992423594
1712016550579,-3123.8762430869974
1712016550619,-2499.5838712728582
1712016550659,-1719.2795403907076
1712016550700,-618.9899894064292
1712016550739,1247.4844867838547
1712016550779,2060.089770020917
1712016550819,2439.590180664789
1712016550859,3052.5163307720795
1712016550900,3334.656419429928
1712016550940,4724.797006862238
1712016550980,4926.960379105061
1712016551020,3410.0562587329186
1712016551060,1091.3128466969356
1712016551101,-1478.719377852045
1712016551140,-2635.1581793529913
1712016551180,-2561.6692767599598
1712016551221,-2151.2800655579194
1712016551261,-2605.663483546581
1712016551301,-2107.498548457399
1712016551341,-1906.6136108180508
1712016551381,-1949.8663725527003
1712016551421,-303.7678933860734
1712016551461,1030.1477453168482
1712016551502,1029.470174186863
1712016551541,2278.7174543133005
1712016551581,3781.722593189683
1712016551622,3644.2781802639365
1712016551662,4217.201420933008
1712016551703,5700.606057190336
1712016551742,5901.816788052209
1712016551782,4675.778904501349
1712016551822,2432.985695976764
1712016551862,124.54396578948945
1712016551903,-1402.8024027612992
1712016551942,-1957.6955819027498
1712016551983,-1814.2086760955863
1712016552023,-1869.239475957118
1712016552063,-1661.9822302232496
1712016552104,-1623.599667262286
1712016552143,-1113.484203658998
1712016552183,-765.6743163298815
1712016552223,-578.6818678546697
1712016552263,120.63558006240055
1712016552304,673.0506642661057
1712016552343,1349.1166570503265
1712016552383,2071.03095469065
1712016552423,2197.2727322280407
1712016552464,2892.7624277621508
1712016552504,969.6215229402296
1712016552544,-1600.1186595880426
1712016552584,-4356.025197432376
1712016552624,-5030.608792737126
1712016552664,-4828.343035248108
1712016552705,-4867.807939317077
1712016552744,-5144.5741852661595
1712016552784,-4560.0456848097965
1712016552824,-4857.148097245023
1712016552864,-4406.910001125187
1712016552905,-2933.6798674399033
1712016552945,-1646.0679109236225
1712016552984,-1138.4754484258592
1712016553025,-476.0312477420084
1712016553065,177.00095967762172
1712016553105,569.3375750454143
1712016553145,776.7325902269222
1712016553185,2007.1313556600362
1712016553225,2441.193782372866
1712016553265,918.9347748160362
1712016553306,-2238.692057025619
1712016553345,-3836.5314310174435
1712016553385,-3816.443834907841
1712016553426,-3217.6044002515264
1712016553466,-2421.122632715851
1712016553506,-2176.155909076333
1712016553546,-2360.331438984722
1712016553586,-1885.5878751906566
1712016553626,-1686.4094334067777
1712016553666,-1225.3431034237146
1712016553707,598.6781334038824
1712016553746,1136.5892697745003
1712016553786,2496.9490243913606
1712016553826,3404.5333723071963
1712016553866,4306.5864430652
1712016553907,4391.8589293216355
1712016553946,5857.2472510770895
1712016553986,5857.549200972542
1712016554026,4127.925263541751
1712016554066,582.6472806744277
1712016554107,-2188.626927695237
1712016554147,-2433.4732501674443
1712016554187,335.7939710589126
1712016554227,284.92656274698675
1712016554267,-2181.260694510769
1712016554308,-4369.606516841799
1712016554347,-2060.2461412805133
1712016554387,846.7935118786991
1712016554427,2656.8175694281235
1712016554467,2549.4293995602056
1712016554508,2049.9066718174145
1712016554548,2314.722805290483
1712016554588,3340.4641945222393
1712016554628,3777.142990188673
1712016554668,4611.751594642177
1712016554709,4617.242940953001
1712016554749,2816.37053984683
1712016554789,100.49699713569134
1712016554829,-2237.247297952883
1712016554870,-1860.473453687504
1712016554910,-1578.416170313023
1712016554950,-988.2728850836866
1712016554990,-617.8340762839653
1712016555030,-716.6940374150872
1712016555071,-887.3167785322294
1712016555112,-4.6095083663240075
1712016555151,688.3078569294885
1712016555191,1856.1271289722063
1712016555232,1605.575060811825
1712016555272,977.5218075891025
1712016555313,859.7510935328901
1712016555353,1425.8866332015023
1712016555393,4209.253774631303
1712016555433,4535.768839199096
1712016555473,572.0642057862133
1712016555514,-3282.3822700646706
1712016555554,-4274.136102730408
1712016555594,-3131.195272853598
1712016555634,-3958.9714667554945
1712016555675,-4527.4717494742945
1712016555716,-4941.845028011594
1712016555755,-4789.258843607735
1712016555795,-4569.060402549803
1712016555836,-4374.449916535057
1712016555876,-3766.199062234722
1712016555917,-2980.196391103789
1712016555957,-2765.2922092285007
1712016555997,-2004.3755373694003
1712016556037,-1565.748657995835
1712016556077,-436.0133333457634
1712016556118,1511.5467957807705
1712016556160,-367.3063932741061
1712016556201,-3617.864192384295
1712016556241,-7040.111108283978
1712016556281,-8436.546709987335
1712016556322,-9591.426419791766
1712016556362,-9357.622687215917
1712016556402,-9348.63699301891
1712016556442,-8827.445973132271
1712016556483,-9040.967261468992
1712016556524,-8646.776401286479
1712016556563,-6998.563028272241
1712016556603,-4653.281716617756
1712016556643,-3466.017969176639
1712016556684,-2038.392188737169
1712016556724,-1176.1201660004444
1712016556764,-101.4914038516581
1712016556804,1183.5069487076253
1712016556844,490.30216751620173
1712016556884,-3534.1925918208435
1712016556925,-6794.512482602615
1712016556965,-7785.684407430701
1712016557005,-7706.028800367378
1712016557045,-6785.908642233349
1712016557085,-5621.095302377362
1712016557126,-5193.716259143315
1712016557166,-4771.418848052621
1712016557206,-3840.605680353008
1712016557246,-2822.889544140082
1712016557286,-1758.947431168519
1712016557327,-235.9555567232892
1712016557366,733.2937886402942
1712016557407,1610.8401868138462
1712016557447,3454.144419508055
1712016557487,4475.989084188361
1712016557528,3258.5329354992136
1712016557567,-1329.8036156054586
1712016557607,-4076.3576837391593
1712016557648,-5326.9078997904435
1712016557688,-6157.460998240858
1712016557729,-5905.643041892443
1712016557769,-5374.507884668186
1712016557809,-5377.152782460209
1712016557849,-5694.092649007682
1712016557889,-5827.040769625921
1712016557930,-5483.279747681227
1712016557969,-4768.633064248599
1712016558010,-3689.404903587885
1712016558050,-2532.4373917309567
1712016558090,-1453.8769082175568
1712016558131,-387.2232350031845
1712016558171,1494.3103609178215
1712016558211,2135.1759364255704
1712016558251,-1427.7652907185256
1712016558291,-5774.907491741702
1712016558332,-8241.247208540328
1712016558372,-9269.037369632628
1712016558412,-9426.27016095072
1712016558452,-8854.506316756364
1712016558493,-8869.284843917936
1712016558534,-8840.60164802149
1712016558573,-8285.388827573974
1712016558614,-7412.249511911534
1712016558655,-5802.428112261463
1712016558695,-4662.051125516184
1712016558736,-4063.5362943806686
1712016558775,-2633.000198994763
1712016558816,-1631.5079664476216
1712016558856,-193.66600867221132
1712016558896,1148.1623783158138
1712016558937,1404.0554335247725
1712016558977,-759.8798506185412
1712016559017,-4943.500942202285
1712016559057,-7116.257461824454
1712016559098,-7750.586382046342
1712016559138,-7533.797998973168
1712016559178,-7336.172336352989
1712016559218,-6311.65407877462
1712016559258,-6372.596981154755
1712016559299,-5483.720472695306
1712016559340,-4995.899209225085
1712016559379,-4088.319328337442
1712016559419,-2793.7458270289935
1712016559460,-2298.477162260562
1712016559500,-1141.1207113484852
1712016559541,488.17419032473117
1712016559580,1510.7889828300104
1712016559620,3522.4461717037484
1712016559661,5224.16310805222
1712016559701,4856.734659060836
1712016559742,1900.9244876983576
1712016559782,-2095.9402676532045
1712016559822,-3917.3340266533196
1712016559862,-5869.709800675511
1712016559902,-5294.381544542965
1712016559943,-5145.153651895467
1712016559983,-5338.67401656881
1712016560023,-4560.19796605641
1712016560063,-4357.34408137342
1712016560103,-2934.568459343631
1712016560144,-1846.6810794007033
1712016560184,-533.7017176905647
1712016560224,689.223241600208
1712016560264,2485.5763427671045
1712016560304,3741.618653461337
1712016560345,4015.3230526898988
1712016560385,5899.300678053871
1712016560425,5660.905255313963
1712016560465,2228.3929645428434
1712016560505,-1506.2113260487095
1712016560546,-2476.142198140733
1712016560581,-3125.7738644056953
1712016560621,-2866.485005578026
1712016560662,-2199.5949968993664
1712016560702,-1905.9869217793457
1712016560742,-1631.8982129576616
1712016560782,-1942.9314146777615
1712016560822,-942.7477313019335
1712016560862,331.34652178455144
1712016560902,444.56040337262675
1712016560943,1253.9042022442445
1712016560982,2833.173413182609
1712016561023,3681.865092938766
1712016561062,3902.8424331359565
1712016561103,4677.056535067968
1712016561143,6265.890545336064
1712016561183,5157.59522610344
1712016561223,1022.7504803617485
1712016561263,-1894.9975864477456
1712016561303,-3555.8061947580427
1712016561344,-4170.033357236069
1712016561383,-3605.8182987221517
1712016561423,-3252.2188657806255
1712016561463,-3740.2783306157216
1712016561504,-4579.036478501745
1712016561545,-4545.0581895699725
1712016561584,-3743.9109869953245
1712016561624,-2265.6627487777732
1712016561664,-748.3031534543261
1712016561704,787.8800990525633
1712016561745,2716.375758668408
1712016561784,3400.4196831048466
1712016561825,4021.6395647777244
1712016561865,5619.6804288779385
1712016561905,6785.041445632465
1712016561946,4556.507259522565
1712016561985,420.44300506589934
1712016562025,-2564.992932713125
1712016562065,-1908.4959983346052
1712016562106,-2639.220145103056
1712016562146,-3556.3006977923214
1712016562186,-3592.933491480071
1712016562226,-1994.057816568762
1712016562266,-3562.160965424031
1712016562306,-3519.4996325410903
1712016562347,-3168.5498169017956
1712016562386,-3126.7008809726685
1712016562426,-2570.5901030446403
1712016562467,-1341.881426986307
1712016562507,-1406.8296441142447
1712016562547,-2078.6891017602757
1712016562587,-340.37104531377554
1712016562627,1806.4424717267975
1712016562667,-1277.5845674257725
1712016562707,-5857.945639083162
1712016562748,-8836.15347166825
1712016562787,-9656.268753027543
1712016562828,-9094.709252044559
1712016562868,-10163.428344071843
1712016562908,-10757.685317084659
1712016562949,-10454.756759056821
1712016562988,-9040.603091232013
1712016563028,-9301.73341389466
1712016563068,-7413.367186243646
1712016563108,-5523.319408532698
1712016563149,-5649.104211986996
1712016563189,-3909.646306007169
1712016563229,-1802.8725608172826
1712016563269,490.6808842984028
1712016563309,2702.2334584202617
1712016563350,2583.473246748559
1712016563389,1608.9399732518941
1712016563429,-1231.4030259433202
1712016563469,-3875.5744176357985
1712016563509,-6557.912114002742
1712016563550,-5645.701199673116
1712016563590,-5323.655722599477
1712016563630,-4639.311398374848
1712016563670,-3992.937922049314
1712016563710,-3772.9710611505434
1712016563751,-3365.429346290417
1712016563790,-2290.2676751343533
1712016563830,101.1241630143486
1712016563870,936.9053671099246
1712016563911,1120.6827978082001
1712016563951,2906.5669533042237
1712016563991,3869.7309401161037
1712016564031,5965.386894291267
1712016564071,5654.347990755457
1712016564111,514.3178565986454
1712016564152,-3489.0676313131116
1712016564191,-4571.204768029973
1712016564232,-5817.758318217471
1712016564272,-6341.676533364225
1712016564312,-6110.188162598759
1712016564353,-7324.01818802394
1712016564392,-8500.550639652181
1712016564432,-5763.851578938775
1712016564472,-6661.620200405363
1712016564513,-7611.358732401393
1712016564553,-5295.808756548911
1712016564593,-4247.818633876741
1712016564633,-5009.128240976483
1712016564673,-4189.3512717708945
1712016564713,-4378.593538837507
1712016564754,-4816.668708869256
1712016564794,-7480.646495319437
1712016564834,-10678.703743521124
1712016564874,-13733.405452322215
1712016564914,-14906.860387195367
1712016564955,-14441.147156099789
1712016564994,-13427.549750612117
1712016565034,-13668.2277792003
1712016565075,-13355.737270070706
1712016565115,-13749.00670319004
1712016565156,-13133.830458572134
1712016565195,-11901.737245284952
1712016565235,-9539.960162657779
1712016565275,-6177.419231440872
1712016565315,-5983.837670312263
1712016565356,-4836.1799147725105
1712016565396,-2304.7263719234616
1712016565436,-2539.828974929638
1712016565476,-8758.075570757966
1712016565516,-12980.12139624171
1712016565557,-15196.287748871371
1712016565596,-16386.995339422952
1712016565636,-16745.7948642266
1712016565677,-16345.746510626748
1712016565717,-17565.644656912424
1712016565758,-16165.076251139864
1712016565797,-14394.657408370636
1712016565837,-16510.557817780413
1712016565877,-16123.289293034002
1712016565918,-13387.538389592431
1712016565958,-11949.254259108566
1712016565998,-10371.264867162798
1712016566038,-8871.940896623768
1712016566078,-7894.220581938047
1712016566118,-9047.888156767003
1712016566159,-13357.97425718559
1712016566198,-17778.85761821177
1712016566238,-19759.94663379807
1712016566278,-21016.133381645195
1712016566319,-21067.231759566348
1712016566359,-20090.961605920456
1712016566399,-19717.509635785595
1712016566439,-19402.288876767736
1712016566479,-17895.079923313577
1712016566519,-17622.474062894937
1712016566560,-17488.773259402253
1712016566599,-14493.613280807622
1712016566639,-12288.65026342636
1712016566680,-11111.09291724069
1712016566720,-10482.07811710285
1712016566761,-7535.298550425563
1712016566800,-10487.458215229213
1712016566840,-17811.517168991733
1712016566880,-24600.057548363693
1712016566921,-28163.571650105994
1712016566961,-31572.495472814422
1712016567001,-34019.36603937298
1712016567041,-35109.24902775604
1712016567081,-36018.337880344596
1712016567121,-35744.639302639756
1712016567162,-35737.25469009206
1712016567202,-35587.774962976575
1712016567242,-34839.01338396035
1712016567282,-30320.698309835047
1712016567322,-26830.196769719943
1712016567363,-25846.258830991574
1712016567403,-26881.393952300772
1712016567443,-24144.809745563194
1712016567483,-21230.0067895893
1712016567524,-27344.665181584656
1712016567564,-33946.55646991823
1712016567604,-35725.5074837436
1712016567644,-36925.75283925282
1712016567684,-38640.83281778358
1712016567724,-39004.6395988632
1712016567765,-40105.92948342394
1712016567805,-40414.22479939973
1712016567845,-38613.6285296455
1712016567886,-38087.21716555115
1712016567926,-35175.25497449469
1712016567967,-32162.755241732113
1712016568006,-29001.79897150211
1712016568046,-28058.20231321454
1712016568087,-26635.08511364134
1712016568127,-26048.517110074405
1712016568168,-21147.24801507406
1712016568207,-26251.081545211375
1712016568248,-31761.603340778966
1712016568288,-35611.444942473434
1712016568328,-39167.137569187675
1712016568369,-37429.70692225592
1712016568409,-35837.44412109628
1712016568449,-35615.37968377629
1712016568489,-33212.89105166122
1712016568530,-31979.831605115905
1712016568570,-33264.10150571633
1712016568610,-30930.181966102216
1712016568650,-25332.033960134722
1712016568690,-19689.395989570767
1712016568731,-16192.500432697125
1712016568772,-14967.452711082064
1712016568811,-10947.72362938011
1712016568852,-8745.873229599558
1712016568892,-17013.01693794178
1712016568932,-22325.558518249076
1712016568973,-24661.59167139232
1712016569013,-26592.557562848553
1712016569053,-26560.834850237705
1712016569093,-24400.543609996792
1712016569133,-23641.627226296812
1712016569174,-22195.034121061675
1712016569214,-21442.573830547277
1712016569254,-20292.74035402201
1712016569294,-17159.984195546247
1712016569335,-13874.740641824901
1712016569376,-11100.249494484626
1712016569415,-6125.716802616138
1712016569455,-4065.544823916629
1712016569496,-1361.3652964537032
1712016569536,-4317.175800926052
1712016569577,-10795.012474344578
1712016569616,-11888.775003951043
1712016569656,-15529.006114464253
1712016569697,-17635.70836273441
1712016569737,-17075.217056415975
1712016569778,-17642.613794951234
1712016569818,-16738.70848460868
1712016569858,-14767.630483263638
1712016569898,-14443.50275105564
1712016569939,-13053.459397888742
1712016569979,-10109.481013600715
1712016570019,-6489.759567711502
1712016570059,-3298.0232013459317
1712016570099,-1820.6628030855209
1712016570139,-703.036738153547
1712016570180,1071.4919843482785
1712016570219,-4367.20253228955
1712016570260,-11144.221488249954
1712016570300,-14682.89768965263
1712016570340,-16359.78121688636
1712016570381,-18478.8460020544
1712016570420,-18301.016557406634
1712016570460,-16341.170303074643
1712016570501,-15446.153087155893
1712016570541,-14907.261299095117
1712016570582,-13236.689154735766
1712016570621,-11896.959782904014
1712016570661,-9743.818166645244
1712016570702,-6013.093374848366
1712016570742,-3778.7933812928386
1712016570783,-2654.297521301545
1712016570822,646.4075471237302
1712016570862,3597.3105614692904
1712016570903,4005.309448936954
1712016570943,-1418.014071707148
1712016570984,-7717.710013383068
1712016571023,-11935.681769082788
1712016571063,-13153.783907027915
1712016571104,-13943.564623869956
1712016571144,-14127.04378876742
1712016571185,-11558.16539493436
1712016571224,-9904.447400733829
1712016571265,-9801.01845172979
1712016571305,-9130.064201349393
1712016571345,-6752.672240283806
1712016571386,-3313.4979556892067
1712016571425,-501.3380955005996
1712016571466,1248.2204199461266
1712016571506,2892.925309819635
1712016571546,6371.818459395319
1712016571587,9503.17733340105
1712016571627,10821.354541498236
1712016571667,7813.863395928405
1712016571707,1148.819999633357
1712016571748,-2750.4158038632013
1712016571788,-3892.87207486853
1712016571828,-4439.002236903645
1712016571868,-5075.1709398017265
1712016571909,-3719.4639518233016
1712016571949,-2536.738512733951
1712016571990,-2188.3994594532996
1712016572029,-1411.9773500487208
1712016572069,1502.409256038256
1712016572110,3341.2645355551504
1712016572150,4870.691331646405
1712016572191,7225.8168054381385
1712016572231,9782.540722399019
1712016572271,12294.924976497889
1712016572311,14137.294155179989
1712016572351,14800.788216418587
1712016572392,13065.592927645892
1712016572432,7918.439051494002
1712016572472,3224.008288805373
1712016572512,1271.8784620137885
1712016572552,1570.7960088877007
1712016572594,2617.941636350006
1712016572640,3727.989025367424
1712016572680,3579.8290453669615
1712016572720,4194.425760023296
1712016572760,5043.548924752511
1712016572801,7097.786415401846
1712016572841,9509.16207476426
1712016572881,11390.708506301977
1712016572921,13357.552802108228
1712016572961,14844.8993893601
1712016573002,16287.900921623223
1712016573041,17647.607881058007
1712016573082,19144.013748636004
1712016573122,17235.184259400703
1712016573162,11791.488963698503
1712016573203,7360.049335864373
1712016573242,6094.790480123833
1712016573282,5349.976964066736
1712016573322,5825.090647411067
1712016573362,6586.03186628269
1712016573403,6455.155633217655
1712016573443,6996.071603521239
1712016573483,7807.188225120772
1712016573523,8807.218393534888
1712016573563,10855.688052798621
1712016573604,13712.297472460195
1712016573643,16729.465734162368
1712016573684,18185.23201069329
1712016573724,20182.416349125095
1712016573764,22209.250361818355
1712016573805,22984.972615723498
1712016573844,20062.627769666724
1712016573884,14283.823910424951
1712016573924,11998.456364779267
1712016573964,11113.021825688425
1712016574005,11542.343514372129
1712016574044,12103.755343078636
1712016574084,12657.038482306525
1712016574124,12705.634769668803
1712016574165,12379.342996001244
1712016574205,13002.354673463851
1712016574245,14377.742966629565
1712016574285,16095.509324105922
1712016574325,17825.882533838972
1712016574365,19011.52894414123
1712016574406,21083.30359632289
1712016574445,22604.657002187334
1712016574485,23801.543679076247
1712016574525,22773.348466335796
1712016574565,17431.656679586507
1712016574606,12697.418545892462
1712016574646,12081.174497654662
1712016574685,12286.620579933748
1712016574726,12102.245809539221
1712016574766,12888.72594054509
1712016574807,13173.135001115501
1712016574846,12335.754289670847
1712016574886,12677.026559246704
1712016574926,12784.654876704793
1712016574966,14093.994642846286
1712016575007,15432.509148738347
1712016575046,16551.496511572506
1712016575087,18354.878677445464
1712016575127,19904.775922041386
1712016575167,21907.14733708743
1712016575208,20863.38698012568
1712016575247,16718.590754035395
1712016575287,11586.133480478544
1712016575327,10215.766306821257
1712016575367,9339.454910180066
1712016575408,9379.484125214629
1712016575447,10534.927282109857
1712016575488,10054.269630613737
1712016575528,9351.60252624331
1712016575568,9801.845270922408
1712016575609,10134.441883288324
1712016575648,11113.845968741924
1712016575688,12324.736783164553
1712016575728,13579.275581203401
1712016575768,14159.995910390746
1712016575809,15767.734753862023
1712016575848,17841.558872162364
1712016575888,17742.89842294529
1712016575929,12409.215496986173
1712016575969,8463.100107967388
1712016576009,7874.300936128013
1712016576049,7546.096909809858
1712016576089,8113.302246588282
1712016576129,9363.537515794858
1712016576169,9267.708046754822
1712016576210,8608.596335830167
1712016576249,8178.073190230411
1712016576289,9204.51421168726
1712016576330,10488.09048054181
1712016576370,10601.26996474946
1712016576410,12007.648827784695
1712016576450,13230.482474806719
1712016576490,14401.249013852328
1712016576530,15073.982023485005
1712016576570,14380.71833536774
1712016576611,9035.854636823293
1712016576651,5421.622204533778
1712016576691,4260.841866611969
1712016576731,3981.236535716802
1712016576771,4994.310461720452
1712016576812,5668.667957596481
1712016576851,5138.977209683042
1712016576891,4511.064249123912
1712016576931,4409.548902706243
1712016576971,5830.5433455179445
1712016577012,7173.5963011542335
1712016577052,8552.820694646798
1712016577092,8812.96679263236
1712016577132,9702.828217348084
1712016577172,11025.936545546632
1712016577213,11378.421898297966
1712016577252,7195.01592922397
1712016577292,2471.6185067314655
1712016577332,808.9051584713161
1712016577372,148.1394501887262
1712016577413,1320.448276186362
1712016577453,1929.6474039391614
1712016577493,1865.1594794020057
1712016577533,1376.2630842207
1712016577573,745.3987409453839
1712016577614,1075.1380106969737
1712016577653,2469.286094713956
1712016577693,4210.009655580856
1712016577733,5054.584973255172
1712016577774,6264.958800131921
1712016577814,7927.545126049779
1712016577854,8621.193683952093
1712016577894,4734.884364524856
1712016577934,-559.5806835070252
1712016577974,-2476.4138411832973
1712016578015,-3295.067247335799
1712016578054,-2899.676708121784
1712016578095,-2234.134435889311
1712016578135,-2426.092209325172
1712016578175,-3378.724473998416
1712016578216,-3797.0191347636282
1712016578255,-3650.8482124935836
1712016578295,-3061.922625988722
1712016578335,-1294.3193083116785
1712016578375,510.7034519398585
1712016578416,2011.251129320357
1712016578456,3547.104696995113
1712016578496,5133.847753271926
1712016578536,3497.3182561891153
1712016578576,-2203.921410490293
1712016578617,-5820.5641675060615
1712016578658,-6569.178150164429
1712016578699,-6846.028476179577
1712016578739,-6197.501176016871
1712016578779,-5238.4104698929
1712016578820,-5787.019802656025
1712016578860,-6607.44278594479
1712016578900,-6393.005784790963
1712016578940,-5034.084055692889
1712016578981,-3680.844508457929
1712016579022,-1872.9446790246293
1712016579061,-389.080363671761
1712016579101,461.19699823949486
1712016579142,1553.0359230730683
1712016579182,2913.221230166033
1712016579223,-1145.9474895633757
1712016579262,-7369.798593115993
1712016579303,-9555.02878784202
1712016579343,-10570.518299173098
1712016579383,-10768.747411629185
1712016579424,-10149.925468504429
1712016579464,-10883.483004165813
1712016579504,-11121.312196467537
1712016579545,-10083.016393713187
1712016579586,-8771.888694483321
1712016579626,-7307.344673808198
1712016579666,-5575.168664625846
1712016579706,-4385.528192662168
1712016579746,-3692.5157781159505
1712016579786,-2547.4729302893393
1712016579827,-1052.66722821258
1712016579867,-3251.258069816511
1712016579907,-9053.780879110098
1712016579947,-12672.594802407082
1712016579987,-13499.691651599482
1712016580028,-13331.825801487546
1712016580068,-12991.151185068302
1712016580108,-11925.582792839501
1712016580148,-11788.44055729499
1712016580188,-11656.635215779766
1712016580229,-11060.796554912813
1712016580268,-9729.524523858912
1712016580309,-8333.87315552961
1712016580349,-6698.929336799309
1712016580389,-5025.891146033071
1712016580430,-3042.28393134661
1712016580469,-1566.695283501409
1712016580510,452.5569083490409
1712016580550,2171.003641370684
1712016580590,369.8951569823548
1712016580631,-4628.903781400062
1712016580671,-8629.978686776944
1712016580711,-9325.12858846737
1712016580751,-9823.399261699058
1712016580791,-9526.345805107616
1712016580832,-9455.044716335833
1712016580872,-9173.668502210174
1712016580912,-9524.167006984819
1712016580952,-9038.997662865557
1712016580993,-7744.307824706193
1712016581034,-6036.509351844434
1712016581073,-5259.433182530571
1712016581113,-4219.4846857516095
1712016581154,-2635.2342347120866
1712016581194,-1850.1217819359154
1712016581235,-174.97291993023828
1712016581274,1239.3666151021607
1712016581314,1919.7018171413802
1712016581355,-3308.4227536092512
1712016581395,-8720.097793590743
1712016581436,-10050.07412020117
1712016581475,-10711.166954030283
1712016581516,-10523.485007373616
1712016581556,-9510.430084011517
1712016581596,-9367.879818259738
1712016581637,-8926.675201402977
1712016581677,-8955.602252695244
1712016581717,-7549.832441373728
1712016581757,-6224.373760462739
1712016581797,-3897.2456488758326
1712016581838,-2432.553783569485
1712016581878,-1045.6442488892935
1712016581918,255.297779598739
1712016581959,1759.9463955210522
1712016581999,2846.8992054406554
1712016582040,5423.458143265918
1712016582079,3816.9749787724577
1712016582120,-2405.9623996485025
1712016582160,-6978.176412694156
1712016582200,-8350.706229705364
1712016582241,-9023.889115176164
1712016582281,-8790.779615189414
1712016582321,-8928.886356129777
1712016582361,-8639.077441737987
1712016582401,-8929.507126125507
1712016582442,-8877.057117451914
1712016582482,-7488.017344028689
1712016582522,-5654.5358855417
1712016582562,-3503.405395325739
1712016582603,-1911.184894170612
1712016582644,390.8184512271546
1712016582683,1994.1888114023022
1712016582724,2562.2363745635375
1712016582764,4419.631700553466
1712016582804,5240.473556224257
1712016582845,836.6477718213573
1712016582884,-4795.56593870651
1712016582924,-8120.219801032916
1712016582965,-9699.302854611073
1712016583005,-11079.838534411043
1712016583046,-9972.76600629976
1712016583085,-9656.282024738379
1712016583125,-10110.595985542517
1712016583166,-9894.0447549331
1712016583207,-9318.496548062656
1712016583248,-7692.841857030988
1712016583287,-5948.598238628358
1712016583327,-4628.233134357724
1712016583367,-2566.8488517897204
1712016583408,-738.3893382204697
1712016583449,395.32997426670045
1712016583488,1393.5765970335342
1712016583528,3747.512292456813
1712016583568,3606.6449938588776
1712016583608,-995.6830801935866
1712016583649,-5997.723511587363
1712016583689,-7642.865151620936
1712016583729,-8531.572245005518
1712016583769,-8016.285918746144
1712016583810,-7016.471712281462
1712016583850,-7381.834502173588
1712016583890,-7340.39470156841
1712016583931,-6831.513688455336
1712016583971,-6695.127018994652
1712016584011,-4370.123799715191
1712016584052,-2150.2243603393435
1712016584091,-350.84272796241567
1712016584131,1961.818227651529
1712016584172,3533.830549995415
1712016584212,4885.870832516812
1712016584253,7683.573630978819
1712016584293,9534.318575895391
1712016584333,6449.712773502339
1712016584373,839.6654129503295
1712016584413,-2117.3075115587562
1712016584454,-3453.276016216725
1712016584494,-3039.6292080720887
1712016584534,-2320.957327029668
1712016584574,-1779.642708180938
1712016584614,-2271.1250302391127
1712016584656,-1993.738090458326
1712016584695,-1333.9719180618413
1712016584734,445.319387126714
1712016584773,2507.152047280222
1712016584812,3984.916293051094
1712016584851,5451.919405817054
1712016584890,7228.009836555459
1712016584929,8266.888550953474
1712016584968,9304.834606028628
1712016585007,11612.993979390245
1712016585046,10342.643150352873
1712016585085,3904.4019021107815
1712016585124,447.1559687135741
1712016585163,-1185.7875583977439
1712016585202,-1768.8243068722077
1712016585241,-719.8710183389485
1712016585280,-326.8416058900766
1712016585320,-346.81215198896825
1712016585360,-447.2991552776657
1712016585400,-209.30098569300026
1712016585440,455.21455674711615
1712016585480,2604.7429532972164
1712016585520,3107.6207699654624
1712016585560,4697.25655870419
1712016585600,6289.757659230381
1712016585640,8027.968254622538
1712016585680,9375.506131676026
1712016585720,11342.827368746512
1712016585760,11520.084104228765
1712016585800,7607.8673620601185
1712016585840,2923.6800875077024
1712016585880,1331.9579140837304
1712016585920,114.93866722285748
1712016585960,-377.20520510338247
1712016586000,217.490283687599
1712016586040,450.80350186675787
1712016586080,29.462479643523693
1712016586120,378.98874270450324
1712016586160,138.05381118692458
1712016586200,2133.2481355816126
1712016586240,3798.818417784758
1712016586280,4372.517552624457
1712016586320,6000.27417753404
1712016586360,8188.949987100437
1712016586400,9127.081588105764
1712016586440,10594.151990298647
1712016586480,12516.936988121364
1712016586520,11258.35762664117
1712016586560,5867.11026629433
1712016586600,1698.4626472257078
1712016586640,-587.9734293697402
1712016586680,-1275.2349605909549
1712016586720,-266.44938466511667
1712016586760,-449.2057367619127
1712016586800,-230.74169816356152
1712016586840,-1043.4786469973624
1712016586880,-1221.1357218120247
1712016586920,-906.296018992085
1712016586960,1087.2454269267619
1712016587000,2407.3566340385005
1712016587040,4007.4766324423254
1712016587080,5232.557874595746
1712016587120,6486.226028059144
1712016587160,8973.284588930197
1712016587200,10145.882957547903
1712016587240,7652.818080992438
1712016587280,1493.9782536383718
1712016587320,-1246.7516755359247
1712016587360,-2829.2766868947074
1712016587400,-3654.4447084041312
1712016587440,-3590.3537302645855
1712016587480,-3969.431089540012
1712016587520,-4074.000902072992
1712016587560,-4221.940556658898
1712016587600,-3336.7948379060254
1712016587640,-2485.1120341499336
1712016587680,-1084.8885573069565
1712016587720,937.8600807888433
1712016587760,2092.2201751694083
1712016587800,3745.23223539209
1712016587840,5202.881685085595
1712016587880,6916.159843827132
1712016587920,8687.675248888321
1712016587960,9758.920560388826
1712016588000,5421.060214825906
1712016588040,142.266072739847
1712016588080,-2421.9639619789086
1712016588120,-2414.350912520662
1712016588160,-2423.06130772084
1712016588200,-1447.9698740006424
1712016588240,-1570.9479782339185
1712016588280,-2418.553594375029
1712016588320,-2955.2968488149345
1712016588360,-2809.9030945850536
1712016588400,-1948.8622461920604
1712016588440,-602.9546464905143
1712016588480,244.93648387724534
1712016588520,927.6757215084508
1712016588560,2571.6950625311583
1712016588600,3066.8750055935234
1712016588640,4900.19805870112
1712016588680,6542.204579086043
1712016588720,4383.38203114178
1712016588760,-1769.1976282410324
1712016588800,-5735.400124852546
1712016588840,-7541.099877425004
1712016588880,-8554.079513544682
1712016588920,-8101.717838461511
1712016588960,-8000.220245888457
1712016589000,-9567.57906679064
1712016589040,-10341.536617490463
1712016589080,-10313.619401884265
1712016589120,-10311.247005232144
1712016589160,-9866.26673850324
1712016589200,-8385.648797134403
1712016589240,-7436.735035814345
1712016589280,-6686.848900094628
1712016589320,-5483.92240100354
1712016589360,-3640.4351377459243
1712016589400,-5166.976166349836
1712016589440,-9915.046120652929
1712016589480,-15090.912837450393
1712016589520,-18098.409564377274
1712016589560,-18643.402010689024
1712016589600,-19273.73173336126
1712016589640,-18760.483048356604
1712016589680,-19261.226240775548
1712016589720,-19539.323102382943
1712016589760,-19512.487815447617
1712016589800,-19322.907922635786
1712016589840,-19048.003399045207
1712016589880,-17777.330045714974
1712016589920,-16582.195642492734
1712016589960,-16344.46416078182
1712016590000,-14596.762247983366
1712016590040,-12938.913074035197
1712016590080,-16224.454683513846
1712016590120,-24046.586762920953
1712016590160,-30657.39507961925
1712016590200,-34480.02274178667
1712016590240,-35492.19994836114
1712016590280,-35902.692992846016
1712016590320,-35741.35928598698
1712016590360,-35269.054397122
1712016590400,-34559.456597383134
1712016590440,-33315.23571109632
1712016590480,-30902.71146179363
1712016590520,-27958.926910489332
1712016590560,-25163.80297606811
1712016590600,-22677.08575116191
1712016590640,-20129.91122459341
1712016590680,-16842.85874679219
1712016590720,-16509.248148470186
1712016590760,-21356.752090872265
1712016590800,-25194.609119943343
1712016590840,-27045.483116765972
1712016590880,-27429.823071121238
1712016590920,-27197.005580679048
1712016590960,-24755.97556444537
1712016591000,-23977.773251587525
1712016591040,-23202.218954092823
1712016591080,-21462.292042589746
1712016591120,-20146.87608282361
1712016591160,-17542.888609508052
1712016591200,-13862.046308614314
1712016591240,-9543.889038152527
1712016591280,-6001.1988406181335
1712016591320,-3594.411417572759
1712016591360,-3468.562190173194
1712016591400,-8029.785953974817
1712016591440,-12368.033727349713
1712016591480,-14512.979959862307
1712016591520,-14873.435276428238
1712016591560,-13998.04987695394
1712016591600,-12847.628938873298
1712016591640,-12486.569380191155
1712016591680,-11771.07978852
1712016591720,-10772.240104798228
1712016591760,-9531.44222469721
1712016591800,-7003.810425856151
1712016591840,-4479.610373876989
1712016591880,-1361.2400842336938
1712016591920,1056.5653205146082
1712016591960,3185.0523556051776
1712016592000,4273.391262341291
1712016592040,198.21739703183994
1712016592080,-5487.5215798085555
1712016592120,-8671.65864049783
1712016592160,-9312.528232302517
1712016592200,-9126.681018928997
1712016592240,-8860.737292024773
1712016592280,-8351.327538046055
1712016592320,-9063.516091721598
1712016592360,-8899.026748570614
1712016592400,-6972.876269138418
1712016592440,-4387.471771445591
1712016592480,-2270.166193574667
1712016592520,-1019.8948770891875
1712016592560,537.2832092577592
1712016592600,2498.183136228472
1712016592640,4700.560974050779
1712016592680,6598.023757558782
1712016592720,3565.952428017743
1712016592760,-1778.314589606598
1712016592800,-5087.305679299403
1712016592840,-5368.867009869777
1712016592880,-5585.423224838451
1712016592920,-4687.503788447939
1712016592960,-4338.644711825997
1712016593000,-4575.899970804341
1712016593040,-4430.203939518426
1712016593080,-3414.0273364270106
1712016593120,-1799.4852242199704
1712016593160,-210.5949025931768
1712016593200,1672.6048380360007
1712016593240,4037.78317459533
1712016593280,5546.2570956442505
1712016593320,7548.6226878790185
1712016593360,9243.401181572117
1712016593400,11434.907130810432
1712016593440,8067.871896520257
1712016593480,2188.677609941922
1712016593520,-1905.7436842303723
1712016593560,-2621.9976372504607
1712016593600,-2681.656009452883
1712016593640,-1877.9727274421602
1712016593680,-1389.8262790450826
1712016593720,-2344.245458901394
1712016593760,-2526.4951611403376
1712016593800,-1583.7852229233831
1712016593840,-111.98966059321538
1712016593880,1857.7721335589886
1712016593920,3547.4100012434646
1712016593960,4765.235874631442
1712016594000,6203.133226756938
1712016594040,7766.200003925711
1712016594080,9135.299996834248
1712016594120,10720.433210767806
1712016594160,8991.130028158426
1712016594200,3154.233178878203
1712016594240,-1557.4353952528909
1712016594280,-2670.5134920571
1712016594320,-3256.1144519802183
1712016594360,-2631.322616785299
1712016594400,-1890.3555930266157
1712016594440,-1918.340557552874
1712016594480,-2184.3670605453663
1712016594520,-2349.2963223047554
1712016594560,-1343.0685335285962
1712016594600,879.1425137352198
1712016594640,2638.0214137155563
1712016594680,3817.2597885560244
1712016594720,5728.85849520145
1712016594760,6565.8860798846
1712016594800,7953.001424289774
1712016594840,9905.538591072429
1712016594880,9765.083694095258
1712016594920,3942.951763638761
1712016594960,-1531.3229784760624
1712016595000,-1854.752571951598
1712016595040,-2449.6617063004524
1712016595080,-1922.5012278184295
1712016595120,-771.8513702135533
1712016595160,-440.1427138997242
1712016595200,-1088.8290334036574
1712016595240,-993.1742185559124
1712016595280,117.20657704398036
1712016595320,2092.7834924217314
1712016595360,4132.424139657058
1712016595400,5774.983583481517
1712016595440,7889.686917520128
1712016595480,9022.302862947807
1712016595520,10582.14295626292
1712016595560,12014.886224271264
1712016595600,12491.934437823948
1712016595640,7010.967415993102
1712016595680,2756.218366355635
1712016595720,1339.8658631588332
1712016595760,1127.6756720524281
1712016595800,1903.2944616870955
1712016595840,2921.246501701884
1712016595880,1954.5643077325076
1712016595920,2123.2499546725303
1712016595960,2962.9482800709084
1712016596000,4160.193136654794
1712016596040,6088.393734639045
1712016596080,8306.70164601272
1712016596120,9266.735744497273
1712016596160,10788.604627450928
1712016596200,12350.352492913138
1712016596240,14182.203490333632
1712016596280,14997.766330253333
1712016596320,13110.972882303875
1712016596360,7753.523691220209
1712016596400,3995.947571368888
1712016596440,3203.746380112134
1712016596480,4259.129810686223
1712016596520,4847.590633705258
1712016596560,4646.49679919472
1712016596600,4216.736416381784
1712016596640,3849.5469303652644
1712016596677,4595.395041512325
1712016596717,5493.391290246043
1712016596757,7327.777455955744
1712016596797,8460.682898435742
1712016596838,10065.992271110415
1712016596877,11294.875983033795
1712016596917,12267.307085108943
1712016596957,13902.40571325738
1712016596998,13007.768295775168
1712016597038,8322.272291926667
1712016597078,3732.951641935855
1712016597118,2753.2016777778044
1712016597158,3231.8091314379126
1712016597198,3290.552078457549
1712016597239,3216.5843975809403
1712016597278,2802.0775433829986
1712016597318,2826.6481661833823
1712016597359,2740.2850494221784
1712016597399,4023.0976183861494
1712016597440,5164.1349139800295
1712016597479,7075.9873170517385
1712016597519,8247.845488606952
1712016597559,9102.293503945693
1712016597600,10963.294809444342
1712016597640,12351.409725019243
1712016597680,12329.376629038248
1712016597720,7325.242347448133
1712016597760,1487.1399171459489
1712016597800,327.72439195401967
1712016597841,618.177730535157
1712016597880,1567.8585558068007
1712016597920,2777.728907963261
1712016597961,1871.3880262873136
1712016598001,1069.0054018627852
1712016598041,849.1225858395919
1712016598081,1480.2835314646363
1712016598121,2536.0313767017797
1712016598161,4037.2837381022982
1712016598201,6478.835225235205
1712016598242,6965.590407663956
1712016598282,8176.880436322652
1712016598322,9603.492165622301
1712016598362,9666.17398472596
1712016598402,5665.792990052141
1712016598443,-111.21329662343487
1712016598482,-2220.0352444713935
1712016598522,-2791.3846492092125
1712016598562,-2364.7051935512573
1712016598602,-1688.0171979339793
1712016598643,-1694.4911711430177
1712016598683,-2284.769220095128
1712016598723,-2363.0999047053047
1712016598763,-1512.0220385426655
1712016598803,207.0597017146647
1712016598844,1863.7420598166063
1712016598883,3266.742833877448
1712016598924,4169.405335930176
1712016598964,5130.476463963278
1712016599004,7095.214765551034
1712016599045,8432.47891527135
1712016599084,5534.969900289085
1712016599124,445.0831274613738
1712016599164,-3047.395580869168
1712016599204,-4221.237668027636
1712016599245,-3791.601474367082
1712016599285,-2684.7488361974247
1712016599325,-2352.9092799490318
1712016599365,-2090.229013531469
1712016599405,-2645.56115985848
1712016599446,-2310.540592158679
1712016599485,-1607.0934659070335
1712016599526,-68.26242433022708
1712016599566,1546.0484736887738
1712016599606,3083.6149364146404
1712016599647,4868.871860403568
1712016599686,6550.929550307803
1712016599726,9187.476666155271
1712016599767,9231.305163279641
1712016599807,4762.00122850202
1712016599847,236.09189169760793
1712016599887,-1742.9603263661265
1712016599927,-2256.152481772937
1712016599967,-1663.5352488663048
1712016600008,-755.8093527406454
1712016600048,-596.3249045945704
1712016600088,-1631.222323117312
1712016600128,-1885.309870608151
1712016600168,-1051.1398013927974
1712016600208,2207.536412109621
1712016600249,4232.767003106885
1712016600288,4347.823428704403
1712016600328,5691.9279041714035
1712016600369,7250.312507501803
1712016600409,8157.977615709417
1712016600449,8309.8134713904
1712016600489,3046.367099922616
1712016600529,-2058.9088712893426
1712016600569,-4235.62111281883
1712016600609,-3824.325326852966
1712016600650,-4142.708495786414
1712016600689,-2902.6667137686163
1712016600729,-2540.6726161045954
1712016600769,-3542.7377251479775
1712016600809,-3708.337488919962
1712016600850,-3065.748423712328
1712016600890,-1975.4848694587126
1712016600930,-495.2994037461467
1712016600970,612.0414403053001
1712016601010,1320.0748501233757
1712016601051,2454.53369233571
1712016601091,3662.5761049394496
1712016601130,5023.297561013605
1712016601171,6399.004578932188
1712016601211,3743.5477147530764
1712016601251,-2953.0203897906467
1712016601291,-6502.715281832498
1712016601331,-6962.365544802975
1712016601371,-6887.271569489036
1712016601411,-6454.915147692431
1712016601452,-5637.987894590944
1712016601491,-6069.004002588335
1712016601531,-7156.893487583846
1712016601572,-5748.110146150924
1712016601612,-4777.958563288674
1712016601652,-2718.633792284876
1712016601692,-1161.096756075509
1712016601732,292.58116204384714
1712016601772,2316.9038492776453
1712016601812,3974.656622792594
1712016601853,5425.774644016288
1712016601892,6531.796953183133
1712016601933,7563.791350075044
1712016601973,2349.6170848999172
1712016602013,-3215.6612433046103
1712016602054,-5240.810034511611
1712016602093,-4653.997625587974
1712016602133,-4423.325480722822
1712016602173,-3740.3587795197964
1712016602213,-3121.552714638412
1712016602254,-3663.9762473851442
1712016602294,-3506.106302901637
1712016602333,-3141.7571500861086
1712016602374,-1724.0914248758927
1712016602414,-28.71845399029553
1712016602455,578.0023791743442
1712016602494,2281.027983102482
1712016602534,3756.9412126392126
1712016602574,4787.225379534997
1712016602614,6346.299966929015
1712016602655,8456.486512210686
1712016602695,6365.894554321654
1712016602735,-747.4244709946215
1712016602775,-4197.342227272689
1712016602815,-4305.57264025975
1712016602856,-4496.786447621882
1712016602895,-4096.704163738526
1712016602935,-3972.777068789117
1712016602975,-4205.878018895164
1712016603015,-4856.14597851783
1712016603056,-5001.790928951465
1712016603096,-3706.137141501531
1712016603136,-2060.8323964588344
1712016603176,-930.9060004716739
1712016603216,554.8645400148816
1712016603257,2948.096599604469
1712016603296,4828.187445517164
1712016603336,6809.983266167343
1712016603376,6874.164341360331
1712016603416,4750.962147062644
1712016603457,-926.7748144911602
1712016603497,-4562.000825149007
1712016603537,-4806.078756259754
1712016603577,-5406.717470287811
1712016603617,-5108.130473376252
1712016603658,-4272.364755388349
1712016603697,-4861.316785672214
1712016603738,-4547.7756387065165
1712016603778,-4537.498163206037
1712016603818,-2824.3164756023325
1712016603859,-456.6037728548981
1712016603898,1082.6929284455255
1712016603938,2546.1194324111566
1712016603978,3495.7387256473303
1712016604018,4812.781631235033
1712016604059,5649.175148161128
1712016604099,5137.945069420151
1712016604139,399.73528833314776
1712016604179,-4060.5086373584345
1712016604219,-6026.822879064828
1712016604260,-5915.0925869345665
1712016604299,-5555.384413957596
1712016604339,-5254.384453799576
1712016604379,-5319.952703117393
1712016604419,-6196.353682254441
1712016604460,-6154.352198996581
1712016604500,-5125.78071688721
1712016604540,-4541.596260134131
1712016604580,-3394.437811646145
1712016604620,-2208.968466779217
1712016604661,-1081.273719470948
1712016604700,70.52964077424258
1712016604740,1632.6788847292773
1712016604780,1791.7928097983822
1712016604821,-3604.1599954431877
1712016604861,-8358.990264758468
1712016604901,-10819.541128551587
1712016604941,-12584.088065057062
1712016604981,-13548.515271007549
1712016605021,-13911.039044962265
1712016605062,-13988.826808659825
1712016605101,-15019.67310979776
1712016605141,-15727.336377091706
1712016605182,-15630.849164579995
1712016605222,-14595.210819880944
1712016605262,-13889.377339703962
1712016605302,-12454.307986513712
1712016605342,-10905.634180364665
1712016605382,-9174.753862276673
1712016605422,-8077.615765030496
1712016605463,-9813.936736732256
1712016605503,-14766.309195419308
1712016605543,-19080.273597919848
1712016605583,-20469.704809788615
1712016605623,-20259.997654821724
1712016605664,-19539.23211427545
1712016605703,-18152.54603942018
1712016605743,-17617.818153763656
1712016605784,-17526.137518665753
1712016605824,-16787.01695727883
1712016605864,-15286.532220602967
1712016605904,-13648.0674515469
1712016605944,-11421.290261105634
1712016605984,-9455.65291422233
1712016606024,-7536.755052737426
1712016606065,-5316.529771811329
1712016606105,-5226.331483147107
1712016606145,-11050.231932397
1712016606185,-16713.969395978376
1712016606225,-18808.45074937353
1712016606266,-19181.160020362586
1712016606305,-19807.48986430466
1712016606345,-19181.20338332001
1712016606386,-18615.745947790798
1712016606426,-18464.716894524172
1712016606466,-17779.55486527644
1712016606506,-16704.37111115642
1712016606546,-14367.022348132916
1712016606586,-11891.104486728087
1712016606626,-9446.247571495362
1712016606667,-7827.076927742921
1712016606706,-5510.021635168698
1712016606747,-3477.6017221463844
1712016606787,-6873.733992409892
1712016606827,-13284.259275273886
1712016606868,-17684.87181135593
1712016606907,-19402.379375730176
1712016606947,-20287.175448595546
1712016606987,-20017.935208881274
1712016607027,-19544.806275461335
1712016607068,-19561.222336017527
1712016607108,-19358.610791245475
1712016607148,-17900.694979142398
1712016607188,-15898.33188955905
1712016607228,-13646.554141663946
1712016607269,-11748.134142161347
1712016607308,-9740.4161626352
1712016607348,-7978.197281101253
1712016607388,-6242.029119397048
1712016607428,-4682.908545292914
1712016607469,-6756.76339654997
1712016607508,-13717.638291185722
1712016607548,-18621.538054726087
1712016607589,-19933.350531027187
1712016607629,-21145.881166315172
1712016607669,-21268.80058266688
1712016607709,-20520.957463445142
1712016607749,-20032.02485834714
1712016607789,-19853.368079734966
1712016607829,-19326.35972043639
1712016607870,-17313.096011923626
1712016607909,-15503.658731799573
1712016607949,-13316.461254292168
1712016607989,-11146.20241571404
1712016608030,-9377.995226289146
1712016608070,-7103.958699068055
1712016608110,-4653.976676786318
1712016608150,-1886.3946725828573
1712016608190,-2293.80950676091
1712016608230,-8354.246726882178
1712016608271,-14688.025463487487
1712016608310,-17658.249612501822
1712016608350,-18721.331646780018
1712016608391,-19098.767914095894
1712016608431,-18912.812917459756
1712016608471,-19260.098979405127
1712016608511,-19946.90928954445
1712016608551,-19939.759526280686
1712016608591,-19164.40772817051
1712016608631,-17168.031836137176
1712016608672,-15203.457151866052
1712016608711,-13531.253465048969
1712016608751,-12105.883425228763
1712016608792,-10510.94094215706
1712016608832,-9135.618574033491
1712016608872,-6442.95111775212
1712016608912,-3980.8995156139135
1712016608952,-4725.9467980461195
1712016608992,-10301.093429464847
1712016609032,-15204.974079460837
1712016609073,-16480.22326607816
1712016609112,-15911.864394452423
1712016609153,-14739.285719536245
1712016609193,-14125.531827948056
1712016609233,-13663.431798100937
1712016609274,-13636.708693549037
1712016609313,-12743.06765560247
1712016609353,-11451.032400985714
1712016609393,-9134.666829750873
1712016609433,-5994.192287124693
1712016609474,-3712.7334432252683
1712016609514,-1421.105677220039
1712016609554,827.6192887816578
1712016609594,2536.089138158597
1712016609634,5124.115373462439
1712016609675,7540.939333751798
1712016609714,5296.468851781916
1712016609754,-28.25063252542168
1712016609794,-3919.9931761529297
1712016609834,-5057.947507976554
1712016609875,-5886.142999686766
1712016609915,-5499.153531023301
1712016609955,-5011.178695365787
1712016609995,-4728.785409538541
1712016610035,-4416.708027233835
1712016610076,-3452.106469616294
1712016610115,-1690.810337074101
1712016610155,-216.12409796891734
1712016610195,1756.8692967379466
1712016610236,3980.4537048423663
1712016610276,6440.606311972719
1712016610316,8680.91949518118
1712016610356,9365.115689416882
1712016610396,11178.321492264047
1712016610436,11798.11194115365
1712016610477,7605.835466471501
1712016610516,2113.633367133327
1712016610556,-349.3870525783859
1712016610597,-1558.670394727029
1712016610637,-1905.1712064091116
1712016610677,-960.1499210470356
1712016610717,-995.1610332671553
1712016610757,-1127.507668811828
1712016610797,-31.04736295901239
1712016610837,659.86670319736
1712016610878,1943.946421759203
1712016610917,4100.660615671426
1712016610958,6130.35389909707
1712016610998,7358.173097505234
1712016611038,9144.619783462025
1712016611079,10743.325264804997
1712016611118,11779.920131860767
1712016611158,14298.556287303567
1712016611199,14356.229120507836
1712016611239,8818.176365408115
1712016611279,3818.335147609003
1712016611319,2062.9674715613946
1712016611359,985.2491281824186
1712016611399,1174.0060277199373
1712016611439,1971.7445719959214
1712016611480,2229.512155275326
1712016611519,2194.53673239192
1712016611560,2340.5426254281774
1712016611600,3041.3685034345835
1712016611640,5386.026114886161
1712016611681,6569.1661338293925
1712016611720,8644.690786081366
1712016611760,11219.49290951807
1712016611800,12091.377206307836
1712016611840,12993.749855952337
1712016611881,14419.796662722249
1712016611920,16010.450358140282
1712016611960,13145.405479053035
1712016612001,7375.67212220002
1712016612041,4324.433439606801
1712016612082,3010.461222517304
1712016612121,2675.3033063835464
1712016612161,3380.186301931739
1712016612201,3160.002321840264
1712016612241,2745.675981221255
1712016612282,2716.938683360815
1712016612322,2545.4463759642094
1712016612362,3780.8650665213354
1712016612402,5711.356233627535
1712016612442,7646.501375393476
1712016612483,9106.529107050505
1712016612522,11159.863109144848
1712016612562,12846.061368023045
1712016612603,13623.523183297366
1712016612643,14531.105638612062
1712016612684,10350.050278474577
1712016612723,6423.649037151597
1712016612763,4118.611058597453
1712016612803,4326.515748548321
1712016612844,5048.5839218320325
1712016612885,6217.371848301962
1712016612924,6454.465836094692
1712016612964,6227.50417233631
1712016613004,6258.554792670533
1712016613044,6721.038581261411
1712016613085,8938.154180430342
1712016613125,10820.859628408682
1712016613165,11601.264082986396
1712016613205,13029.430665842257
1712016613245,14395.916531153023
1712016613286,16397.16570557095
1712016613325,17045.81497063674
1712016613365,12889.91660494171
1712016613405,7287.225188721903
1712016613446,4489.688369102776
1712016613487,3581.137853221968
1712016613526,3790.5388466310687
1712016613566,4019.244550000876
1712016613606,3696.251758391969
1712016613646,3133.5341380122118
1712016613687,3057.2753863222897
1712016613727,4691.410689698532
1712016613767,6996.836391564459
1712016613807,8682.91435145447
1712016613847,9827.618318974972
1712016613888,11447.022501994856
1712016613927,12492.39533490548
1712016613967,14308.267730044201
1712016614007,11100.120849640574
1712016614047,6044.3768195421435
1712016614088,2393.338106011506
1712016614127,1492.7282023085281
1712016614167,1395.1682482389733
1712016614208,1572.1795555884019
1712016614248,2075.5356693156064
1712016614289,1883.1355118546635
1712016614328,1626.0415560593829
1712016614368,2102.593820970971
1712016614408,3055.1601967038587
1712016614448,5732.418145556003
1712016614489,7276.335511369165
1712016614528,8650.359213999938
1712016614568,9747.669440647122
1712016614608,11027.134052125271
1712016614649,12676.088630653918
1712016614690,8805.275419730227
1712016614729,2472.1831566486508
1712016614769,-387.25243771541864
1712016614809,-1860.5074465312064
1712016614849,-2058.4223112813197
1712016614890,-1369.3951876289211
1712016614929,-1240.1296697743237
1712016614969,-1799.1763039687648
1712016615010,-2556.4782782425173
1712016615050,-3190.310586214997
1712016615090,-1428.4300182182342
1712016615130,-166.15906542167068
1712016615170,1165.6723266504705
1712016615210,3066.085862861015
1712016615250,4601.794479088392
1712016615291,6125.550783089362
1712016615330,5012.933335172012
1712016615370,686.5346687859856
1712016615411,-3306.651038574986
1712016615451,-4236.986984432675
1712016615491,-4154.171170216985
1712016615531,-2967.157847903203
1712016615571,-1719.6932475208305
1712016615611,-2023.6414790540002
1712016615651,-2885.8901121849194
1712016615692,-2010.1012525819242
1712016615731,-858.0994919463992
1712016615772,841.0274877706543
1712016615812,2471.6990459868684
1712016615852,4455.046185968444
1712016615893,6133.919703076594
1712016615932,6845.240480718203
1712016615972,6996.894814954139
1712016616012,2481.9926066999324
1712016616052,-2297.360654382501
1712016616093,-4576.252916895784
1712016616133,-4874.036341456231
1712016616173,-4710.661777690984
1712016616213,-4065.9396884413436
1712016616253,-4239.07587822713
1712016616294,-4066.5811945614405
1712016616333,-4301.925121341366
1712016616373,-4141.705890697427
1712016616414,-3232.0329565200955
1712016616454,-1558.637254908681
1712016616495,-277.397006271407
1712016616534,1289.452497293707
1712016616574,2594.4053994724527
1712016616614,4462.09021119494
1712016616654,1992.3958229464479
1712016616695,-3681.292639937252
1712016616735,-7516.555699597113
1712016616775,-8462.806355415843
1712016616815,-9122.312824453227
1712016616855,-9349.79637552239
1712016616896,-8599.406002473086
1712016616935,-8558.073582333978
1712016616975,-9816.482488395646
1712016617015,-9358.972961587366
1712016617056,-7886.4207916054875
1712016617097,-6347.987248797901
1712016617136,-5405.283575250767
1712016617176,-4063.158268827945
1712016617216,-2547.7292912933044
1712016617256,-1064.4968104017898
1712016617297,-1097.595248490572
1712016617337,-5657.923840125091
1712016617377,-10728.431499862112
1712016617417,-13905.023168774787
1712016617457,-14084.716769395396
1712016617498,-14771.2868564846
1712016617537,-14268.498728495091
1712016617577,-13840.398593887221
1712016617617,-13286.378456389997
1712016617658,-13111.189045132138
1712016617699,-10900.036962849088
1712016617738,-9027.24873567
1712016617778,-6794.578107199166
1712016617818,-5011.345452934504
1712016617858,-3052.4731936203316
1712016617899,-1660.3141594137996
1712016617939,-485.44362529180944
1712016617979,1109.9639313705266
1712016618019,-1971.8907205793075
1712016618059,-7567.4948225189
1712016618100,-10256.89209974045
1712016618139,-10836.600418610033
1712016618180,-11376.791257223114
1712016618220,-10632.877037289552
1712016618260,-9267.968165994622
1712016618301,-9844.877381986938
1712016618340,-10482.651047399268
1712016618380,-9002.16478980612
1712016618420,-7740.611097597517
1712016618460,-5825.438100549858
1712016618501,-4085.105468370486
1712016618541,-2226.1000909702852
1712016618581,-227.42958456464112
1712016618621,1301.1423073965125
1712016618661,3613.0938958050683
1712016618702,4729.012955243699
1712016618741,315.65058049652725
1712016618782,-4040.8969334061258
1712016618822,-7669.068037441932
1712016618862,-8000.027250218205
1712016618903,-8523.636774651706
1712016618942,-7512.066678217612
1712016618982,-7227.95902377367
1712016619022,-7534.287568271626
1712016619062,-7289.569081678987
1712016619103,-5944.572642450221
1712016619143,-4000.134959930554
1712016619183,-1706.1048036953434
1712016619223,-461.67440132424235
1712016619263,707.8128662337549
1712016619304,1602.1168826911598
1712016619343,2865.452493093908
1712016619384,4020.6285701044835
1712016619424,5462.805914655328
1712016619464,2437.742421373725
1712016619505,-3348.7666979376227
1712016619544,-7633.958095526323
1712016619584,-8850.008204695303
1712016619624,-9186.929779724684
1712016619664,-9103.70010168571
1712016619705,-8610.2592241792
1712016619745,-9270.39687264245
1712016619785,-9543.974473818205
1712016619825,-9514.05795566272
1712016619865,-8600.579469109885
1712016619906,-6879.142260343302
1712016619945,-5967.347271563951
1712016619986,-4533.902002322022
1712016620026,-3219.2154198498465
1712016620066,-1415.920109570492
1712016620107,1615.846012066584
1712016620146,2299.808849098161
1712016620186,-1128.9236257155426
1712016620226,-5302.486152809579
1712016620266,-7382.950232877862
1712016620307,-7826.464518059976
1712016620346,-7140.6214524861425
1712016620386,-6213.64799764147
1712016620426,-5682.083973542787
1712016620467,-5932.498350161128
1712016620507,-4445.497485666536
1712016620547,-2966.6793985143304
1712016620587,-737.7435678937472
1712016620627,1304.3352127783
1712016620667,3795.5884615103714
1712016620708,6166.125139254145
1712016620746,8874.77595616877
1712016620786,10697.152434848249
1712016620827,12866.33230196312
1712016620867,11590.830971789546
1712016620907,5761.683463208843
1712016620947,1472.0565146747977
1712016620987,-118.40679635759443
1712016621027,-426.17718841228634
1712016621067,-799.1172043113038
1712016621108,-137.0881903669797
1712016621147,-166.3944813949056
1712016621188,-870.3619497097097
1712016621228,200.58594437036663
1712016621268,939.2161618983373
1712016621309,3282.272056253627
1712016621348,5290.18160098698
1712016621388,6143.120397363789
1712016621428,7211.711610503495
1712016621468,8968.444775393233
1712016621509,10639.042033141479
1712016621549,10427.760466608219
1712016621588,5635.790178711526
1712016621629,728.3690074691549
1712016621669,-1292.2379433750175
1712016621710,-2213.8066699542105
1712016621749,-2470.6791859772056
1712016621789,-1975.063641671557
1712016621829,-2098.6372554195113
1712016621869,-2832.620846984908
1712016621910,-2035.018891081214
1712016621949,-1060.4253282072023
1712016621990,139.88994603883475
1712016622030,1914.227139077615
1712016622070,4210.746576546691
1712016622111,5592.009859263897
1712016622150,6495.576897230931
1712016622190,8511.517811962403
1712016622230,10229.651086205151
1712016622271,7972.435365114827
1712016622311,2439.642703572288
1712016622351,-1542.7759109660983
1712016622391,-3709.2024480775
1712016622431,-4219.36973825749
1712016622471,-3530.6652666083537
1712016622512,-4763.341383472085
1712016622551,-5181.548280522227
1712016622591,-6089.472380546853
1712016622632,-7020.684403221589
1712016622672,-6451.404615610838
1712016622712,-5328.090901734773
1712016622752,-3163.700684433803
1712016622792,-2991.64054247085
1712016622832,-2771.972724842839
1712016622872,-1595.9897502241656
1712016622913,-699.6806178889237
1712016622953,-1826.593655578792
1712016622993,-6458.928893309087
1712016623033,-11202.55884072883
1712016623073,-14961.074395125732
1712016623114,-16504.39730544295
1712016623153,-16635.098286890425
1712016623193,-16459.20277341269
1712016623234,-16847.047092988156
1712016623273,-18445.380637358874
1712016623314,-19314.164842162747
1712016623354,-20012.137550458778
1712016623394,-19334.73557885317
1712016623434,-17991.39807723742
1712016623474,-18220.57305841241
1712016623515,-17896.8783808141
1712016623554,-16040.642820599489
