dataReceived,timestamp,ppg,status
1712016488276,1712016476222,2097152,0
1712016488276,1712016476265,2441861,0
1712016488276,1712016476303,2442219,0
1712016488276,1712016476342,2442333,0
1712016488276,1712016476384,2442191,0
1712016488276,1712016476423,2441987,0
1712016488276,1712016476463,2442030,0
1712016488276,1712016476503,2442106,0
1712016488276,1712016476543,2442258,0
1712016488276,1712016476584,2442493,0
1712016488276,1712016476623,2127113,0
1712016488276,1712016476663,2127487,0
1712016488276,1712016476703,2127814,0
1712016488276,1712016476743,2128356,0
1712016488276,1712016476784,2128920,0
1712016488276,1712016476823,2098911,0
1712016488276,1712016476864,2099879,0
1712016488276,1712016476904,2100780,0
1712016488276,1712016476944,2101535,0
1712016488276,1712016476985,2102172,0
1712016488276,1712016477024,2112068,0
1712016488276,1712016477064,2114144,0
1712016488276,1712016477104,2115698,0
1712016488276,1712016477144,2116259,0
1712016488276,1712016477185,2115649,0
1712016488276,1712016477224,2115270,0
1712016488276,1712016477264,2115313,0
1712016488276,1712016477304,2115655,0
1712016488276,1712016477345,2116351,0
1712016488276,1712016477386,2117313,0
1712016488276,1712016477425,2118150,0
1712016488276,1712016477465,2119211,0
1712016488276,1712016477505,2120019,0
1712016488276,1712016477545,2121488,0
1712016488276,1712016477586,2122940,0
1712016488276,1712016477625,2124618,0
1712016488276,1712016477665,2126325,0
1712016488276,1712016477705,2128062,0
1712016488276,1712016477746,2129843,0
1712016488276,1712016477786,2131718,0
1712016488276,1712016477826,2133696,0
1712016488276,1712016477866,2135855,0
1712016488276,1712016477906,2137669,0
1712016488276,1712016477946,2138153,0
1712016488276,1712016477987,2138001,0
1712016488276,1712016478026,2137802,0
1712016488276,1712016478066,2138123,0
1712016488276,1712016478106,2138726,0
1712016488276,1712016478146,2139750,0
1712016488276,1712016478187,2140890,0
1712016488276,1712016478226,2141759,0
1712016488276,1712016478266,2142983,0
1712016488276,1712016478306,2144237,0
1712016488276,1712016478347,2145618,0
1712016488276,1712016478388,2147352,0
1712016488276,1712016478427,2148982,0
1712016488276,1712016478470,2150734,0
1712016488276,1712016478507,2152550,0
1712016488276,1712016478547,2154498,0
1712016488276,1712016478588,2156371,0
1712016488276,1712016478627,2158358,0
1712016488276,1712016478667,2160108,0
1712016488276,1712016478708,2160843,0
1712016488276,1712016478748,2160504,0
1712016488276,1712016478789,2160198,0
1712016488276,1712016478828,2160419,0
1712016488276,1712016478868,2161014,0
1712016488276,1712016478908,2161228,0
1712016488276,1712016478948,2161813,0
1712016488276,1712016478989,2162550,0
1712016488276,1712016479028,2163526,0
1712016488276,1712016479068,2164714,0
1712016488276,1712016479108,2165742,0
1712016488276,1712016479148,2167271,0
1712016488276,1712016479190,2168710,0
1712016488276,1712016479229,2170079,0
1712016488276,1712016479269,2171544,0
1712016488276,1712016479309,2172947,0
1712016488276,1712016479349,2174582,0
1712016488276,1712016479390,2176033,0
1712016488276,1712016479429,2176410,0
1712016488276,1712016479469,2175847,0
1712016488276,1712016479509,2175043,0
1712016488276,1712016479550,2174738,0
1712016488276,1712016479591,2174756,0
1712016488276,1712016479630,2175136,0
1712016488276,1712016479670,2175606,0
1712016488276,1712016479710,2176226,0
1712016488276,1712016479750,2176857,0
1712016488276,1712016479791,2177624,0
1712016488276,1712016479830,2178673,0
1712016488276,1712016479870,2180150,0
1712016488276,1712016479910,2181386,0
1712016488276,1712016479950,2182937,0
1712016488276,1712016479991,2184140,0
1712016488276,1712016480031,2185500,0
1712016488276,1712016480071,2186873,0
1712016488276,1712016480111,2188286,0
1712016488276,1712016480151,2188802,0
1712016488276,1712016480192,2187853,0
1712016488276,1712016480231,2186604,0
1712016488276,1712016480271,2186514,0
1712016488276,1712016480311,2186857,0
1712016488276,1712016480351,2187744,0
1712016488276,1712016480392,2189061,0
1712016488276,1712016480431,2190559,0
1712016488276,1712016480472,2191851,0
1712016488276,1712016480512,2193221,0
1712016488276,1712016480552,2194733,0
1712016488276,1712016480593,2196424,0
1712016488276,1712016480632,2198365,0
1712016488276,1712016480675,2200264,0
1712016488276,1712016480712,2202515,0
1712016488276,1712016480752,2205389,0
1712016488276,1712016480793,2208724,0
1712016488276,1712016480832,2213101,0
1712016488276,1712016480873,2217092,0
1712016488276,1712016480913,2220305,0
1712016488276,1712016480953,2222334,0
1712016488276,1712016480994,2224614,0
1712016488276,1712016481033,2226822,0
1712016488276,1712016481073,2229410,0
1712016488276,1712016481113,2232584,0
1712016488276,1712016481153,2235742,0
1712016488276,1712016481194,2239045,0
1712016488276,1712016481234,2242675,0
1712016488276,1712016481273,2246340,0
1712016488276,1712016481314,2250209,0
1712016488276,1712016481354,2254486,0
1712016488276,1712016481395,2258938,0
1712016488276,1712016481434,2262888,0
1712016488276,1712016481474,2265734,0
1712016488276,1712016481514,2265437,0
1712016488276,1712016481554,2263111,0
1712016488276,1712016481595,2261813,0
1712016488276,1712016481635,2258979,0
1712016488276,1712016481675,2256551,0
1712016488276,1712016481715,2253123,0
1712016488276,1712016481755,2248422,0
1712016488276,1712016481796,2242729,0
1712016488276,1712016481835,2237235,0
1712016488276,1712016481875,2232976,0
1712016488276,1712016481915,2227845,0
1712016488276,1712016481956,2227571,0
1712016488276,1712016481997,2228502,0
1712016488276,1712016482036,2231511,0
1712016488276,1712016482076,2235220,0
1712016488276,1712016482116,2239585,0
1712016488276,1712016482156,2243573,0
1712016488276,1712016482197,2247240,0
1712016488276,1712016482236,2251210,0
1712016488276,1712016482276,2253420,0
1712016488276,1712016482317,2255342,0
1712016488276,1712016482357,2257282,0
1712016488276,1712016482398,2258940,0
1712016488276,1712016482437,2259592,0
1712016488276,1712016482477,2258621,0
1712016488276,1712016482517,2257351,0
1712016488276,1712016482557,2256175,0
1712016488276,1712016482598,2255538,0
1712016488276,1712016482638,2255100,0
1712016488276,1712016482678,2254381,0
1712016488276,1712016482718,2254347,0
1712016488276,1712016482758,2254330,0
1712016488276,1712016482799,2254534,0
1712016488276,1712016482838,2254869,0
1712016488276,1712016482878,2255369,0
1712016488276,1712016482919,2255888,0
1712016488276,1712016482959,2256761,0
1712016488276,1712016483000,2257509,0
1712016488276,1712016483039,2258570,0
1712016488276,1712016483079,2259664,0
1712016488276,1712016483119,2260978,0
1712016488276,1712016483159,2260751,0
1712016488276,1712016483200,2259215,0
1712016488276,1712016483239,2257857,0
1712016488276,1712016483280,2256443,0
1712016488276,1712016483320,2255597,0
1712016488276,1712016483360,2255227,0
1712016488276,1712016483401,2255098,0
1712016488276,1712016483440,2254955,0
1712016488276,1712016483480,2254869,0
1712016488276,1712016483520,2254885,0
1712016488276,1712016483560,2255178,0
1712016488276,1712016483601,2255575,0
1712016488276,1712016483641,2255571,0
1712016488276,1712016483680,2255971,0
1712016488276,1712016483721,2256265,0
1712016488276,1712016483761,2257138,0
1712016488276,1712016483802,2258065,0
1712016488276,1712016483841,2259108,0
1712016488276,1712016483881,2259899,0
1712016488276,1712016483921,2259818,0
1712016488276,1712016483961,2259544,0
1712016488276,1712016484002,2259203,0
1712016488276,1712016484041,2259344,0
1712016488276,1712016484081,2259348,0
1712016488276,1712016484121,2259509,0
1712016488276,1712016484161,2259486,0
1712016488276,1712016484202,2259369,0
1712016488276,1712016484242,2259317,0
1712016488276,1712016484282,2259272,0
1712016488276,1712016484322,2259589,0
1712016488276,1712016484362,2260209,0
1712016488276,1712016484403,2261411,0
1712016488276,1712016484442,2262264,0
1712016488276,1712016484482,2263254,0
1712016488276,1712016484522,2264410,0
1712016488276,1712016484562,2265528,0
1712016488276,1712016484604,2265532,0
1712016488276,1712016484643,2264867,0
1712016488276,1712016484683,2264188,0
1712016488276,1712016484723,2263901,0
1712016488276,1712016484763,2263829,0
1712016488276,1712016484804,2264143,0
1712016488276,1712016484843,2264385,0
1712016488276,1712016484883,2264625,0
1712016488276,1712016484923,2264826,0
1712016488276,1712016484964,2265282,0
1712016488276,1712016485004,2265964,0
1712016488276,1712016485044,2266807,0
1712016488276,1712016485084,2267944,0
1712016488276,1712016485124,2269095,0
1712016488276,1712016485164,2270249,0
1712016488276,1712016485205,2271447,0
1712016488276,1712016485244,2272304,0
1712016488276,1712016485284,2271312,0
1712016488276,1712016485324,2269313,0
1712016488276,1712016485364,2268064,0
1712016488276,1712016485405,2267345,0
1712016488276,1712016485445,2266801,0
1712016488276,1712016485485,2266602,0
1712016488276,1712016485525,2266409,0
1712016488276,1712016485565,2266145,0
1712016488276,1712016485606,2265899,0
1712016488276,1712016485645,2265958,0
1712016488276,1712016485685,2266397,0
1712016488276,1712016485725,2267100,0
1712016488276,1712016485765,2267656,0
1712016488276,1712016485806,2268490,0
1712016488276,1712016485845,2269283,0
1712016488276,1712016485885,2269849,0
1712016488276,1712016485926,2268740,0
1712016488276,1712016485966,2266586,0
1712016488276,1712016486007,2264955,0
1712016488276,1712016486046,2263894,0
1712016488276,1712016486086,2263155,0
1712016488276,1712016486126,2262864,0
1712016488276,1712016486166,2262778,0
1712016488276,1712016486207,2262404,0
1712016488276,1712016486246,2262182,0
1712016488276,1712016486286,2262002,0
1712016488276,1712016486326,2262189,0
1712016488276,1712016486366,2262423,0
1712016488276,1712016486408,2263057,0
1712016488276,1712016486447,2263744,0
1712016488276,1712016486487,2264553,0
1712016488276,1712016486527,2265580,0
1712016488276,1712016486567,2265507,0
1712016488276,1712016486608,2263745,0
1712016488276,1712016486647,2261865,0
1712016488276,1712016486687,2260694,0
1712016488276,1712016486727,2260119,0
1712016488276,1712016486768,2260156,0
1712016488276,1712016486809,2260037,0
1712016488276,1712016486848,2259948,0
1712016488276,1712016486888,2259747,0
1712016488276,1712016486928,2259606,0
1712016488276,1712016486968,2259656,0
1712016488276,1712016487009,2260345,0
1712016488276,1712016487048,2260937,0
1712016488276,1712016487088,2261585,0
1712016488276,1712016487129,2262476,0
1712016488276,1712016487169,2263515,0
1712016488276,1712016487210,2264062,0
1712016488276,1712016487249,2263004,0
1712016488276,1712016487289,2260878,0
1712016488276,1712016487329,2259556,0
1712016488276,1712016487369,2259173,0
1712016488276,1712016487410,2258927,0
1712016488276,1712016487450,2259306,0
1712016488276,1712016487490,2259774,0
1712016488276,1712016487530,2260042,0
1712016488276,1712016487570,2260060,0
1712016488276,1712016487611,2260507,0
1712016488276,1712016487650,2261163,0
1712016488276,1712016487690,2262032,0
1712016488276,1712016487730,2263019,0
1712016488276,1712016487770,2264015,0
1712016488276,1712016487812,2265232,0
1712016488276,1712016487851,2266261,0
1712016488276,1712016487891,2266614,0
1712016488276,1712016487931,2265291,0
1712016488276,1712016487971,2263712,0
1712016488276,1712016488012,2262933,0
1712016488276,1712016488051,2262848,0
1712016488276,1712016488092,2263048,0
1712016488276,1712016488132,2263243,0
1712016488276,1712016488172,2263417,0
1712016488276,1712016488213,2263421,0
1712016500356,1712016488303,2263519,0
1712016500356,1712016488343,2263940,0
1712016500356,1712016488383,2264553,0
1712016500356,1712016488423,2265589,0
1712016500356,1712016488464,2266422,0
1712016500356,1712016488504,2267486,0
1712016500356,1712016488544,2268646,0
1712016500356,1712016488584,2269106,0
1712016500356,1712016488624,2268138,0
1712016500356,1712016488665,2266323,0
1712016500356,1712016488704,2265190,0
1712016500356,1712016488744,2264898,0
1712016500356,1712016488784,2265081,0
1712016500356,1712016488825,2265653,0
1712016500356,1712016488866,2265940,0
1712016500356,1712016488905,2265979,0
1712016500356,1712016488945,2266325,0
1712016500356,1712016488985,2266966,0
1712016500356,1712016489025,2267695,0
1712016500356,1712016489066,2268726,0
1712016500356,1712016489106,2269811,0
1712016500356,1712016489145,2270915,0
1712016500356,1712016489186,2271813,0
1712016500356,1712016489226,2272738,0
1712016500356,1712016489267,2272024,0
1712016500356,1712016489306,2270187,0
1712016500356,1712016489346,2268866,0
1712016500356,1712016489386,2268200,0
1712016500356,1712016489426,2268011,0
1712016500356,1712016489468,2268170,0
1712016500356,1712016489507,2268317,0
1712016500356,1712016489547,2268324,0
1712016500356,1712016489587,2268263,0
1712016500356,1712016489627,2268421,0
1712016500356,1712016489668,2268858,0
1712016500356,1712016489707,2269897,0
1712016500356,1712016489747,2270836,0
1712016500356,1712016489788,2271770,0
1712016500356,1712016489828,2272919,0
1712016500356,1712016489869,2273955,0
1712016500356,1712016489908,2274489,0
1712016500356,1712016489948,2273349,0
1712016500356,1712016489988,2271464,0
1712016500356,1712016490028,2269995,0
1712016500356,1712016490070,2269575,0
1712016500356,1712016490109,2269410,0
1712016500356,1712016490149,2269665,0
1712016500356,1712016490189,2269712,0
1712016500356,1712016490229,2269717,0
1712016500356,1712016490270,2269840,0
1712016500356,1712016490310,2270211,0
1712016500356,1712016490350,2270914,0
1712016500356,1712016490390,2271769,0
1712016500356,1712016490430,2272707,0
1712016500356,1712016490471,2273405,0
1712016500356,1712016490510,2274505,0
1712016500356,1712016490550,2275198,0
1712016500356,1712016490591,2275549,0
1712016500356,1712016490631,2274263,0
1712016500356,1712016490672,2271874,0
1712016500356,1712016490711,2270253,0
1712016500356,1712016490751,2269797,0
1712016500356,1712016490791,2269695,0
1712016500356,1712016490831,2269850,0
1712016500356,1712016490872,2270046,0
1712016500356,1712016490911,2269918,0
1712016500356,1712016490951,2269793,0
1712016500356,1712016490991,2269998,0
1712016500356,1712016491032,2270225,0
1712016500356,1712016491072,2270874,0
1712016500356,1712016491112,2271596,0
1712016500356,1712016491152,2271594,0
1712016500356,1712016491192,2271503,0
1712016500356,1712016491232,2271220,0
1712016500356,1712016491273,2270406,0
1712016500356,1712016491312,2266807,0
1712016500356,1712016491352,2258850,0
1712016500356,1712016491392,2249719,0
1712016500356,1712016491432,2245261,0
1712016500356,1712016491473,2243465,0
1712016500356,1712016491513,2245998,0
1712016500356,1712016491553,2244412,0
1712016500356,1712016491593,2240066,0
1712016500356,1712016491633,2237661,0
1712016500356,1712016491674,2236419,0
1712016500356,1712016491713,2232979,0
1712016500356,1712016491753,2246318,0
1712016500356,1712016491793,2266494,0
1712016500356,1712016491834,2269935,0
1712016500356,1712016491874,2276243,0
1712016500356,1712016491914,2281497,0
1712016500356,1712016491954,2290327,0
1712016500356,1712016491994,2297554,0
1712016500356,1712016492034,2303617,0
1712016500356,1712016492075,2308255,0
1712016500356,1712016492114,2311552,0
1712016500356,1712016492154,2315016,0
1712016500356,1712016492194,2318741,0
1712016500356,1712016492235,2322356,0
1712016500356,1712016492275,2325843,0
1712016500356,1712016492315,2328885,0
1712016500356,1712016492355,2331620,0
1712016500356,1712016492395,2334137,0
1712016500356,1712016492435,2337161,0
1712016500356,1712016492476,2339987,0
1712016500356,1712016492515,2343268,0
1712016500356,1712016492555,2346126,0
1712016500356,1712016492596,2348738,0
1712016500356,1712016492636,2351530,0
1712016500356,1712016492676,2353952,0
1712016500356,1712016492716,2355935,0
1712016500356,1712016492756,2357181,0
1712016500356,1712016492796,2357577,0
1712016500356,1712016492836,2358138,0
1712016500356,1712016492877,2358993,0
1712016500356,1712016492916,2360066,0
1712016500356,1712016492957,2361504,0
1712016500356,1712016492996,2363142,0
1712016500356,1712016493037,2364120,0
1712016500356,1712016493078,2365088,0
1712016500356,1712016493117,2366127,0
1712016500356,1712016493157,2367784,0
1712016500356,1712016493197,2369588,0
1712016500356,1712016493237,2371325,0
1712016500356,1712016493278,2373088,0
1712016500356,1712016493317,2374238,0
1712016500356,1712016493357,2374584,0
1712016500356,1712016493397,2371257,0
1712016500356,1712016493438,2366759,0
1712016500356,1712016493478,2358422,0
1712016500356,1712016493518,2345018,0
1712016500356,1712016493558,2338258,0
1712016500356,1712016493598,2333503,0
1712016500356,1712016493638,2329337,0
1712016500356,1712016493679,2326307,0
1712016500356,1712016493718,2323002,0
1712016500356,1712016493758,2319851,0
1712016500356,1712016493799,2318697,0
1712016500356,1712016493838,2318245,0
1712016500356,1712016493879,2317671,0
1712016500356,1712016493919,2322554,0
1712016500356,1712016493959,2325115,0
1712016500356,1712016493999,2326747,0
1712016500356,1712016494039,2328472,0
1712016500356,1712016494080,2330510,0
1712016500356,1712016494119,2332537,0
1712016500356,1712016494160,2335772,0
1712016500356,1712016494200,2336251,0
1712016500356,1712016494240,2334522,0
1712016500356,1712016494281,2334476,0
1712016500356,1712016494320,2335496,0
1712016500356,1712016494360,2336443,0
1712016500356,1712016494400,2338181,0
1712016500356,1712016494440,2339461,0
1712016500356,1712016494481,2340928,0
1712016500356,1712016494521,2342249,0
1712016500356,1712016494561,2343892,0
1712016500356,1712016494601,2345786,0
1712016500356,1712016494641,2347919,0
1712016500356,1712016494682,2349599,0
1712016500356,1712016494721,2351703,0
1712016500356,1712016494761,2353746,0
1712016500356,1712016494801,2355216,0
1712016500356,1712016494841,2357266,0
1712016500356,1712016494882,2359005,0
1712016500356,1712016494922,2361194,0
1712016500356,1712016494962,2359980,0
1712016500356,1712016495002,2358903,0
1712016500356,1712016495042,2358459,0
1712016500356,1712016495083,2359016,0
1712016500356,1712016495122,2359711,0
1712016500356,1712016495162,2360924,0
1712016500356,1712016495203,2362009,0
1712016500356,1712016495243,2363003,0
1712016500356,1712016495284,2364762,0
1712016500356,1712016495323,2367407,0
1712016500356,1712016495363,2371048,0
1712016500356,1712016495403,2373596,0
1712016500356,1712016495443,2375793,0
1712016500356,1712016495484,2378382,0
1712016500356,1712016495524,2380143,0
1712016500356,1712016495564,2382157,0
1712016500356,1712016495604,2384648,0
1712016500356,1712016495644,2386516,0
1712016500356,1712016495685,2386114,0
1712016500356,1712016495724,2384657,0
1712016500356,1712016495764,2384194,0
1712016500356,1712016495804,2384470,0
1712016500356,1712016495845,2385487,0
1712016500356,1712016495885,2386617,0
1712016500356,1712016495925,2387382,0
1712016500356,1712016495965,2388288,0
1712016500356,1712016496005,2390022,0
1712016500356,1712016496045,2392134,0
1712016500356,1712016496086,2394840,0
1712016500356,1712016496125,2397828,0
1712016500356,1712016496165,2400497,0
1712016500356,1712016496206,2402490,0
1712016500356,1712016496246,2405162,0
1712016500356,1712016496287,2407607,0
1712016500356,1712016496326,2409895,0
1712016500356,1712016496366,2410978,0
1712016500356,1712016496406,2411228,0
1712016500356,1712016496446,2411448,0
1712016500356,1712016496487,2412822,0
1712016500356,1712016496527,2414513,0
1712016500356,1712016496567,2417041,0
1712016500356,1712016496607,2419777,0
1712016500356,1712016496647,2421627,0
1712016500356,1712016496688,2423937,0
1712016500356,1712016496727,2426383,0
1712016500356,1712016496767,2429120,0
1712016500356,1712016496808,2431509,0
1712016500356,1712016496847,2434250,0
1712016500356,1712016496888,2436970,0
1712016500356,1712016496928,2439686,0
1712016500356,1712016496968,2442252,0
1712016500356,1712016497008,2444678,0
1712016500356,1712016497048,2445905,0
1712016500356,1712016497089,2446355,0
1712016500356,1712016497128,2446000,0
1712016500356,1712016497169,2446692,0
1712016500356,1712016497209,2448069,0
1712016500356,1712016497249,2449584,0
1712016500356,1712016497290,2451120,0
1712016500356,1712016497329,2452855,0
1712016500356,1712016497369,2454317,0
1712016500356,1712016497409,2455796,0
1712016500356,1712016497449,2457457,0
1712016500356,1712016497490,2459370,0
1712016500356,1712016497530,2461111,0
1712016500356,1712016497570,2463175,0
1712016500356,1712016497610,2465311,0
1712016500356,1712016497650,2468110,0
1712016500356,1712016497691,2470632,0
1712016500356,1712016497730,2472403,0
1712016500356,1712016497770,2473122,0
1712016500356,1712016497810,2474376,0
1712016500356,1712016497850,2475442,0
1712016500356,1712016497891,2476579,0
1712016500356,1712016497930,2477660,0
1712016500356,1712016497971,2479007,0
1712016500356,1712016498011,2480490,0
1712016500356,1712016498051,2480946,0
1712016500356,1712016498092,2482619,0
1712016500356,1712016498131,2485038,0
1712016500356,1712016498171,2486447,0
1712016500356,1712016498211,2487246,0
1712016500356,1712016498252,2487625,0
1712016500356,1712016498292,2489331,0
1712016500356,1712016498332,2491586,0
1712016500356,1712016498372,2493473,0
1712016500356,1712016498412,2494159,0
1712016500356,1712016498452,2494154,0
1712016500356,1712016498493,2494458,0
1712016500356,1712016498533,2495271,0
1712016500356,1712016498573,2496403,0
1712016500356,1712016498613,2497605,0
1712016500356,1712016498653,2499099,0
1712016500356,1712016498694,2499923,0
1712016500356,1712016498734,2500893,0
1712016500356,1712016498774,2501474,0
1712016500356,1712016498814,2502393,0
1712016500356,1712016498854,2503128,0
1712016500356,1712016498895,2504113,0
1712016500356,1712016498934,2504473,0
1712016500356,1712016498975,2503754,0
1712016500356,1712016499015,2500838,0
1712016500356,1712016499055,2497282,0
1712016500356,1712016499096,2494670,0
1712016500356,1712016499135,2491626,0
1712016500356,1712016499175,2485633,0
1712016500356,1712016499216,2477078,0
1712016500356,1712016499256,2469700,0
1712016500356,1712016499297,2465756,0
1712016500356,1712016499337,2463861,0
1712016500356,1712016499377,2462930,0
1712016500356,1712016499417,2462165,0
1712016500356,1712016499457,2461293,0
1712016500356,1712016499498,2460681,0
1712016500356,1712016499537,2460767,0
1712016500356,1712016499578,2461279,0
1712016500356,1712016499618,2462399,0
1712016500356,1712016499658,2464166,0
1712016500356,1712016499699,2465408,0
1712016500356,1712016499739,2466703,0
1712016500356,1712016499779,2467962,0
1712016500356,1712016499819,2469174,0
1712016500356,1712016499860,2468289,0
1712016500356,1712016499900,2465474,0
1712016500356,1712016499940,2463580,0
1712016500356,1712016499980,2463010,0
1712016500356,1712016500020,2463066,0
1712016500356,1712016500061,2463482,0
1712016500356,1712016500102,2464056,0
1712016500356,1712016500141,2464299,0
1712016500356,1712016500182,2464752,0
1712016500356,1712016500222,2465289,0
1712016500356,1712016500264,2466195,0
1712016500356,1712016500305,2467151,0
1712016512369,1712016500345,2467935,0
1712016512369,1712016500385,2467404,0
1712016512369,1712016500425,2464114,0
1712016512369,1712016500465,2459147,0
1712016512369,1712016500505,2453576,0
1712016512369,1712016500545,2446915,0
1712016512369,1712016500585,2436222,0
1712016512369,1712016500625,2428244,0
1712016512369,1712016500665,2423816,0
1712016512369,1712016500705,2424691,0
1712016512369,1712016500745,2427079,0
1712016512369,1712016500785,2428814,0
1712016512369,1712016500825,2428738,0
1712016512369,1712016500865,2429544,0
1712016512369,1712016500905,2432212,0
1712016512369,1712016500945,2437494,0
1712016512369,1712016500985,2442098,0
1712016512369,1712016501025,2447098,0
1712016512369,1712016501065,2451711,0
1712016512369,1712016501105,2456233,0
1712016512369,1712016501145,2460964,0
1712016512369,1712016501185,2465648,0
1712016512369,1712016501225,2470402,0
1712016512369,1712016501265,2473632,0
1712016512369,1712016501305,2475509,0
1712016512369,1712016501345,2477510,0
1712016512369,1712016501385,2480490,0
1712016512369,1712016501425,2483905,0
1712016512369,1712016501465,2487506,0
1712016512369,1712016501505,2490579,0
1712016512369,1712016501545,2493140,0
1712016512369,1712016501585,2495266,0
1712016512369,1712016501625,2497392,0
1712016512369,1712016501665,2499333,0
1712016512369,1712016501705,2501321,0
1712016512369,1712016501745,2503154,0
1712016512369,1712016501785,2505065,0
1712016512369,1712016501825,2506711,0
1712016512369,1712016501865,2508301,0
1712016512369,1712016501905,2509959,0
1712016512369,1712016501945,2510984,0
1712016512369,1712016501985,2511484,0
1712016512369,1712016502025,2511977,0
1712016512369,1712016502065,2512824,0
1712016512369,1712016502105,2513855,0
1712016512369,1712016502145,2514609,0
1712016512369,1712016502185,2515397,0
1712016512369,1712016502225,2516208,0
1712016512369,1712016502265,2516753,0
1712016512369,1712016502305,2517445,0
1712016512369,1712016502345,2518225,0
1712016512369,1712016502385,2519290,0
1712016512369,1712016502425,2520281,0
1712016512369,1712016502465,2521296,0
1712016512369,1712016502505,2522393,0
1712016512369,1712016502545,2523252,0
1712016512369,1712016502585,2524167,0
1712016512369,1712016502625,2524321,0
1712016512369,1712016502665,2523959,0
1712016512369,1712016502705,2523847,0
1712016512369,1712016502745,2524077,0
1712016512369,1712016502785,2524638,0
1712016512369,1712016502825,2525422,0
1712016512369,1712016502865,2526090,0
1712016512369,1712016502905,2526676,0
1712016512369,1712016502945,2527271,0
1712016512369,1712016502985,2527911,0
1712016512369,1712016503025,2528602,0
1712016512369,1712016503065,2529724,0
1712016512369,1712016503105,2530502,0
1712016512369,1712016503145,2531457,0
1712016512369,1712016503185,2532303,0
1712016512369,1712016503225,2533277,0
1712016512369,1712016503265,2533800,0
1712016512369,1712016503305,2533606,0
1712016512369,1712016503345,2533199,0
1712016512369,1712016503385,2532849,0
1712016512369,1712016503425,2533206,0
1712016512369,1712016503465,2533571,0
1712016512369,1712016503505,2534225,0
1712016512369,1712016503545,2534817,0
1712016512369,1712016503585,2535323,0
1712016512369,1712016503625,2535725,0
1712016512369,1712016503665,2536197,0
1712016512369,1712016503705,2537139,0
1712016512369,1712016503745,2537996,0
1712016512369,1712016503785,2538731,0
1712016512369,1712016503825,2539346,0
1712016512369,1712016503865,2540190,0
1712016512369,1712016503905,2541064,0
1712016512369,1712016503945,2541645,0
1712016512369,1712016503985,2541251,0
1712016512369,1712016504025,2540370,0
1712016512369,1712016504065,2539896,0
1712016512369,1712016504105,2540473,0
1712016512369,1712016504145,2541215,0
1712016512369,1712016504185,2542070,0
1712016512369,1712016504225,2542425,0
1712016512369,1712016504265,2541918,0
1712016512369,1712016504305,2541317,0
1712016512369,1712016504345,2541253,0
1712016512369,1712016504385,2542072,0
1712016512369,1712016504425,2543849,0
1712016512369,1712016504465,2545502,0
1712016512369,1712016504505,2545941,0
1712016512369,1712016504545,2545725,0
1712016512369,1712016504585,2545917,0
1712016512369,1712016504625,2546671,0
1712016512369,1712016504665,2547081,0
1712016512369,1712016504705,2546903,0
1712016512369,1712016504745,2546120,0
1712016512369,1712016504785,2545546,0
1712016512369,1712016504825,2545498,0
1712016512369,1712016504865,2546070,0
1712016512369,1712016504905,2546821,0
1712016512369,1712016504945,2547462,0
1712016512369,1712016504985,2547898,0
1712016512369,1712016505025,2545583,0
1712016512369,1712016505065,2536280,0
1712016512369,1712016505105,2529796,0
1712016512369,1712016505145,2528061,0
1712016512369,1712016505185,2529440,0
1712016512369,1712016505225,2532885,0
1712016512369,1712016505265,2535192,0
1712016512369,1712016505305,2537041,0
1712016512369,1712016505345,2538136,0
1712016512369,1712016505385,2538377,0
1712016512369,1712016505425,2537926,0
1712016512369,1712016505465,2537930,0
1712016512369,1712016505505,2538143,0
1712016512369,1712016505545,2538755,0
1712016512369,1712016505585,2539204,0
1712016512369,1712016505625,2539401,0
1712016512369,1712016505665,2539421,0
1712016512369,1712016505705,2539735,0
1712016512369,1712016505745,2540210,0
1712016512369,1712016505785,2541032,0
1712016512369,1712016505825,2542066,0
1712016512369,1712016505865,2542785,0
1712016512369,1712016505905,2543614,0
1712016512369,1712016505945,2544647,0
1712016512369,1712016505985,2545357,0
1712016512369,1712016506025,2545184,0
1712016512369,1712016506065,2543898,0
1712016512369,1712016506105,2542338,0
1712016512369,1712016506145,2541727,0
1712016512369,1712016506185,2541851,0
1712016512369,1712016506225,2542374,0
1712016512369,1712016506265,2542749,0
1712016512369,1712016506305,2543032,0
1712016512369,1712016506345,2543063,0
1712016512369,1712016506385,2543423,0
1712016512369,1712016506425,2543958,0
1712016512369,1712016506465,2544819,0
1712016512369,1712016506505,2545856,0
1712016512369,1712016506545,2546616,0
1712016512369,1712016506585,2547503,0
1712016512369,1712016506625,2548234,0
1712016512369,1712016506665,2549003,0
1712016512369,1712016506705,2549025,0
1712016512369,1712016506745,2547854,0
1712016512369,1712016506785,2545907,0
1712016512369,1712016506825,2544935,0
1712016512369,1712016506865,2544663,0
1712016512369,1712016506905,2544928,0
1712016512369,1712016506945,2545274,0
1712016512369,1712016506985,2545411,0
1712016512369,1712016507025,2545525,0
1712016512369,1712016507065,2545637,0
1712016512369,1712016507105,2545985,0
1712016512369,1712016507145,2546634,0
1712016512369,1712016507185,2547576,0
1712016512369,1712016507225,2548466,0
1712016512369,1712016507265,2550347,0
1712016512369,1712016507305,2552426,0
1712016512369,1712016507345,2552982,0
1712016512369,1712016507385,2551805,0
1712016512369,1712016507425,2549923,0
1712016512369,1712016507465,2548370,0
1712016512369,1712016507505,2548991,0
1712016512369,1712016507545,2550754,0
1712016512369,1712016507585,2550847,0
1712016512369,1712016507625,2549577,0
1712016512369,1712016507665,2548435,0
1712016512369,1712016507705,2548461,0
1712016512369,1712016507745,2550131,0
1712016512369,1712016507785,2552111,0
1712016512369,1712016507825,2552813,0
1712016512369,1712016507865,2552471,0
1712016512369,1712016507905,2552531,0
1712016512369,1712016507945,2553167,0
1712016512369,1712016507985,2554683,0
1712016512369,1712016508025,2556488,0
1712016512369,1712016508065,2557498,0
1712016512369,1712016508105,2556692,0
1712016512369,1712016508145,2554319,0
1712016512369,1712016508185,2552213,0
1712016512369,1712016508225,2551865,0
1712016512369,1712016508265,2552163,0
1712016512369,1712016508305,2552355,0
1712016512369,1712016508345,2552211,0
1712016512369,1712016508385,2552024,0
1712016512369,1712016508425,2551975,0
1712016512369,1712016508465,2552283,0
1712016512369,1712016508505,2552754,0
1712016512369,1712016508545,2553511,0
1712016512369,1712016508585,2554299,0
1712016512369,1712016508625,2554906,0
1712016512369,1712016508665,2555791,0
1712016512369,1712016508705,2556578,0
1712016512369,1712016508745,2557253,0
1712016512369,1712016508785,2557237,0
1712016512369,1712016508825,2555878,0
1712016512369,1712016508865,2553941,0
1712016512369,1712016508905,2552870,0
1712016512369,1712016508945,2552678,0
1712016512369,1712016508985,2553053,0
1712016512369,1712016509025,2553214,0
1712016512369,1712016509065,2553412,0
1712016512369,1712016509105,2553226,0
1712016512369,1712016509145,2553124,0
1712016512369,1712016509185,2553494,0
1712016512369,1712016509225,2554176,0
1712016512369,1712016509265,2555140,0
1712016512369,1712016509305,2555758,0
1712016512369,1712016509345,2556452,0
1712016512369,1712016509385,2557268,0
1712016512369,1712016509425,2558014,0
1712016512369,1712016509465,2557992,0
1712016512369,1712016509505,2556657,0
1712016512369,1712016509545,2554550,0
1712016512369,1712016509585,2553379,0
1712016512369,1712016509625,2553184,0
1712016512369,1712016509665,2553423,0
1712016512369,1712016509705,2553650,0
1712016512369,1712016509745,2553583,0
1712016512369,1712016509785,2553349,0
1712016512369,1712016509825,2553260,0
1712016512369,1712016509865,2553646,0
1712016512369,1712016509905,2554385,0
1712016512369,1712016509945,2555100,0
1712016512369,1712016509985,2555731,0
1712016512369,1712016510025,2556350,0
1712016512369,1712016510065,2557220,0
1712016512369,1712016510105,2557715,0
1712016512369,1712016510145,2557582,0
1712016512369,1712016510185,2555855,0
1712016512369,1712016510225,2553278,0
1712016512369,1712016510265,2551590,0
1712016512369,1712016510305,2551048,0
1712016512369,1712016510345,2551063,0
1712016512369,1712016510385,2550863,0
1712016512369,1712016510425,2550486,0
1712016512369,1712016510465,2550270,0
1712016512369,1712016510505,2550474,0
1712016512369,1712016510545,2550968,0
1712016512369,1712016510585,2551856,0
1712016512369,1712016510625,2552608,0
1712016512369,1712016510665,2553093,0
1712016512369,1712016510705,2554062,0
1712016512369,1712016510745,2554913,0
1712016512369,1712016510785,2554920,0
1712016512369,1712016510825,2553251,0
1712016512369,1712016510865,2550208,0
1712016512369,1712016510905,2547895,0
1712016512369,1712016510945,2547053,0
1712016512369,1712016510985,2546836,0
1712016512369,1712016511025,2546885,0
1712016512369,1712016511065,2546550,0
1712016512369,1712016511105,2546180,0
1712016512369,1712016511145,2545918,0
1712016512369,1712016511185,2546069,0
1712016512369,1712016511225,2546542,0
1712016512369,1712016511265,2547120,0
1712016512369,1712016511305,2547815,0
1712016512369,1712016511345,2548547,0
1712016512369,1712016511385,2549069,0
1712016512369,1712016511425,2549382,0
1712016512369,1712016511465,2549221,0
1712016512369,1712016511505,2546218,0
1712016512369,1712016511545,2541354,0
1712016512369,1712016511585,2538318,0
1712016512369,1712016511625,2537083,0
1712016512369,1712016511665,2536658,0
1712016512369,1712016511705,2536905,0
1712016512369,1712016511745,2537115,0
1712016512369,1712016511785,2536562,0
1712016512369,1712016511825,2535690,0
1712016512369,1712016511865,2535173,0
1712016512369,1712016511905,2535026,0
1712016512369,1712016511945,2535396,0
1712016512369,1712016511985,2536042,0
1712016512369,1712016512025,2537067,0
1712016512369,1712016512065,2538129,0
1712016512369,1712016512105,2538960,0
1712016512369,1712016512145,2539842,0
1712016512369,1712016512185,2539384,0
1712016512369,1712016512225,2536433,0
1712016512369,1712016512265,2533208,0
1712016512369,1712016512306,2531206,0
1712016524461,1712016512395,2530235,0
1712016524461,1712016512435,2530212,0
1712016524461,1712016512475,2530303,0
1712016524461,1712016512515,2530100,0
1712016524461,1712016512556,2529927,0
1712016524461,1712016512596,2529560,0
1712016524461,1712016512636,2529565,0
1712016524461,1712016512676,2530190,0
1712016524461,1712016512716,2531096,0
1712016524461,1712016512757,2531826,0
1712016524461,1712016512796,2532528,0
1712016524461,1712016512837,2533442,0
1712016524461,1712016512877,2534272,0
1712016524461,1712016512917,2534854,0
1712016524461,1712016512958,2533145,0
1712016524461,1712016512997,2529323,0
1712016524461,1712016513037,2526968,0
1712016524461,1712016513077,2525920,0
1712016524461,1712016513117,2525322,0
1712016524461,1712016513158,2525058,0
1712016524461,1712016513197,2524760,0
1712016524461,1712016513237,2524202,0
1712016524461,1712016513278,2523903,0
1712016524461,1712016513318,2523818,0
1712016524461,1712016513358,2524482,0
1712016524461,1712016513398,2525252,0
1712016524461,1712016513438,2526229,0
1712016524461,1712016513478,2527113,0
1712016524461,1712016513518,2528026,0
1712016524461,1712016513559,2528825,0
1712016524461,1712016513598,2529768,0
1712016524461,1712016513638,2530321,0
1712016524461,1712016513679,2528260,0
1712016524461,1712016513719,2524839,0
1712016524461,1712016513760,2522686,0
1712016524461,1712016513799,2521932,0
1712016524461,1712016513839,2521781,0
1712016524461,1712016513879,2521800,0
1712016524461,1712016513919,2521628,0
1712016524461,1712016513960,2521348,0
1712016524461,1712016514000,2521289,0
1712016524461,1712016514040,2521733,0
1712016524461,1712016514080,2522395,0
1712016524461,1712016514120,2523318,0
1712016524461,1712016514161,2524477,0
1712016524461,1712016514200,2525498,0
1712016524461,1712016514240,2526419,0
1712016524461,1712016514280,2527519,0
1712016524461,1712016514320,2528677,0
1712016524461,1712016514361,2529168,0
1712016524461,1712016514401,2527367,0
1712016524461,1712016514441,2524007,0
1712016524461,1712016514481,2521806,0
1712016524461,1712016514521,2521199,0
1712016524461,1712016514562,2521132,0
1712016524461,1712016514601,2521530,0
1712016524461,1712016514641,2521652,0
1712016524461,1712016514681,2521901,0
1712016524461,1712016514722,2522138,0
1712016524461,1712016514762,2522468,0
1712016524461,1712016514802,2523243,0
1712016524461,1712016514842,2524396,0
1712016524461,1712016514882,2525480,0
1712016524461,1712016514922,2526388,0
1712016524461,1712016514963,2527236,0
1712016524461,1712016515002,2528303,0
1712016524461,1712016515042,2529509,0
1712016524461,1712016515082,2530750,0
1712016524461,1712016515123,2530448,0
1712016524461,1712016515163,2528773,0
1712016524461,1712016515203,2526860,0
1712016524461,1712016515243,2525650,0
1712016524461,1712016515283,2525446,0
1712016524461,1712016515323,2526210,0
1712016524461,1712016515364,2527176,0
1712016524461,1712016515403,2527479,0
1712016524461,1712016515443,2527701,0
1712016524461,1712016515484,2528232,0
1712016524461,1712016515524,2529341,0
1712016524461,1712016515565,2530501,0
1712016524461,1712016515604,2531851,0
1712016524461,1712016515644,2532896,0
1712016524461,1712016515684,2533995,0
1712016524461,1712016515724,2535074,0
1712016524461,1712016515765,2536370,0
1712016524461,1712016515805,2537171,0
1712016524461,1712016515845,2536993,0
1712016524461,1712016515885,2535223,0
1712016524461,1712016515925,2533522,0
1712016524461,1712016515966,2532768,0
1712016524461,1712016516005,2532581,0
1712016524461,1712016516045,2532906,0
1712016524461,1712016516085,2532990,0
1712016524461,1712016516126,2533127,0
1712016524461,1712016516166,2533270,0
1712016524461,1712016516206,2533635,0
1712016524461,1712016516246,2534377,0
1712016524461,1712016516286,2535393,0
1712016524461,1712016516326,2536394,0
1712016524461,1712016516367,2537291,0
1712016524461,1712016516406,2538261,0
1712016524461,1712016516446,2539374,0
1712016524461,1712016516487,2540392,0
1712016524461,1712016516527,2540107,0
1712016524461,1712016516568,2538708,0
1712016524461,1712016516607,2536863,0
1712016524461,1712016516647,2535981,0
1712016524461,1712016516688,2535733,0
1712016524461,1712016516728,2535874,0
1712016524461,1712016516769,2535946,0
1712016524461,1712016516808,2536312,0
1712016524461,1712016516849,2536236,0
1712016524461,1712016516889,2536523,0
1712016524461,1712016516929,2537144,0
1712016524461,1712016516970,2538172,0
1712016524461,1712016517010,2538984,0
1712016524461,1712016517050,2539962,0
1712016524461,1712016517091,2540842,0
1712016524461,1712016517131,2541879,0
1712016524461,1712016517172,2542805,0
1712016524461,1712016517211,2542629,0
1712016524461,1712016517251,2541359,0
1712016524461,1712016517292,2539521,0
1712016524461,1712016517332,2538704,0
1712016524461,1712016517373,2538358,0
1712016524461,1712016517412,2538844,0
1712016524461,1712016517452,2539218,0
1712016524461,1712016517493,2539636,0
1712016524461,1712016517533,2539969,0
1712016524461,1712016517574,2540507,0
1712016524461,1712016517613,2541223,0
1712016524461,1712016517653,2541979,0
1712016524461,1712016517693,2542727,0
1712016524461,1712016517734,2543410,0
1712016524461,1712016517775,2544155,0
1712016524461,1712016517814,2544983,0
1712016524461,1712016517854,2545711,0
1712016524461,1712016517895,2545641,0
1712016524461,1712016517935,2544725,0
1712016524461,1712016517976,2543389,0
1712016524461,1712016518015,2542343,0
1712016524461,1712016518055,2542306,0
1712016524461,1712016518095,2542456,0
1712016524461,1712016518136,2542618,0
1712016524461,1712016518177,2542869,0
1712016524461,1712016518216,2542894,0
1712016524461,1712016518257,2543258,0
1712016524461,1712016518297,2543748,0
1712016524461,1712016518337,2544443,0
1712016524461,1712016518378,2545230,0
1712016524461,1712016518418,2546120,0
1712016524461,1712016518458,2546975,0
1712016524461,1712016518498,2547832,0
1712016524461,1712016518538,2547926,0
1712016524461,1712016518579,2547151,0
1712016524461,1712016518619,2545552,0
1712016524461,1712016518659,2544261,0
1712016524461,1712016518699,2543257,0
1712016524461,1712016518740,2542743,0
1712016524461,1712016518781,2542792,0
1712016524461,1712016518820,2543031,0
1712016524461,1712016518861,2543192,0
1712016524461,1712016518901,2543469,0
1712016524461,1712016518941,2543869,0
1712016524461,1712016518982,2544523,0
1712016524461,1712016519021,2545631,0
1712016524461,1712016519062,2546499,0
1712016524461,1712016519102,2547581,0
1712016524461,1712016519142,2548555,0
1712016524461,1712016519183,2549030,0
1712016524461,1712016519223,2548616,0
1712016524461,1712016519263,2547426,0
1712016524461,1712016519303,2546381,0
1712016524461,1712016519344,2545923,0
1712016524461,1712016519384,2545824,0
1712016524461,1712016519424,2546118,0
1712016524461,1712016519464,2546568,0
1712016524461,1712016519504,2547014,0
1712016524461,1712016519545,2547232,0
1712016524461,1712016519586,2547893,0
1712016524461,1712016519625,2548879,0
1712016524461,1712016519666,2549980,0
1712016524461,1712016519706,2551126,0
1712016524461,1712016519746,2552110,0
1712016524461,1712016519787,2553244,0
1712016524461,1712016519827,2553855,0
1712016524461,1712016519867,2553538,0
1712016524461,1712016519907,2552932,0
1712016524461,1712016519947,2552468,0
1712016524461,1712016519988,2552538,0
1712016524461,1712016520028,2552981,0
1712016524461,1712016520068,2553571,0
1712016524461,1712016520108,2554490,0
1712016524461,1712016520148,2554963,0
1712016524461,1712016520190,2555570,0
1712016524461,1712016520229,2556448,0
1712016524461,1712016520269,2557311,0
1712016524461,1712016520309,2558238,0
1712016524461,1712016520349,2559116,0
1712016524461,1712016520390,2559931,0
1712016524461,1712016520430,2560163,0
1712016524461,1712016520470,2559589,0
1712016524461,1712016520510,2559026,0
1712016524461,1712016520550,2558818,0
1712016524461,1712016520591,2559213,0
1712016524461,1712016520631,2559780,0
1712016524461,1712016520671,2560212,0
1712016524461,1712016520711,2560599,0
1712016524461,1712016520751,2560984,0
1712016524461,1712016520792,2561324,0
1712016524461,1712016520831,2562081,0
1712016524461,1712016520872,2562998,0
1712016524461,1712016520912,2563726,0
1712016524461,1712016520952,2564513,0
1712016524461,1712016520993,2565365,0
1712016524461,1712016521032,2566097,0
1712016524461,1712016521072,2566049,0
1712016524461,1712016521113,2565399,0
1712016524461,1712016521153,2564952,0
1712016524461,1712016521194,2564933,0
1712016524461,1712016521233,2565347,0
1712016524461,1712016521273,2566159,0
1712016524461,1712016521313,2566556,0
1712016524461,1712016521354,2566919,0
1712016524461,1712016521395,2567078,0
1712016524461,1712016521434,2567487,0
1712016524461,1712016521474,2568189,0
1712016524461,1712016521515,2568917,0
1712016524461,1712016521555,2569695,0
1712016524461,1712016521596,2570329,0
1712016524461,1712016521635,2571052,0
1712016524461,1712016521675,2571644,0
1712016524461,1712016521716,2571430,0
1712016524461,1712016521756,2570728,0
1712016524461,1712016521797,2570319,0
1712016524461,1712016521837,2570401,0
1712016524461,1712016521877,2570891,0
1712016524461,1712016521917,2571439,0
1712016524461,1712016521957,2571708,0
1712016524461,1712016521998,2571894,0
1712016524461,1712016522038,2572132,0
1712016524461,1712016522078,2572462,0
1712016524461,1712016522118,2572986,0
1712016524461,1712016522158,2573610,0
1712016524461,1712016522201,2574269,0
1712016524461,1712016522241,2574846,0
1712016524461,1712016522281,2575494,0
1712016524461,1712016522321,2575840,0
1712016524461,1712016522361,2575278,0
1712016524461,1712016522402,2574789,0
1712016524461,1712016522442,2574504,0
1712016524461,1712016522482,2574680,0
1712016524461,1712016522522,2575215,0
1712016524461,1712016522563,2575618,0
1712016524461,1712016522604,2575912,0
1712016524461,1712016522643,2576241,0
1712016524461,1712016522683,2576404,0
1712016524461,1712016522724,2576909,0
1712016524461,1712016522764,2577471,0
1712016524461,1712016522805,2578179,0
1712016524461,1712016522844,2578756,0
1712016524461,1712016522885,2579618,0
1712016524461,1712016522925,2580361,0
1712016524461,1712016522965,2580225,0
1712016524461,1712016523006,2579525,0
1712016524461,1712016523046,2578943,0
1712016524461,1712016523086,2578734,0
1712016524461,1712016523126,2578819,0
1712016524461,1712016523166,2579259,0
1712016524461,1712016523208,2579567,0
1712016524461,1712016523248,2579614,0
1712016524461,1712016523288,2579833,0
1712016524461,1712016523328,2579994,0
1712016524461,1712016523368,2580384,0
1712016524461,1712016523409,2580946,0
1712016524461,1712016523449,2581468,0
1712016524461,1712016523489,2582236,0
1712016524461,1712016523529,2582654,0
1712016524461,1712016523569,2583255,0
1712016524461,1712016523610,2583067,0
1712016524461,1712016523650,2582217,0
1712016524461,1712016523690,2581482,0
1712016524461,1712016523730,2581104,0
1712016524461,1712016523770,2581068,0
1712016524461,1712016523811,2581469,0
1712016524461,1712016523850,2581591,0
1712016524461,1712016523891,2581758,0
1712016524461,1712016523931,2581871,0
1712016524461,1712016523971,2581994,0
1712016524461,1712016524012,2582339,0
1712016524461,1712016524051,2582888,0
1712016524461,1712016524091,2583410,0
1712016524461,1712016524132,2583903,0
1712016524461,1712016524172,2584445,0
1712016524461,1712016524213,2585006,0
1712016524461,1712016524252,2584857,0
1712016524461,1712016524292,2583909,0
1712016524461,1712016524332,2583162,0
1712016524461,1712016524373,2582700,0
1712016524461,1712016524414,2582588,0
1712016536502,1712016524449,2582905,0
1712016536502,1712016524489,2583103,0
1712016536502,1712016524529,2583077,0
1712016536502,1712016524569,2583089,0
1712016536502,1712016524610,2583172,0
1712016536502,1712016524649,2583517,0
1712016536502,1712016524689,2583950,0
1712016536502,1712016524730,2584384,0
1712016536502,1712016524770,2584724,0
1712016536502,1712016524810,2585180,0
1712016536502,1712016524850,2585722,0
1712016536502,1712016524890,2585737,0
1712016536502,1712016524930,2584899,0
1712016536502,1712016524970,2583892,0
1712016536502,1712016525011,2583176,0
1712016536502,1712016525050,2582856,0
1712016536502,1712016525090,2582948,0
1712016536502,1712016525131,2583023,0
1712016536502,1712016525171,2582999,0
1712016536502,1712016525212,2582796,0
1712016536502,1712016525251,2582631,0
1712016536502,1712016525291,2582687,0
1712016536502,1712016525331,2583144,0
1712016536502,1712016525371,2583267,0
1712016536502,1712016525412,2583542,0
1712016536502,1712016525451,2583957,0
1712016536502,1712016525492,2584081,0
1712016536502,1712016525532,2584536,0
1712016536502,1712016525572,2583947,0
1712016536502,1712016525613,2582763,0
1712016536502,1712016525652,2581589,0
1712016536502,1712016525692,2580883,0
1712016536502,1712016525732,2580686,0
1712016536502,1712016525772,2580656,0
1712016536502,1712016525813,2580680,0
1712016536502,1712016525852,2580585,0
1712016536502,1712016525892,2580534,0
1712016536502,1712016525933,2580420,0
1712016536502,1712016525973,2580594,0
1712016536502,1712016526013,2580992,0
1712016536502,1712016526053,2581512,0
1712016536502,1712016526093,2582029,0
1712016536502,1712016526133,2582529,0
1712016536502,1712016526173,2582895,0
1712016536502,1712016526214,2582753,0
1712016536502,1712016526253,2581760,0
1712016536502,1712016526293,2580926,0
1712016536502,1712016526334,2580061,0
1712016536502,1712016526374,2579897,0
1712016536502,1712016526415,2580217,0
1712016536502,1712016526454,2580577,0
1712016536502,1712016526494,2580482,0
1712016536502,1712016526534,2580511,0
1712016536502,1712016526574,2580751,0
1712016536502,1712016526615,2581063,0
1712016536502,1712016526654,2581727,0
1712016536502,1712016526695,2582220,0
1712016536502,1712016526735,2582732,0
1712016536502,1712016526775,2583325,0
1712016536502,1712016526816,2583867,0
1712016536502,1712016526855,2584125,0
1712016536502,1712016526895,2583349,0
1712016536502,1712016526935,2582309,0
1712016536502,1712016526975,2581390,0
1712016536502,1712016527016,2580999,0
1712016536502,1712016527056,2580826,0
1712016536502,1712016527095,2581037,0
1712016536502,1712016527136,2580896,0
1712016536502,1712016527176,2580916,0
1712016536502,1712016527217,2580968,0
1712016536502,1712016527256,2581144,0
1712016536502,1712016527296,2581284,0
1712016536502,1712016527336,2581503,0
1712016536502,1712016527376,2581934,0
1712016536502,1712016527417,2582601,0
1712016536502,1712016527457,2583608,0
1712016536502,1712016527497,2584716,0
1712016536502,1712016527537,2584695,0
1712016536502,1712016527577,2582575,0
1712016536502,1712016527618,2579551,0
1712016536502,1712016527657,2577977,0
1712016536502,1712016527697,2578621,0
1712016536502,1712016527738,2581065,0
1712016536502,1712016527778,2583121,0
1712016536502,1712016527818,2583612,0
1712016536502,1712016527858,2582350,0
1712016536502,1712016527898,2581402,0
1712016536502,1712016527938,2581830,0
1712016536502,1712016527978,2583725,0
1712016536502,1712016528019,2585623,0
1712016536502,1712016528059,2586323,0
1712016536502,1712016528099,2586450,0
1712016536502,1712016528139,2586469,0
1712016536502,1712016528179,2587363,0
1712016536502,1712016528220,2588455,0
1712016536502,1712016528259,2588418,0
1712016536502,1712016528299,2587551,0
1712016536502,1712016528340,2586711,0
1712016536502,1712016528380,2586333,0
1712016536502,1712016528420,2586599,0
1712016536502,1712016528460,2587028,0
1712016536502,1712016528500,2587355,0
1712016536502,1712016528540,2587496,0
1712016536502,1712016528580,2587705,0
1712016536502,1712016528621,2588030,0
1712016536502,1712016528661,2588608,0
1712016536502,1712016528701,2589330,0
1712016536502,1712016528741,2590018,0
1712016536502,1712016528781,2590613,0
1712016536502,1712016528822,2591111,0
1712016536502,1712016528861,2591808,0
1712016536502,1712016528902,2592440,0
1712016536502,1712016528942,2593102,0
1712016536502,1712016528982,2592694,0
1712016536502,1712016529023,2592083,0
1712016536502,1712016529062,2591287,0
1712016536502,1712016529102,2591014,0
1712016536502,1712016529142,2591247,0
1712016536502,1712016529182,2591558,0
1712016536502,1712016529223,2591681,0
1712016536502,1712016529263,2591722,0
1712016536502,1712016529303,2591504,0
1712016536502,1712016529343,2591733,0
1712016536502,1712016529383,2592025,0
1712016536502,1712016529424,2592707,0
1712016536502,1712016529463,2593341,0
1712016536502,1712016529503,2593779,0
1712016536502,1712016529543,2594381,0
1712016536502,1712016529584,2594972,0
1712016536502,1712016529624,2595129,0
1712016536502,1712016529664,2594409,0
1712016536502,1712016529704,2593718,0
1712016536502,1712016529744,2593059,0
1712016536502,1712016529784,2593147,0
1712016536502,1712016529825,2593329,0
1712016536502,1712016529864,2593351,0
1712016536502,1712016529904,2593122,0
1712016536502,1712016529944,2592694,0
1712016536502,1712016529984,2589955,0
1712016536502,1712016530025,2585485,0
1712016536502,1712016530065,2577046,0
1712016536502,1712016530105,2567630,0
1712016536502,1712016530145,2558245,0
1712016536502,1712016530185,2548062,0
1712016536502,1712016530226,2536021,0
1712016536502,1712016530265,2524989,0
1712016536502,1712016530306,2515271,0
1712016536502,1712016530346,2504391,0
1712016536502,1712016530386,2486687,0
1712016536502,1712016530427,2467679,0
1712016536502,1712016530468,2455020,0
1712016536502,1712016530508,2445260,0
1712016536502,1712016530548,2436234,0
1712016536502,1712016530589,2427412,0
1712016536502,1712016530629,2418189,0
1712016536502,1712016530669,2408948,0
1712016536502,1712016530709,2401061,0
1712016536502,1712016530749,2394288,0
1712016536502,1712016530790,2389026,0
1712016536502,1712016530831,2384426,0
1712016536502,1712016530870,2381081,0
1712016536502,1712016530910,2379664,0
1712016536502,1712016530950,2378978,0
1712016536502,1712016530991,2379017,0
1712016536502,1712016531032,2380621,0
1712016536502,1712016531071,2381537,0
1712016536502,1712016531111,2381789,0
1712016536502,1712016531152,2382724,0
1712016536502,1712016531192,2383571,0
1712016536502,1712016531233,2384953,0
1712016536502,1712016531273,2387334,0
1712016536502,1712016531313,2390300,0
1712016536502,1712016531353,2394578,0
1712016536502,1712016531393,2398459,0
1712016536502,1712016531434,2402509,0
1712016536502,1712016531474,2405380,0
1712016536502,1712016531517,2408201,0
1712016536502,1712016531554,2411129,0
1712016536502,1712016531595,2415139,0
1712016536502,1712016531636,2420226,0
1712016536502,1712016531675,2425221,0
1712016536502,1712016531716,2430445,0
1712016536502,1712016531756,2435964,0
1712016536502,1712016531796,2438990,0
1712016536502,1712016531837,2440851,0
1712016536502,1712016531877,2442297,0
1712016536502,1712016531917,2442515,0
1712016536502,1712016531957,2442795,0
1712016536502,1712016531997,2443166,0
1712016536502,1712016532038,2444725,0
1712016536502,1712016532078,2446004,0
1712016536502,1712016532118,2446627,0
1712016536502,1712016532158,2447546,0
1712016536502,1712016532198,2448909,0
1712016536502,1712016532240,2451160,0
1712016536502,1712016532279,2453664,0
1712016536502,1712016532319,2456739,0
1712016536502,1712016532360,2460437,0
1712016536502,1712016532400,2463817,0
1712016536502,1712016532441,2466231,0
1712016536502,1712016532480,2467095,0
1712016536502,1712016532520,2467256,0
1712016536502,1712016532561,2468448,0
1712016536502,1712016532601,2470886,0
1712016536502,1712016532642,2474060,0
1712016536502,1712016532681,2476856,0
1712016536502,1712016532722,2479508,0
1712016536502,1712016532762,2481427,0
1712016536502,1712016532802,2482649,0
1712016536502,1712016532843,2483343,0
1712016536502,1712016532883,2484203,0
1712016536502,1712016532923,2486303,0
1712016536502,1712016532964,2488921,0
1712016536502,1712016533004,2491840,0
1712016536502,1712016533045,2493894,0
1712016536502,1712016533084,2495765,0
1712016536502,1712016533124,2498056,0
1712016536502,1712016533164,2499661,0
1712016536502,1712016533204,2500599,0
1712016536502,1712016533245,2500551,0
1712016536502,1712016533285,2500131,0
1712016536502,1712016533325,2498914,0
1712016536502,1712016533365,2496433,0
1712016536502,1712016533405,2492769,0
1712016536502,1712016533446,2490240,0
1712016536502,1712016533485,2488842,0
1712016536502,1712016533526,2489004,0
1712016536502,1712016533566,2490070,0
1712016536502,1712016533606,2492141,0
1712016536502,1712016533647,2494567,0
1712016536502,1712016533687,2496756,0
1712016536502,1712016533729,2498386,0
1712016536502,1712016533767,2500007,0
1712016536502,1712016533807,2501461,0
1712016536502,1712016533848,2502970,0
1712016536502,1712016533887,2504462,0
1712016536502,1712016533928,2505163,0
1712016536502,1712016533968,2504822,0
1712016536502,1712016534008,2503958,0
1712016536502,1712016534049,2503568,0
1712016536502,1712016534088,2503609,0
1712016536502,1712016534128,2503868,0
1712016536502,1712016534169,2504500,0
1712016536502,1712016534209,2505430,0
1712016536502,1712016534250,2506590,0
1712016536502,1712016534289,2507850,0
1712016536502,1712016534329,2509002,0
1712016536502,1712016534370,2510314,0
1712016536502,1712016534410,2511592,0
1712016536502,1712016534451,2512692,0
1712016536502,1712016534490,2514067,0
1712016536502,1712016534531,2515424,0
1712016536502,1712016534571,2516731,0
1712016536502,1712016534611,2516833,0
1712016536502,1712016534653,2515536,0
1712016536502,1712016534692,2513876,0
1712016536502,1712016534732,2512820,0
1712016536502,1712016534773,2512493,0
1712016536502,1712016534813,2512941,0
1712016536502,1712016534854,2513675,0
1712016536502,1712016534894,2514815,0
1712016536502,1712016534934,2515995,0
1712016536502,1712016534974,2516919,0
1712016536502,1712016535014,2517874,0
1712016536502,1712016535055,2519137,0
1712016536502,1712016535095,2520493,0
1712016536502,1712016535135,2521969,0
1712016536502,1712016535175,2523421,0
1712016536502,1712016535216,2524805,0
1712016536502,1712016535257,2525667,0
1712016536502,1712016535296,2525364,0
1712016536502,1712016535336,2523568,0
1712016536502,1712016535377,2521825,0
1712016536502,1712016535417,2521416,0
1712016536502,1712016535458,2521209,0
1712016536502,1712016535497,2521571,0
1712016536502,1712016535537,2522245,0
1712016536502,1712016535578,2523078,0
1712016536502,1712016535618,2523714,0
1712016536502,1712016535659,2524506,0
1712016536502,1712016535699,2525409,0
1712016536502,1712016535739,2526394,0
1712016536502,1712016535779,2527376,0
1712016536502,1712016535819,2528495,0
1712016536502,1712016535860,2529606,0
1712016536502,1712016535900,2530584,0
1712016536502,1712016535943,2531908,0
1712016536502,1712016535981,2531564,0
1712016536502,1712016536021,2530170,0
1712016536502,1712016536062,2528596,0
1712016536502,1712016536101,2527865,0
1712016536502,1712016536141,2527977,0
1712016536502,1712016536182,2528318,0
1712016536502,1712016536222,2528920,0
1712016536502,1712016536263,2529535,0
1712016536502,1712016536302,2529941,0
1712016536502,1712016536343,2531047,0
1712016536502,1712016536383,2532175,0
1712016536502,1712016536423,2533431,0
1712016536502,1712016536464,2534587,0
1712016548558,1712016536507,2535757,0
1712016548558,1712016536547,2536876,0
1712016548558,1712016536588,2537621,0
1712016548558,1712016536628,2537390,0
1712016548558,1712016536668,2536198,0
1712016548558,1712016536708,2535171,0
1712016548558,1712016536748,2535201,0
1712016548558,1712016536788,2535460,0
1712016548558,1712016536828,2536376,0
1712016548558,1712016536869,2536947,0
1712016548558,1712016536908,2537668,0
1712016548558,1712016536948,2538335,0
1712016548558,1712016536988,2538935,0
1712016548558,1712016537029,2539837,0
1712016548558,1712016537069,2540699,0
1712016548558,1712016537109,2541720,0
1712016548558,1712016537149,2542818,0
1712016548558,1712016537189,2543759,0
1712016548558,1712016537229,2544806,0
1712016548558,1712016537270,2545260,0
1712016548558,1712016537309,2544571,0
1712016548558,1712016537349,2543327,0
1712016548558,1712016537389,2542096,0
1712016548558,1712016537429,2541937,0
1712016548558,1712016537470,2542341,0
1712016548558,1712016537510,2542787,0
1712016548558,1712016537550,2543497,0
1712016548558,1712016537590,2543945,0
1712016548558,1712016537630,2544437,0
1712016548558,1712016537671,2544938,0
1712016548558,1712016537710,2545597,0
1712016548558,1712016537750,2546468,0
1712016548558,1712016537790,2547408,0
1712016548558,1712016537830,2548401,0
1712016548558,1712016537871,2549186,0
1712016548558,1712016537911,2550005,0
1712016548558,1712016537951,2550439,0
1712016548558,1712016537991,2549887,0
1712016548558,1712016538031,2548853,0
1712016548558,1712016538071,2547862,0
1712016548558,1712016538111,2547759,0
1712016548558,1712016538151,2548088,0
1712016548558,1712016538191,2548699,0
1712016548558,1712016538231,2549315,0
1712016548558,1712016538272,2549658,0
1712016548558,1712016538311,2549953,0
1712016548558,1712016538351,2550411,0
1712016548558,1712016538392,2550894,0
1712016548558,1712016538432,2551728,0
1712016548558,1712016538472,2552655,0
1712016548558,1712016538512,2553297,0
1712016548558,1712016538552,2554058,0
1712016548558,1712016538592,2554904,0
1712016548558,1712016538632,2555151,0
1712016548558,1712016538673,2554495,0
1712016548558,1712016538712,2553350,0
1712016548558,1712016538753,2552527,0
1712016548558,1712016538792,2552246,0
1712016548558,1712016538833,2552603,0
1712016548558,1712016538874,2553114,0
1712016548558,1712016538913,2553238,0
1712016548558,1712016538953,2553495,0
1712016548558,1712016538993,2553601,0
1712016548558,1712016539033,2553742,0
1712016548558,1712016539074,2553980,0
1712016548558,1712016539113,2554535,0
1712016548558,1712016539153,2555096,0
1712016548558,1712016539193,2555630,0
1712016548558,1712016539234,2556333,0
1712016548558,1712016539274,2556899,0
1712016548558,1712016539314,2556883,0
1712016548558,1712016539354,2556050,0
1712016548558,1712016539394,2555110,0
1712016548558,1712016539434,2554641,0
1712016548558,1712016539475,2555012,0
1712016548558,1712016539514,2555638,0
1712016548558,1712016539554,2556472,0
1712016548558,1712016539595,2557130,0
1712016548558,1712016539635,2557329,0
1712016548558,1712016539675,2557775,0
1712016548558,1712016539715,2558553,0
1712016548558,1712016539755,2559157,0
1712016548558,1712016539795,2559870,0
1712016548558,1712016539835,2560587,0
1712016548558,1712016539876,2561375,0
1712016548558,1712016539915,2562231,0
1712016548558,1712016539955,2562117,0
1712016548558,1712016539995,2561373,0
1712016548558,1712016540035,2560804,0
1712016548558,1712016540076,2560477,0
1712016548558,1712016540116,2560672,0
1712016548558,1712016540156,2561116,0
1712016548558,1712016540196,2561606,0
1712016548558,1712016540236,2561977,0
1712016548558,1712016540277,2562066,0
1712016548558,1712016540316,2562206,0
1712016548558,1712016540356,2562660,0
1712016548558,1712016540396,2563188,0
1712016548558,1712016540437,2563883,0
1712016548558,1712016540477,2564470,0
1712016548558,1712016540517,2564981,0
1712016548558,1712016540557,2565694,0
1712016548558,1712016540597,2565656,0
1712016548558,1712016540637,2564968,0
1712016548558,1712016540678,2564062,0
1712016548558,1712016540717,2563574,0
1712016548558,1712016540757,2563574,0
1712016548558,1712016540798,2564045,0
1712016548558,1712016540838,2564531,0
1712016548558,1712016540878,2564629,0
1712016548558,1712016540918,2564830,0
1712016548558,1712016540958,2565124,0
1712016548558,1712016540998,2565285,0
1712016548558,1712016541038,2565839,0
1712016548558,1712016541079,2566356,0
1712016548558,1712016541118,2566975,0
1712016548558,1712016541158,2567672,0
1712016548558,1712016541198,2568195,0
1712016548558,1712016541239,2568059,0
1712016548558,1712016541280,2567387,0
1712016548558,1712016541319,2566346,0
1712016548558,1712016541359,2565778,0
1712016548558,1712016541399,2565551,0
1712016548558,1712016541439,2565817,0
1712016548558,1712016541480,2566125,0
1712016548558,1712016541519,2566210,0
1712016548558,1712016541559,2566176,0
1712016548558,1712016541599,2566105,0
1712016548558,1712016541640,2566231,0
1712016548558,1712016541680,2566567,0
1712016548558,1712016541720,2567003,0
1712016548558,1712016541760,2567580,0
1712016548558,1712016541800,2568070,0
1712016548558,1712016541840,2568640,0
1712016548558,1712016541881,2568494,0
1712016548558,1712016541920,2567691,0
1712016548558,1712016541960,2566850,0
1712016548558,1712016542001,2566262,0
1712016548558,1712016542041,2566435,0
1712016548558,1712016542081,2566772,0
1712016548558,1712016542121,2567164,0
1712016548558,1712016542161,2567506,0
1712016548558,1712016542201,2567643,0
1712016548558,1712016542241,2567763,0
1712016548558,1712016542282,2568086,0
1712016548558,1712016542321,2568583,0
1712016548558,1712016542361,2569005,0
1712016548558,1712016542401,2569795,0
1712016548558,1712016542441,2570439,0
1712016548558,1712016542482,2570586,0
1712016548558,1712016542522,2569951,0
1712016548558,1712016542562,2568867,0
1712016548558,1712016542602,2567528,0
1712016548558,1712016542642,2567022,0
1712016548558,1712016542683,2567011,0
1712016548558,1712016542722,2567441,0
1712016548558,1712016542762,2567524,0
1712016548558,1712016542802,2567586,0
1712016548558,1712016542842,2567429,0
1712016548558,1712016542883,2567510,0
1712016548558,1712016542923,2567893,0
1712016548558,1712016542963,2568370,0
1712016548558,1712016543003,2568906,0
1712016548558,1712016543043,2569435,0
1712016548558,1712016543084,2570095,0
1712016548558,1712016543123,2570097,0
1712016548558,1712016543163,2569229,0
1712016548558,1712016543204,2567696,0
1712016548558,1712016543243,2566197,0
1712016548558,1712016543284,2565946,0
1712016548558,1712016543324,2566081,0
1712016548558,1712016543364,2566315,0
1712016548558,1712016543404,2566279,0
1712016548558,1712016543444,2566245,0
1712016548558,1712016543485,2566213,0
1712016548558,1712016543524,2566390,0
1712016548558,1712016543565,2566739,0
1712016548558,1712016543605,2567371,0
1712016548558,1712016543645,2567842,0
1712016548558,1712016543686,2568359,0
1712016548558,1712016543725,2568958,0
1712016548558,1712016543765,2569050,0
1712016548558,1712016543805,2568341,0
1712016548558,1712016543845,2566469,0
1712016548558,1712016543886,2564934,0
1712016548558,1712016543926,2564494,0
1712016548558,1712016543966,2564479,0
1712016548558,1712016544006,2564676,0
1712016548558,1712016544046,2564802,0
1712016548558,1712016544086,2564782,0
1712016548558,1712016544126,2564677,0
1712016548558,1712016544166,2564656,0
1712016548558,1712016544206,2565069,0
1712016548558,1712016544246,2565734,0
1712016548558,1712016544287,2566241,0
1712016548558,1712016544326,2566760,0
1712016548558,1712016544366,2567384,0
1712016548558,1712016544406,2568071,0
1712016548558,1712016544446,2567597,0
1712016548558,1712016544487,2566114,0
1712016548558,1712016544527,2564120,0
1712016548558,1712016544567,2562841,0
1712016548558,1712016544607,2562684,0
1712016548558,1712016544647,2562810,0
1712016548558,1712016544687,2562840,0
1712016548558,1712016544727,2562725,0
1712016548558,1712016544767,2562364,0
1712016548558,1712016544807,2562007,0
1712016548558,1712016544847,2562135,0
1712016548558,1712016544888,2562538,0
1712016548558,1712016544927,2562814,0
1712016548558,1712016544967,2563329,0
1712016548558,1712016545007,2563727,0
1712016548558,1712016545047,2564208,0
1712016548558,1712016545088,2564625,0
1712016548558,1712016545128,2564208,0
1712016548558,1712016545168,2562266,0
1712016548558,1712016545208,2559534,0
1712016548558,1712016545248,2558040,0
1712016548558,1712016545289,2557592,0
1712016548558,1712016545328,2557755,0
1712016548558,1712016545368,2557903,0
1712016548558,1712016545408,2557759,0
1712016548558,1712016545448,2557408,0
1712016548558,1712016545489,2557430,0
1712016548558,1712016545528,2557908,0
1712016548558,1712016545568,2558558,0
1712016548558,1712016545609,2559240,0
1712016548558,1712016545649,2559880,0
1712016548558,1712016545689,2560814,0
1712016548558,1712016545729,2561594,0
1712016548558,1712016545769,2562279,0
1712016548558,1712016545809,2561895,0
1712016548558,1712016545849,2559848,0
1712016548558,1712016545890,2557543,0
1712016548558,1712016545929,2556286,0
1712016548558,1712016545969,2555953,0
1712016548558,1712016546009,2556087,0
1712016548558,1712016546049,2556212,0
1712016548558,1712016546090,2556270,0
1712016548558,1712016546130,2555941,0
1712016548558,1712016546170,2556064,0
1712016548558,1712016546210,2556388,0
1712016548558,1712016546250,2557120,0
1712016548558,1712016546291,2557703,0
1712016548558,1712016546330,2558519,0
1712016548558,1712016546370,2559186,0
1712016548558,1712016546410,2559858,0
1712016548558,1712016546450,2560562,0
1712016548558,1712016546491,2560364,0
1712016548558,1712016546530,2558558,0
1712016548558,1712016546571,2555569,0
1712016548558,1712016546611,2553547,0
1712016548558,1712016546651,2552830,0
1712016548558,1712016546692,2552711,0
1712016548558,1712016546731,2552735,0
1712016548558,1712016546771,2552571,0
1712016548558,1712016546811,2552264,0
1712016548558,1712016546851,2552145,0
1712016548558,1712016546892,2552353,0
1712016548558,1712016546932,2552954,0
1712016548558,1712016546972,2553733,0
1712016548558,1712016547012,2554523,0
1712016548558,1712016547052,2555319,0
1712016548558,1712016547092,2556120,0
1712016548558,1712016547132,2556837,0
1712016548558,1712016547172,2557655,0
1712016548558,1712016547212,2557460,0
1712016548558,1712016547252,2555638,0
1712016548558,1712016547293,2552379,0
1712016548558,1712016547332,2550404,0
1712016548558,1712016547372,2549592,0
1712016548558,1712016547413,2549313,0
1712016548558,1712016547453,2549433,0
1712016548558,1712016547493,2549366,0
1712016548558,1712016547533,2549028,0
1712016548558,1712016547573,2548869,0
1712016548558,1712016547613,2549087,0
1712016548558,1712016547653,2549647,0
1712016548558,1712016547694,2550334,0
1712016548558,1712016547733,2551310,0
1712016548558,1712016547773,2552104,0
1712016548558,1712016547813,2552859,0
1712016548558,1712016547853,2553563,0
1712016548558,1712016547894,2554540,0
1712016548558,1712016547934,2554714,0
1712016548558,1712016547974,2553494,0
1712016548558,1712016548014,2550439,0
1712016548558,1712016548054,2548034,0
1712016548558,1712016548095,2546992,0
1712016548558,1712016548134,2546804,0
1712016548558,1712016548174,2546899,0
1712016548558,1712016548214,2546870,0
1712016548558,1712016548255,2546708,0
1712016548558,1712016548295,2546399,0
1712016548558,1712016548335,2546539,0
1712016548558,1712016548375,2547076,0
1712016548558,1712016548415,2547973,0
1712016548558,1712016548455,2548847,0
1712016548558,1712016548496,2549755,0
1712016560574,1712016548533,2550620,0
1712016560574,1712016548573,2551235,0
1712016560574,1712016548614,2552068,0
1712016560574,1712016548654,2552922,0
1712016560574,1712016548694,2553260,0
1712016560574,1712016548734,2551687,0
1712016560574,1712016548774,2548640,0
1712016560574,1712016548814,2546400,0
1712016560574,1712016548854,2545616,0
1712016560574,1712016548895,2545339,0
1712016560574,1712016548934,2545329,0
1712016560574,1712016548975,2545346,0
1712016560574,1712016549014,2545120,0
1712016560574,1712016549055,2544781,0
1712016560574,1712016549096,2545120,0
1712016560574,1712016549135,2545518,0
1712016560574,1712016549175,2546271,0
1712016560574,1712016549215,2546819,0
1712016560574,1712016549255,2547652,0
1712016560574,1712016549296,2548389,0
1712016560574,1712016549336,2549114,0
1712016560574,1712016549375,2549781,0
1712016560574,1712016549416,2550529,0
1712016560574,1712016549456,2551095,0
1712016560574,1712016549497,2549752,0
1712016560574,1712016549536,2546832,0
1712016560574,1712016549576,2544462,0
1712016560574,1712016549616,2543510,0
1712016560574,1712016549656,2543608,0
1712016560574,1712016549697,2543734,0
1712016560574,1712016549736,2543948,0
1712016560574,1712016549777,2543870,0
1712016560574,1712016549817,2543903,0
1712016560574,1712016549857,2544044,0
1712016560574,1712016549898,2544767,0
1712016560574,1712016549937,2545743,0
1712016560574,1712016549977,2546740,0
1712016560574,1712016550017,2547681,0
1712016560574,1712016550057,2548677,0
1712016560574,1712016550098,2549518,0
1712016560574,1712016550138,2550504,0
1712016560574,1712016550178,2551550,0
1712016560574,1712016550218,2552081,0
1712016560574,1712016550258,2550906,0
1712016560574,1712016550299,2548342,0
1712016560574,1712016550338,2545920,0
1712016560574,1712016550378,2545065,0
1712016560574,1712016550418,2544950,0
1712016560574,1712016550458,2545011,0
1712016560574,1712016550499,2545088,0
1712016560574,1712016550539,2545186,0
1712016560574,1712016550579,2545092,0
1712016560574,1712016550619,2545198,0
1712016560574,1712016550659,2545933,0
1712016560574,1712016550700,2546703,0
1712016560574,1712016550739,2547582,0
1712016560574,1712016550779,2548667,0
1712016560574,1712016550819,2549482,0
1712016560574,1712016550859,2550428,0
1712016560574,1712016550900,2551147,0
1712016560574,1712016550940,2552169,0
1712016560574,1712016550980,2552636,0
1712016560574,1712016551020,2551798,0
1712016560574,1712016551060,2549328,0
1712016560574,1712016551101,2546672,0
1712016560574,1712016551140,2545593,0
1712016560574,1712016551180,2545222,0
1712016560574,1712016551221,2545245,0
1712016560574,1712016551261,2545313,0
1712016560574,1712016551301,2545306,0
1712016560574,1712016551341,2545136,0
1712016560574,1712016551381,2545258,0
1712016560574,1712016551421,2545878,0
1712016560574,1712016551461,2546654,0
1712016560574,1712016551502,2547512,0
1712016560574,1712016551541,2548588,0
1712016560574,1712016551581,2549394,0
1712016560574,1712016551622,2550087,0
1712016560574,1712016551662,2550931,0
1712016560574,1712016551703,2551941,0
1712016560574,1712016551742,2552491,0
1712016560574,1712016551782,2551697,0
1712016560574,1712016551822,2549012,0
1712016560574,1712016551862,2546641,0
1712016560574,1712016551903,2545672,0
1712016560574,1712016551942,2545445,0
1712016560574,1712016551983,2545602,0
1712016560574,1712016552023,2545753,0
1712016560574,1712016552063,2545765,0
1712016560574,1712016552104,2545721,0
1712016560574,1712016552143,2546221,0
1712016560574,1712016552183,2547131,0
1712016560574,1712016552223,2547979,0
1712016560574,1712016552263,2548935,0
1712016560574,1712016552304,2549687,0
1712016560574,1712016552343,2550491,0
1712016560574,1712016552383,2551305,0
1712016560574,1712016552423,2552316,0
1712016560574,1712016552464,2552693,0
1712016560574,1712016552504,2551496,0
1712016560574,1712016552544,2548734,0
1712016560574,1712016552584,2546582,0
1712016560574,1712016552624,2545806,0
1712016560574,1712016552664,2545783,0
1712016560574,1712016552705,2546058,0
1712016560574,1712016552744,2546070,0
1712016560574,1712016552784,2545929,0
1712016560574,1712016552824,2545745,0
1712016560574,1712016552864,2545949,0
1712016560574,1712016552905,2546612,0
1712016560574,1712016552945,2547424,0
1712016560574,1712016552984,2548279,0
1712016560574,1712016553025,2549069,0
1712016560574,1712016553065,2549855,0
1712016560574,1712016553105,2550672,0
1712016560574,1712016553145,2551356,0
1712016560574,1712016553185,2552157,0
1712016560574,1712016553225,2552427,0
1712016560574,1712016553265,2551082,0
1712016560574,1712016553306,2548248,0
1712016560574,1712016553345,2546417,0
1712016560574,1712016553385,2545774,0
1712016560574,1712016553426,2545929,0
1712016560574,1712016553466,2546066,0
1712016560574,1712016553506,2546039,0
1712016560574,1712016553546,2546060,0
1712016560574,1712016553586,2545762,0
1712016560574,1712016553626,2546042,0
1712016560574,1712016553666,2546599,0
1712016560574,1712016553707,2547494,0
1712016560574,1712016553746,2548217,0
1712016560574,1712016553786,2549075,0
1712016560574,1712016553826,2549968,0
1712016560574,1712016553866,2550720,0
1712016560574,1712016553907,2551447,0
1712016560574,1712016553946,2552089,0
1712016560574,1712016553986,2551757,0
1712016560574,1712016554026,2549616,0
1712016560574,1712016554066,2546577,0
1712016560574,1712016554107,2545330,0
1712016560574,1712016554147,2545059,0
1712016560574,1712016554187,2545332,0
1712016560574,1712016554227,2544753,0
1712016560574,1712016554267,2543332,0
1712016560574,1712016554308,2542507,0
1712016560574,1712016554347,2543221,0
1712016560574,1712016554387,2544531,0
1712016560574,1712016554427,2545746,0
1712016560574,1712016554467,2546072,0
1712016560574,1712016554508,2546418,0
1712016560574,1712016554548,2547176,0
1712016560574,1712016554588,2548256,0
1712016560574,1712016554628,2549303,0
1712016560574,1712016554668,2550121,0
1712016560574,1712016554709,2550422,0
1712016560574,1712016554749,2549077,0
1712016560574,1712016554789,2546541,0
1712016560574,1712016554829,2544541,0
1712016560574,1712016554870,2544056,0
1712016560574,1712016554910,2543895,0
1712016560574,1712016554950,2544384,0
1712016560574,1712016554990,2544578,0
1712016560574,1712016555030,2544614,0
1712016560574,1712016555071,2544549,0
1712016560574,1712016555112,2544682,0
1712016560574,1712016555151,2545333,0
1712016560574,1712016555191,2546360,0
1712016560574,1712016555232,2547222,0
1712016560574,1712016555272,2548284,0
1712016560574,1712016555313,2549177,0
1712016560574,1712016555353,2550057,0
1712016560574,1712016555393,2551102,0
1712016560574,1712016555433,2551512,0
1712016560574,1712016555473,2550336,0
1712016560574,1712016555514,2547528,0
1712016560574,1712016555554,2545252,0
1712016560574,1712016555594,2544454,0
1712016560574,1712016555634,2544347,0
1712016560574,1712016555675,2544571,0
1712016560574,1712016555716,2544668,0
1712016560574,1712016555755,2544422,0
1712016560574,1712016555795,2544133,0
1712016560574,1712016555836,2544056,0
1712016560574,1712016555876,2544608,0
1712016560574,1712016555917,2545027,0
1712016560574,1712016555957,2545781,0
1712016560574,1712016555997,2546406,0
1712016560574,1712016556037,2547124,0
1712016560574,1712016556077,2547770,0
1712016560574,1712016556118,2548447,0
1712016560574,1712016556160,2547957,0
1712016560574,1712016556201,2545106,0
1712016560574,1712016556241,2541536,0
1712016560574,1712016556281,2539610,0
1712016560574,1712016556322,2538770,0
1712016560574,1712016556362,2538590,0
1712016560574,1712016556402,2538551,0
1712016560574,1712016556442,2538542,0
1712016560574,1712016556483,2538018,0
1712016560574,1712016556524,2537912,0
1712016560574,1712016556563,2538327,0
1712016560574,1712016556603,2539125,0
1712016560574,1712016556643,2539966,0
1712016560574,1712016556684,2540893,0
1712016560574,1712016556724,2541891,0
1712016560574,1712016556764,2543023,0
1712016560574,1712016556804,2544041,0
1712016560574,1712016556844,2543442,0
1712016560574,1712016556884,2540032,0
1712016560574,1712016556925,2536668,0
1712016560574,1712016556965,2535087,0
1712016560574,1712016557005,2534695,0
1712016560574,1712016557045,2534749,0
1712016560574,1712016557085,2535157,0
1712016560574,1712016557126,2535012,0
1712016560574,1712016557166,2534825,0
1712016560574,1712016557206,2535005,0
1712016560574,1712016557246,2535433,0
1712016560574,1712016557286,2536376,0
1712016560574,1712016557327,2537351,0
1712016560574,1712016557366,2538679,0
1712016560574,1712016557407,2539873,0
1712016560574,1712016557447,2541140,0
1712016560574,1712016557487,2542033,0
1712016560574,1712016557528,2541097,0
1712016560574,1712016557567,2537272,0
1712016560574,1712016557607,2533617,0
1712016560574,1712016557648,2531778,0
1712016560574,1712016557688,2531088,0
1712016560574,1712016557729,2530900,0
1712016560574,1712016557769,2530660,0
1712016560574,1712016557809,2530508,0
1712016560574,1712016557849,2530004,0
1712016560574,1712016557889,2530000,0
1712016560574,1712016557930,2530486,0
1712016560574,1712016557969,2531198,0
1712016560574,1712016558010,2532297,0
1712016560574,1712016558050,2533446,0
1712016560574,1712016558090,2534452,0
1712016560574,1712016558131,2535476,0
1712016560574,1712016558171,2536786,0
1712016560574,1712016558211,2537137,0
1712016560574,1712016558251,2534535,0
1712016560574,1712016558291,2530218,0
1712016560574,1712016558332,2527542,0
1712016560574,1712016558372,2526541,0
1712016560574,1712016558412,2526194,0
1712016560574,1712016558452,2525985,0
1712016560574,1712016558493,2525920,0
1712016560574,1712016558534,2525607,0
1712016560574,1712016558573,2525240,0
1712016560574,1712016558614,2525579,0
1712016560574,1712016558655,2526417,0
1712016560574,1712016558695,2527552,0
1712016560574,1712016558736,2528554,0
1712016560574,1712016558775,2529659,0
1712016560574,1712016558816,2530695,0
1712016560574,1712016558856,2531693,0
1712016560574,1712016558896,2533142,0
1712016560574,1712016558937,2533767,0
1712016560574,1712016558977,2531696,0
1712016560574,1712016559017,2527401,0
1712016560574,1712016559057,2524690,0
1712016560574,1712016559098,2523618,0
1712016560574,1712016559138,2523271,0
1712016560574,1712016559178,2523256,0
1712016560574,1712016559218,2523121,0
1712016560574,1712016559258,2522972,0
1712016560574,1712016559299,2522596,0
1712016560574,1712016559340,2522881,0
1712016560574,1712016559379,2523540,0
1712016560574,1712016559419,2524783,0
1712016560574,1712016559460,2525641,0
1712016560574,1712016559500,2526759,0
1712016560574,1712016559541,2527851,0
1712016560574,1712016559580,2528755,0
1712016560574,1712016559620,2529948,0
1712016560574,1712016559661,2531245,0
1712016560574,1712016559701,2531322,0
1712016560574,1712016559742,2528881,0
1712016560574,1712016559782,2524601,0
1712016560574,1712016559822,2522247,0
1712016560574,1712016559862,2520971,0
1712016560574,1712016559902,2521020,0
1712016560574,1712016559943,2520915,0
1712016560574,1712016559983,2520580,0
1712016560574,1712016560023,2520466,0
1712016560574,1712016560063,2520671,0
1712016560574,1712016560103,2521565,0
1712016560574,1712016560144,2522755,0
1712016560574,1712016560184,2523872,0
1712016560574,1712016560224,2525177,0
1712016560574,1712016560264,2526394,0
1712016560574,1712016560304,2527683,0
1712016560574,1712016560345,2528840,0
1712016560574,1712016560385,2530057,0
1712016560574,1712016560425,2529994,0
1712016560574,1712016560465,2527103,0
1712016560574,1712016560505,2523620,0
1712016560574,1712016560546,2522184,0
1712016572637,1712016560581,2521859,0
1712016572637,1712016560621,2521926,0
1712016572637,1712016560662,2522197,0
1712016572637,1712016560702,2522295,0
1712016572637,1712016560742,2522219,0
1712016572637,1712016560782,2522096,0
1712016572637,1712016560822,2522642,0
1712016572637,1712016560862,2523667,0
1712016572637,1712016560902,2524829,0
1712016572637,1712016560943,2526018,0
1712016572637,1712016560982,2527291,0
1712016572637,1712016561023,2528394,0
1712016572637,1712016561062,2529445,0
1712016572637,1712016561103,2530688,0
1712016572637,1712016561143,2531723,0
1712016572637,1712016561183,2530944,0
1712016572637,1712016561223,2527477,0
1712016572637,1712016561263,2524237,0
1712016572637,1712016561303,2522815,0
1712016572637,1712016561344,2522137,0
1712016572637,1712016561383,2521811,0
1712016572637,1712016561423,2521596,0
1712016572637,1712016561463,2520899,0
1712016572637,1712016561504,2520069,0
1712016572637,1712016561545,2519821,0
1712016572637,1712016561584,2520390,0
1712016572637,1712016561624,2521432,0
1712016572637,1712016561664,2522675,0
1712016572637,1712016561704,2523973,0
1712016572637,1712016561745,2525127,0
1712016572637,1712016561784,2526068,0
1712016572637,1712016561825,2527219,0
1712016572637,1712016561865,2528275,0
1712016572637,1712016561905,2529094,0
1712016572637,1712016561946,2527402,0
1712016572637,1712016561985,2523678,0
1712016572637,1712016562025,2521428,0
1712016572637,1712016562065,2520758,0
1712016572637,1712016562106,2520978,0
1712016572637,1712016562146,2520858,0
1712016572637,1712016562186,2520569,0
1712016572637,1712016562226,2520026,0
1712016572637,1712016562266,2519017,0
1712016572637,1712016562306,2518521,0
1712016572637,1712016562347,2518283,0
1712016572637,1712016562386,2518697,0
1712016572637,1712016562426,2519411,0
1712016572637,1712016562467,2520295,0
1712016572637,1712016562507,2520664,0
1712016572637,1712016562547,2520942,0
1712016572637,1712016562587,2521853,0
1712016572637,1712016562627,2522863,0
1712016572637,1712016562667,2521009,0
1712016572637,1712016562707,2516885,0
1712016572637,1712016562748,2513956,0
1712016572637,1712016562787,2512249,0
1712016572637,1712016562828,2510932,0
1712016572637,1712016562868,2510288,0
1712016572637,1712016562908,2509804,0
1712016572637,1712016562949,2509793,0
1712016572637,1712016562988,2510276,0
1712016572637,1712016563028,2510248,0
1712016572637,1712016563068,2510660,0
1712016572637,1712016563108,2511307,0
1712016572637,1712016563149,2512176,0
1712016572637,1712016563189,2513744,0
1712016572637,1712016563229,2515388,0
1712016572637,1712016563269,2516864,0
1712016572637,1712016563309,2518141,0
1712016572637,1712016563350,2519110,0
1712016572637,1712016563389,2517911,0
1712016572637,1712016563429,2514534,0
1712016572637,1712016563469,2512068,0
1712016572637,1712016563509,2511039,0
1712016572637,1712016563550,2510857,0
1712016572637,1712016563590,2511244,0
1712016572637,1712016563630,2511544,0
1712016572637,1712016563670,2511404,0
1712016572637,1712016563710,2511292,0
1712016572637,1712016563751,2511360,0
1712016572637,1712016563790,2512098,0
1712016572637,1712016563830,2513233,0
1712016572637,1712016563870,2514413,0
1712016572637,1712016563911,2515565,0
1712016572637,1712016563951,2516421,0
1712016572637,1712016563991,2517463,0
1712016572637,1712016564031,2518563,0
1712016572637,1712016564071,2518545,0
1712016572637,1712016564111,2515441,0
1712016572637,1712016564152,2511012,0
1712016572637,1712016564191,2508666,0
1712016572637,1712016564232,2507494,0
1712016572637,1712016564272,2506958,0
1712016572637,1712016564312,2506592,0
1712016572637,1712016564353,2506111,0
1712016572637,1712016564392,2505569,0
1712016572637,1712016564432,2505159,0
1712016572637,1712016564472,2505073,0
1712016572637,1712016564513,2505156,0
1712016572637,1712016564553,2505837,0
1712016572637,1712016564593,2506739,0
1712016572637,1712016564633,2506461,0
1712016572637,1712016564673,2506150,0
1712016572637,1712016564713,2505833,0
1712016572637,1712016564754,2504772,0
1712016572637,1712016564794,2501224,0
1712016572637,1712016564834,2496453,0
1712016572637,1712016564874,2493303,0
1712016572637,1712016564914,2491356,0
1712016572637,1712016564955,2490746,0
1712016572637,1712016564994,2491078,0
1712016572637,1712016565034,2490621,0
1712016572637,1712016565075,2489754,0
1712016572637,1712016565115,2488775,0
1712016572637,1712016565156,2488864,0
1712016572637,1712016565195,2489432,0
1712016572637,1712016565235,2490722,0
1712016572637,1712016565275,2492037,0
1712016572637,1712016565315,2493173,0
1712016572637,1712016565356,2494411,0
1712016572637,1712016565396,2495500,0
1712016572637,1712016565436,2494787,0
1712016572637,1712016565476,2489656,0
1712016572637,1712016565516,2484469,0
1712016572637,1712016565557,2481200,0
1712016572637,1712016565596,2478889,0
1712016572637,1712016565636,2476996,0
1712016572637,1712016565677,2476191,0
1712016572637,1712016565717,2475702,0
1712016572637,1712016565758,2474768,0
1712016572637,1712016565797,2473959,0
1712016572637,1712016565837,2473111,0
1712016572637,1712016565877,2472901,0
1712016572637,1712016565918,2473522,0
1712016572637,1712016565958,2474599,0
1712016572637,1712016565998,2475742,0
1712016572637,1712016566038,2476875,0
1712016572637,1712016566078,2477664,0
1712016572637,1712016566118,2476332,0
1712016572637,1712016566159,2470995,0
1712016572637,1712016566198,2466060,0
1712016572637,1712016566238,2462617,0
1712016572637,1712016566278,2460453,0
1712016572637,1712016566319,2459076,0
1712016572637,1712016566359,2458450,0
1712016572637,1712016566399,2457580,0
1712016572637,1712016566439,2456795,0
1712016572637,1712016566479,2456307,0
1712016572637,1712016566519,2456434,0
1712016572637,1712016566560,2457016,0
1712016572637,1712016566599,2457951,0
1712016572637,1712016566639,2458891,0
1712016572637,1712016566680,2459980,0
1712016572637,1712016566720,2461129,0
1712016572637,1712016566761,2461905,0
1712016572637,1712016566800,2458511,0
1712016572637,1712016566840,2450841,0
1712016572637,1712016566880,2444014,0
1712016572637,1712016566921,2438093,0
1712016572637,1712016566961,2433021,0
1712016572637,1712016567001,2429383,0
1712016572637,1712016567041,2426550,0
1712016572637,1712016567081,2423624,0
1712016572637,1712016567121,2421271,0
1712016572637,1712016567162,2418887,0
1712016572637,1712016567202,2417523,0
1712016572637,1712016567242,2417288,0
1712016572637,1712016567282,2417679,0
1712016572637,1712016567322,2417933,0
1712016572637,1712016567363,2417981,0
1712016572637,1712016567403,2417691,0
1712016572637,1712016567443,2418465,0
1712016572637,1712016567483,2418122,0
1712016572637,1712016567524,2411343,0
1712016572637,1712016567564,2404273,0
1712016572637,1712016567604,2398979,0
1712016572637,1712016567644,2395756,0
1712016572637,1712016567684,2392491,0
1712016572637,1712016567724,2388973,0
1712016572637,1712016567765,2385982,0
1712016572637,1712016567805,2383754,0
1712016572637,1712016567845,2382071,0
1712016572637,1712016567886,2381254,0
1712016572637,1712016567926,2381550,0
1712016572637,1712016567967,2381936,0
1712016572637,1712016568006,2381798,0
1712016572637,1712016568046,2381195,0
1712016572637,1712016568087,2381389,0
1712016572637,1712016568127,2383235,0
1712016572637,1712016568168,2384463,0
1712016572637,1712016568207,2378750,0
1712016572637,1712016568248,2370472,0
1712016572637,1712016568288,2363763,0
1712016572637,1712016568328,2360370,0
1712016572637,1712016568369,2359074,0
1712016572637,1712016568409,2359002,0
1712016572637,1712016568449,2357603,0
1712016572637,1712016568489,2355841,0
1712016572637,1712016568530,2354177,0
1712016572637,1712016568570,2352992,0
1712016572637,1712016568610,2353323,0
1712016572637,1712016568650,2355347,0
1712016572637,1712016568690,2358099,0
1712016572637,1712016568731,2360803,0
1712016572637,1712016568772,2363136,0
1712016572637,1712016568811,2365073,0
1712016572637,1712016568852,2364000,0
1712016572637,1712016568892,2357456,0
1712016572637,1712016568932,2351099,0
1712016572637,1712016568973,2346825,0
1712016572637,1712016569013,2344452,0
1712016572637,1712016569053,2343048,0
1712016572637,1712016569093,2342704,0
1712016572637,1712016569133,2342703,0
1712016572637,1712016569174,2342465,0
1712016572637,1712016569214,2342280,0
1712016572637,1712016569254,2343007,0
1712016572637,1712016569294,2344684,0
1712016572637,1712016569335,2346686,0
1712016572637,1712016569376,2348502,0
1712016572637,1712016569415,2350673,0
1712016572637,1712016569455,2353352,0
1712016572637,1712016569496,2355897,0
1712016572637,1712016569536,2354155,0
1712016572637,1712016569577,2348098,0
1712016572637,1712016569616,2343165,0
1712016572637,1712016569656,2339623,0
1712016572637,1712016569697,2336578,0
1712016572637,1712016569737,2334993,0
1712016572637,1712016569778,2334673,0
1712016572637,1712016569818,2334502,0
1712016572637,1712016569858,2334730,0
1712016572637,1712016569898,2335824,0
1712016572637,1712016569939,2337517,0
1712016572637,1712016569979,2339582,0
1712016572637,1712016570019,2342040,0
1712016572637,1712016570059,2344348,0
1712016572637,1712016570099,2346642,0
1712016572637,1712016570139,2349026,0
1712016572637,1712016570180,2349371,0
1712016572637,1712016570219,2343658,0
1712016572637,1712016570260,2337349,0
1712016572637,1712016570300,2332982,0
1712016572637,1712016570340,2329972,0
1712016572637,1712016570381,2327597,0
1712016572637,1712016570420,2326710,0
1712016572637,1712016570460,2326612,0
1712016572637,1712016570501,2326432,0
1712016572637,1712016570541,2326381,0
1712016572637,1712016570582,2326934,0
1712016572637,1712016570621,2328129,0
1712016572637,1712016570661,2329581,0
1712016572637,1712016570702,2331748,0
1712016572637,1712016570742,2333769,0
1712016572637,1712016570783,2335794,0
1712016572637,1712016570822,2338099,0
1712016572637,1712016570862,2340940,0
1712016572637,1712016570903,2342355,0
1712016572637,1712016570943,2337463,0
1712016572637,1712016570984,2330465,0
1712016572637,1712016571023,2326242,0
1712016572637,1712016571063,2324076,0
1712016572637,1712016571104,2322981,0
1712016572637,1712016571144,2322881,0
1712016572637,1712016571185,2323521,0
1712016572637,1712016571224,2323759,0
1712016572637,1712016571265,2323651,0
1712016572637,1712016571305,2324142,0
1712016572637,1712016571345,2326056,0
1712016572637,1712016571386,2328545,0
1712016572637,1712016571425,2331078,0
1712016572637,1712016571466,2333315,0
1712016572637,1712016571506,2335745,0
1712016572637,1712016571546,2338718,0
1712016572637,1712016571587,2341820,0
1712016572637,1712016571627,2344036,0
1712016572637,1712016571667,2340872,0
1712016572637,1712016571707,2335149,0
1712016572637,1712016571748,2331737,0
1712016572637,1712016571788,2330068,0
1712016572637,1712016571828,2329112,0
1712016572637,1712016571868,2329121,0
1712016572637,1712016571909,2329717,0
1712016572637,1712016571949,2330324,0
1712016572637,1712016571990,2330624,0
1712016572637,1712016572029,2331177,0
1712016572637,1712016572069,2332798,0
1712016572637,1712016572110,2334939,0
1712016572637,1712016572150,2337230,0
1712016572637,1712016572191,2340017,0
1712016572637,1712016572231,2342555,0
1712016572637,1712016572271,2345070,0
1712016572637,1712016572311,2347875,0
1712016572637,1712016572351,2350201,0
1712016572637,1712016572392,2348333,0
1712016572637,1712016572432,2343506,0
1712016572637,1712016572472,2340123,0
1712016572637,1712016572512,2339056,0
1712016572637,1712016572552,2339047,0
1712016572637,1712016572594,2340104,0
1712016584705,1712016572640,2341140,0
1712016584705,1712016572680,2341591,0
1712016584705,1712016572720,2342172,0
1712016584705,1712016572760,2343013,0
1712016584705,1712016572801,2344534,0
1712016584705,1712016572841,2347211,0
1712016584705,1712016572881,2349717,0
1712016584705,1712016572921,2352087,0
1712016584705,1712016572961,2354319,0
1712016584705,1712016573002,2356350,0
1712016584705,1712016573041,2358785,0
1712016584705,1712016573082,2361048,0
1712016584705,1712016573122,2360582,0
1712016584705,1712016573162,2355857,0
1712016584705,1712016573203,2352240,0
1712016584705,1712016573242,2351321,0
1712016584705,1712016573282,2351607,0
1712016584705,1712016573322,2352614,0
1712016584705,1712016573362,2353885,0
1712016584705,1712016573403,2354551,0
1712016584705,1712016573443,2354731,0
1712016584705,1712016573483,2355592,0
1712016584705,1712016573523,2357570,0
1712016584705,1712016573563,2360392,0
1712016584705,1712016573604,2363536,0
1712016584705,1712016573643,2366435,0
1712016584705,1712016573684,2368935,0
1712016584705,1712016573724,2371564,0
1712016584705,1712016573764,2374297,0
1712016584705,1712016573805,2376584,0
1712016584705,1712016573844,2375345,0
1712016584705,1712016573884,2371300,0
1712016584705,1712016573924,2369279,0
1712016584705,1712016573964,2369252,0
1712016584705,1712016574005,2370334,0
1712016584705,1712016574044,2372053,0
1712016584705,1712016574084,2373489,0
1712016584705,1712016574124,2374145,0
1712016584705,1712016574165,2374581,0
1712016584705,1712016574205,2375685,0
1712016584705,1712016574245,2377714,0
1712016584705,1712016574285,2380106,0
1712016584705,1712016574325,2382701,0
1712016584705,1712016574365,2385073,0
1712016584705,1712016574406,2387591,0
1712016584705,1712016574445,2390197,0
1712016584705,1712016574485,2392611,0
1712016584705,1712016574525,2393331,0
1712016584705,1712016574565,2389724,0
1712016584705,1712016574606,2386324,0
1712016584705,1712016574646,2385635,0
1712016584705,1712016574685,2386472,0
1712016584705,1712016574726,2387788,0
1712016584705,1712016574766,2389187,0
1712016584705,1712016574807,2389827,0
1712016584705,1712016574846,2390287,0
1712016584705,1712016574886,2391426,0
1712016584705,1712016574926,2393036,0
1712016584705,1712016574966,2395046,0
1712016584705,1712016575007,2397241,0
1712016584705,1712016575046,2399530,0
1712016584705,1712016575087,2401679,0
1712016584705,1712016575127,2404164,0
1712016584705,1712016575167,2406493,0
1712016584705,1712016575208,2407580,0
1712016584705,1712016575247,2404627,0
1712016584705,1712016575287,2400840,0
1712016584705,1712016575327,2399504,0
1712016584705,1712016575367,2399939,0
1712016584705,1712016575408,2401167,0
1712016584705,1712016575447,2402652,0
1712016584705,1712016575488,2403640,0
1712016584705,1712016575528,2403835,0
1712016584705,1712016575568,2404371,0
1712016584705,1712016575609,2405565,0
1712016584705,1712016575648,2407384,0
1712016584705,1712016575688,2409652,0
1712016584705,1712016575728,2411727,0
1712016584705,1712016575768,2413697,0
1712016584705,1712016575809,2415976,0
1712016584705,1712016575848,2417973,0
1712016584705,1712016575888,2418686,0
1712016584705,1712016575929,2415625,0
1712016584705,1712016575969,2412076,0
1712016584705,1712016576009,2410873,0
1712016584705,1712016576049,2411425,0
1712016584705,1712016576089,2412472,0
1712016584705,1712016576129,2413846,0
1712016584705,1712016576169,2414503,0
1712016584705,1712016576210,2414554,0
1712016584705,1712016576249,2414802,0
1712016584705,1712016576289,2415863,0
1712016584705,1712016576330,2417491,0
1712016584705,1712016576370,2419175,0
1712016584705,1712016576410,2421149,0
1712016584705,1712016576450,2422988,0
1712016584705,1712016576490,2424800,0
1712016584705,1712016576530,2426344,0
1712016584705,1712016576570,2426171,0
1712016584705,1712016576611,2422176,0
1712016584705,1712016576651,2418682,0
1712016584705,1712016576691,2417677,0
1712016584705,1712016576731,2417955,0
1712016584705,1712016576771,2419025,0
1712016584705,1712016576812,2419726,0
1712016584705,1712016576851,2419825,0
1712016584705,1712016576891,2419236,0
1712016584705,1712016576931,2419529,0
1712016584705,1712016576971,2420665,0
1712016584705,1712016577012,2422099,0
1712016584705,1712016577052,2423847,0
1712016584705,1712016577092,2425534,0
1712016584705,1712016577132,2427203,0
1712016584705,1712016577172,2428897,0
1712016584705,1712016577213,2429681,0
1712016584705,1712016577252,2426636,0
1712016584705,1712016577292,2422830,0
1712016584705,1712016577332,2421156,0
1712016584705,1712016577372,2421341,0
1712016584705,1712016577413,2422059,0
1712016584705,1712016577453,2422965,0
1712016584705,1712016577493,2423228,0
1712016584705,1712016577533,2423121,0
1712016584705,1712016577573,2423021,0
1712016584705,1712016577614,2423731,0
1712016584705,1712016577653,2425169,0
1712016584705,1712016577693,2426834,0
1712016584705,1712016577733,2428534,0
1712016584705,1712016577774,2430170,0
1712016584705,1712016577814,2431909,0
1712016584705,1712016577854,2432878,0
1712016584705,1712016577894,2429822,0
1712016584705,1712016577934,2424846,0
1712016584705,1712016577974,2422144,0
1712016584705,1712016578015,2421380,0
1712016584705,1712016578054,2421515,0
1712016584705,1712016578095,2422150,0
1712016584705,1712016578135,2422156,0
1712016584705,1712016578175,2421495,0
1712016584705,1712016578216,2421110,0
1712016584705,1712016578255,2421428,0
1712016584705,1712016578295,2422374,0
1712016584705,1712016578335,2423746,0
1712016584705,1712016578375,2425144,0
1712016584705,1712016578416,2426597,0
1712016584705,1712016578456,2428255,0
1712016584705,1712016578496,2429492,0
1712016584705,1712016578536,2427931,0
1712016584705,1712016578576,2422607,0
1712016584705,1712016578617,2418800,0
1712016584705,1712016578658,2417109,0
1712016584705,1712016578699,2416653,0
1712016584705,1712016578739,2416803,0
1712016584705,1712016578779,2416969,0
1712016584705,1712016578820,2416273,0
1712016584705,1712016578860,2415420,0
1712016584705,1712016578900,2415257,0
1712016584705,1712016578940,2415883,0
1712016584705,1712016578981,2417062,0
1712016584705,1712016579022,2418217,0
1712016584705,1712016579061,2419379,0
1712016584705,1712016579101,2420693,0
1712016584705,1712016579142,2422206,0
1712016584705,1712016579182,2423012,0
1712016584705,1712016579223,2419609,0
1712016584705,1712016579262,2414071,0
1712016584705,1712016579303,2410815,0
1712016584705,1712016579343,2409554,0
1712016584705,1712016579383,2408999,0
1712016584705,1712016579424,2408970,0
1712016584705,1712016579464,2407624,0
1712016584705,1712016579504,2406783,0
1712016584705,1712016579545,2406909,0
1712016584705,1712016579586,2407406,0
1712016584705,1712016579626,2408614,0
1712016584705,1712016579666,2409804,0
1712016584705,1712016579706,2410995,0
1712016584705,1712016579746,2411931,0
1712016584705,1712016579786,2413558,0
1712016584705,1712016579827,2414735,0
1712016584705,1712016579867,2412472,0
1712016584705,1712016579907,2407018,0
1712016584705,1712016579947,2403206,0
1712016584705,1712016579987,2401566,0
1712016584705,1712016580028,2400947,0
1712016584705,1712016580068,2400545,0
1712016584705,1712016580108,2400353,0
1712016584705,1712016580148,2399574,0
1712016584705,1712016580188,2398646,0
1712016584705,1712016580229,2398518,0
1712016584705,1712016580268,2399191,0
1712016584705,1712016580309,2400323,0
1712016584705,1712016580349,2401635,0
1712016584705,1712016580389,2402803,0
1712016584705,1712016580430,2404118,0
1712016584705,1712016580469,2405517,0
1712016584705,1712016580510,2407184,0
1712016584705,1712016580550,2408608,0
1712016584705,1712016580590,2407055,0
1712016584705,1712016580631,2401649,0
1712016584705,1712016580671,2397586,0
1712016584705,1712016580711,2395869,0
1712016584705,1712016580751,2394879,0
1712016584705,1712016580791,2394746,0
1712016584705,1712016580832,2394413,0
1712016584705,1712016580872,2393574,0
1712016584705,1712016580912,2392567,0
1712016584705,1712016580952,2392293,0
1712016584705,1712016580993,2392750,0
1712016584705,1712016581034,2393619,0
1712016584705,1712016581073,2394123,0
1712016584705,1712016581113,2394713,0
1712016584705,1712016581154,2395641,0
1712016584705,1712016581194,2396470,0
1712016584705,1712016581235,2397720,0
1712016584705,1712016581274,2399442,0
1712016584705,1712016581314,2400141,0
1712016584705,1712016581355,2395862,0
1712016584705,1712016581395,2390763,0
1712016584705,1712016581436,2388174,0
1712016584705,1712016581475,2387269,0
1712016584705,1712016581516,2386924,0
1712016584705,1712016581556,2387040,0
1712016584705,1712016581596,2386779,0
1712016584705,1712016581637,2386289,0
1712016584705,1712016581677,2385787,0
1712016584705,1712016581717,2386298,0
1712016584705,1712016581757,2387531,0
1712016584705,1712016581797,2389189,0
1712016584705,1712016581838,2390622,0
1712016584705,1712016581878,2392188,0
1712016584705,1712016581918,2393680,0
1712016584705,1712016581959,2395269,0
1712016584705,1712016581999,2397036,0
1712016584705,1712016582040,2398857,0
1712016584705,1712016582079,2397414,0
1712016584705,1712016582120,2391782,0
1712016584705,1712016582160,2387355,0
1712016584705,1712016582200,2385129,0
1712016584705,1712016582241,2384087,0
1712016584705,1712016582281,2383647,0
1712016584705,1712016582321,2383436,0
1712016584705,1712016582361,2382922,0
1712016584705,1712016582401,2382136,0
1712016584705,1712016582442,2381956,0
1712016584705,1712016582482,2382639,0
1712016584705,1712016582522,2384004,0
1712016584705,1712016582562,2385558,0
1712016584705,1712016582603,2387066,0
1712016584705,1712016582644,2388567,0
1712016584705,1712016582683,2389863,0
1712016584705,1712016582724,2391547,0
1712016584705,1712016582764,2393632,0
1712016584705,1712016582804,2394751,0
1712016584705,1712016582845,2391292,0
1712016584705,1712016582884,2385573,0
1712016584705,1712016582924,2382130,0
1712016584705,1712016582965,2380564,0
1712016584705,1712016583005,2379628,0
1712016584705,1712016583046,2379476,0
1712016584705,1712016583085,2379313,0
1712016584705,1712016583125,2378814,0
1712016584705,1712016583166,2378143,0
1712016584705,1712016583207,2378208,0
1712016584705,1712016583248,2379032,0
1712016584705,1712016583287,2380427,0
1712016584705,1712016583327,2382095,0
1712016584705,1712016583367,2383721,0
1712016584705,1712016583408,2385284,0
1712016584705,1712016583449,2386800,0
1712016584705,1712016583488,2388583,0
1712016584705,1712016583528,2390478,0
1712016584705,1712016583568,2390813,0
1712016584705,1712016583608,2385883,0
1712016584705,1712016583649,2380661,0
1712016584705,1712016583689,2378039,0
1712016584705,1712016583729,2377090,0
1712016584705,1712016583769,2376500,0
1712016584705,1712016583810,2376510,0
1712016584705,1712016583850,2376250,0
1712016584705,1712016583890,2375820,0
1712016584705,1712016583931,2375506,0
1712016584705,1712016583971,2375967,0
1712016584705,1712016584011,2377459,0
1712016584705,1712016584052,2379163,0
1712016584705,1712016584091,2380699,0
1712016584705,1712016584131,2382595,0
1712016584705,1712016584172,2384377,0
1712016584705,1712016584212,2386043,0
1712016584705,1712016584253,2388098,0
1712016584705,1712016584293,2389959,0
1712016584705,1712016584333,2387879,0
1712016584705,1712016584373,2382830,0
1712016584705,1712016584413,2379497,0
1712016584705,1712016584454,2378404,0
1712016584705,1712016584494,2378007,0
1712016584705,1712016584534,2378122,0
1712016584705,1712016584574,2378509,0
1712016584705,1712016584614,2378460,0
1712016584705,1712016584656,2378133,0
1712016596715,1712016584695,2378339,0
1712016596715,1712016584734,2379659,0
1712016596715,1712016584773,2381376,0
1712016596715,1712016584812,2383083,0
1712016596715,1712016584851,2384899,0
1712016596715,1712016584890,2386739,0
1712016596715,1712016584929,2388511,0
1712016596715,1712016584968,2390815,0
1712016596715,1712016585007,2392722,0
1712016596715,1712016585046,2392436,0
1712016596715,1712016585085,2387811,0
1712016596715,1712016585124,2383880,0
1712016596715,1712016585163,2382220,0
1712016596715,1712016585202,2381883,0
1712016596715,1712016585241,2381941,0
1712016596715,1712016585280,2382412,0
1712016596715,1712016585320,2382596,0
1712016596715,1712016585360,2382088,0
1712016596715,1712016585400,2382235,0
1712016596715,1712016585440,2383259,0
1712016596715,1712016585480,2384761,0
1712016596715,1712016585520,2386634,0
1712016596715,1712016585560,2388365,0
1712016596715,1712016585600,2390105,0
1712016596715,1712016585640,2391984,0
1712016596715,1712016585680,2393859,0
1712016596715,1712016585720,2396005,0
1712016596715,1712016585760,2397210,0
1712016596715,1712016585800,2393971,0
1712016596715,1712016585840,2389288,0
1712016596715,1712016585880,2386695,0
1712016596715,1712016585920,2385940,0
1712016596715,1712016585960,2385830,0
1712016596715,1712016586000,2386121,0
1712016596715,1712016586040,2386432,0
1712016596715,1712016586080,2386164,0
1712016596715,1712016586120,2385952,0
1712016596715,1712016586160,2386397,0
1712016596715,1712016586200,2387807,0
1712016596715,1712016586240,2389495,0
1712016596715,1712016586280,2391186,0
1712016596715,1712016586320,2392983,0
1712016596715,1712016586360,2394757,0
1712016596715,1712016586400,2396458,0
1712016596715,1712016586440,2398476,0
1712016596715,1712016586480,2400492,0
1712016596715,1712016586520,2400364,0
1712016596715,1712016586560,2395696,0
1712016596715,1712016586600,2391624,0
1712016596715,1712016586640,2389922,0
1712016596715,1712016586680,2389405,0
1712016596715,1712016586720,2389514,0
1712016596715,1712016586760,2389629,0
1712016596715,1712016586800,2389468,0
1712016596715,1712016586840,2389092,0
1712016596715,1712016586880,2388921,0
1712016596715,1712016586920,2389729,0
1712016596715,1712016586960,2391047,0
1712016596715,1712016587000,2392597,0
1712016596715,1712016587040,2394244,0
1712016596715,1712016587080,2395881,0
1712016596715,1712016587120,2397500,0
1712016596715,1712016587160,2401132,0
1712016596715,1712016587200,2402670,0
1712016596715,1712016587240,2400186,0
1712016596715,1712016587280,2395208,0
1712016596715,1712016587320,2392171,0
1712016596715,1712016587360,2391040,0
1712016596715,1712016587400,2390593,0
1712016596715,1712016587440,2390609,0
1712016596715,1712016587480,2390464,0
1712016596715,1712016587520,2390225,0
1712016596715,1712016587560,2389719,0
1712016596715,1712016587600,2390014,0
1712016596715,1712016587640,2390897,0
1712016596715,1712016587680,2392457,0
1712016596715,1712016587720,2393887,0
1712016596715,1712016587760,2395522,0
1712016596715,1712016587800,2397193,0
1712016596715,1712016587840,2398773,0
1712016596715,1712016587880,2400525,0
1712016596715,1712016587920,2402607,0
1712016596715,1712016587960,2403772,0
1712016596715,1712016588000,2400386,0
1712016596715,1712016588040,2395781,0
1712016596715,1712016588080,2393268,0
1712016596715,1712016588120,2392301,0
1712016596715,1712016588160,2392150,0
1712016596715,1712016588200,2392202,0
1712016596715,1712016588240,2392065,0
1712016596715,1712016588280,2391553,0
1712016596715,1712016588320,2391021,0
1712016596715,1712016588360,2391077,0
1712016596715,1712016588400,2391825,0
1712016596715,1712016588440,2392972,0
1712016596715,1712016588480,2394202,0
1712016596715,1712016588520,2395348,0
1712016596715,1712016588560,2396531,0
1712016596715,1712016588600,2397755,0
1712016596715,1712016588640,2399248,0
1712016596715,1712016588680,2400484,0
1712016596715,1712016588720,2398540,0
1712016596715,1712016588760,2392560,0
1712016596715,1712016588800,2388202,0
1712016596715,1712016588840,2385960,0
1712016596715,1712016588880,2384785,0
1712016596715,1712016588920,2384154,0
1712016596715,1712016588960,2383559,0
1712016596715,1712016589000,2382228,0
1712016596715,1712016589040,2380665,0
1712016596715,1712016589080,2379877,0
1712016596715,1712016589120,2379549,0
1712016596715,1712016589160,2379619,0
1712016596715,1712016589200,2380216,0
1712016596715,1712016589240,2380888,0
1712016596715,1712016589280,2381423,0
1712016596715,1712016589320,2381908,0
1712016596715,1712016589360,2382659,0
1712016596715,1712016589400,2381779,0
1712016596715,1712016589440,2376928,0
1712016596715,1712016589480,2371593,0
1712016596715,1712016589520,2367812,0
1712016596715,1712016589560,2365521,0
1712016596715,1712016589600,2364090,0
1712016596715,1712016589640,2363338,0
1712016596715,1712016589680,2362045,0
1712016596715,1712016589720,2360230,0
1712016596715,1712016589760,2358395,0
1712016596715,1712016589800,2357190,0
1712016596715,1712016589840,2356323,0
1712016596715,1712016589880,2355834,0
1712016596715,1712016589920,2355608,0
1712016596715,1712016589960,2355673,0
1712016596715,1712016590000,2355819,0
1712016596715,1712016590040,2356260,0
1712016596715,1712016590080,2352877,0
1712016596715,1712016590120,2344421,0
1712016596715,1712016590160,2336138,0
1712016596715,1712016590200,2330242,0
1712016596715,1712016590240,2326536,0
1712016596715,1712016590280,2324165,0
1712016596715,1712016590320,2322408,0
1712016596715,1712016590360,2320523,0
1712016596715,1712016590400,2318974,0
1712016596715,1712016590440,2317976,0
1712016596715,1712016590480,2318145,0
1712016596715,1712016590520,2318966,0
1712016596715,1712016590560,2320041,0
1712016596715,1712016590600,2321119,0
1712016596715,1712016590640,2322684,0
1712016596715,1712016590680,2324370,0
1712016596715,1712016590720,2323141,0
1712016596715,1712016590760,2317371,0
1712016596715,1712016590800,2311855,0
1712016596715,1712016590840,2308314,0
1712016596715,1712016590880,2305985,0
1712016596715,1712016590920,2305046,0
1712016596715,1712016590960,2304915,0
1712016596715,1712016591000,2304381,0
1712016596715,1712016591040,2303637,0
1712016596715,1712016591080,2303799,0
1712016596715,1712016591120,2304759,0
1712016596715,1712016591160,2306848,0
1712016596715,1712016591200,2309797,0
1712016596715,1712016591240,2312768,0
1712016596715,1712016591280,2315540,0
1712016596715,1712016591320,2317831,0
1712016596715,1712016591360,2317263,0
1712016596715,1712016591400,2312004,0
1712016596715,1712016591440,2307960,0
1712016596715,1712016591480,2305785,0
1712016596715,1712016591520,2304880,0
1712016596715,1712016591560,2304725,0
1712016596715,1712016591600,2305046,0
1712016596715,1712016591640,2305014,0
1712016596715,1712016591680,2305038,0
1712016596715,1712016591720,2305421,0
1712016596715,1712016591760,2306481,0
1712016596715,1712016591800,2308224,0
1712016596715,1712016591840,2310421,0
1712016596715,1712016591880,2312653,0
1712016596715,1712016591920,2315194,0
1712016596715,1712016591960,2317572,0
1712016596715,1712016592000,2318883,0
1712016596715,1712016592040,2314940,0
1712016596715,1712016592080,2309637,0
1712016596715,1712016592120,2306765,0
1712016596715,1712016592160,2305527,0
1712016596715,1712016592200,2305018,0
1712016596715,1712016592240,2305304,0
1712016596715,1712016592280,2305253,0
1712016596715,1712016592320,2304837,0
1712016596715,1712016592360,2305047,0
1712016596715,1712016592400,2305830,0
1712016596715,1712016592440,2307379,0
1712016596715,1712016592480,2309233,0
1712016596715,1712016592520,2311115,0
1712016596715,1712016592560,2313033,0
1712016596715,1712016592600,2315266,0
1712016596715,1712016592640,2317605,0
1712016596715,1712016592680,2319453,0
1712016596715,1712016592720,2316500,0
1712016596715,1712016592760,2311266,0
1712016596715,1712016592800,2307724,0
1712016596715,1712016592840,2306366,0
1712016596715,1712016592880,2306009,0
1712016596715,1712016592920,2306510,0
1712016596715,1712016592960,2306361,0
1712016596715,1712016593000,2306075,0
1712016596715,1712016593040,2305783,0
1712016596715,1712016593080,2306401,0
1712016596715,1712016593120,2307630,0
1712016596715,1712016593160,2309662,0
1712016596715,1712016593200,2311393,0
1712016596715,1712016593240,2313231,0
1712016596715,1712016593280,2314998,0
1712016596715,1712016593320,2317130,0
1712016596715,1712016593360,2319491,0
1712016596715,1712016593400,2321500,0
1712016596715,1712016593440,2318796,0
1712016596715,1712016593480,2312995,0
1712016596715,1712016593520,2309177,0
1712016596715,1712016593560,2307982,0
1712016596715,1712016593600,2307886,0
1712016596715,1712016593640,2308309,0
1712016596715,1712016593680,2308384,0
1712016596715,1712016593720,2307881,0
1712016596715,1712016593760,2307397,0
1712016596715,1712016593800,2307776,0
1712016596715,1712016593840,2308983,0
1712016596715,1712016593880,2310488,0
1712016596715,1712016593920,2312369,0
1712016596715,1712016593960,2314230,0
1712016596715,1712016594000,2315911,0
1712016596715,1712016594040,2317735,0
1712016596715,1712016594080,2319915,0
1712016596715,1712016594120,2322010,0
1712016596715,1712016594160,2321133,0
1712016596715,1712016594200,2315583,0
1712016596715,1712016594240,2311143,0
1712016596715,1712016594280,2309574,0
1712016596715,1712016594320,2309552,0
1712016596715,1712016594360,2310124,0
1712016596715,1712016594400,2310633,0
1712016596715,1712016594440,2310494,0
1712016596715,1712016594480,2310075,0
1712016596715,1712016594520,2310205,0
1712016596715,1712016594560,2311359,0
1712016596715,1712016594600,2313109,0
1712016596715,1712016594640,2314922,0
1712016596715,1712016594680,2316930,0
1712016596715,1712016594720,2318971,0
1712016596715,1712016594760,2320895,0
1712016596715,1712016594800,2323032,0
1712016596715,1712016594840,2325258,0
1712016596715,1712016594880,2325414,0
1712016596715,1712016594920,2320413,0
1712016596715,1712016594960,2315611,0
1712016596715,1712016595000,2314012,0
1712016596715,1712016595040,2314229,0
1712016596715,1712016595080,2314985,0
1712016596715,1712016595120,2315872,0
1712016596715,1712016595160,2316216,0
1712016596715,1712016595200,2315788,0
1712016596715,1712016595240,2315635,0
1712016596715,1712016595280,2316501,0
1712016596715,1712016595320,2318479,0
1712016596715,1712016595360,2320840,0
1712016596715,1712016595400,2323014,0
1712016596715,1712016595440,2325015,0
1712016596715,1712016595480,2326843,0
1712016596715,1712016595520,2328841,0
1712016596715,1712016595560,2331196,0
1712016596715,1712016595600,2331798,0
1712016596715,1712016595640,2327522,0
1712016596715,1712016595680,2323409,0
1712016596715,1712016595720,2321909,0
1712016596715,1712016595760,2322133,0
1712016596715,1712016595800,2323059,0
1712016596715,1712016595840,2324196,0
1712016596715,1712016595880,2324302,0
1712016596715,1712016595920,2324209,0
1712016596715,1712016595960,2324313,0
1712016596715,1712016596000,2325511,0
1712016596715,1712016596040,2327314,0
1712016596715,1712016596080,2329348,0
1712016596715,1712016596120,2331627,0
1712016596715,1712016596160,2333529,0
1712016596715,1712016596200,2335474,0
1712016596715,1712016596240,2337705,0
1712016596715,1712016596280,2339650,0
1712016596715,1712016596320,2338499,0
1712016596715,1712016596360,2333391,0
1712016596715,1712016596400,2330237,0
1712016596715,1712016596440,2329644,0
1712016596715,1712016596480,2330257,0
1712016596715,1712016596520,2331270,0
1712016596715,1712016596560,2332005,0
1712016596715,1712016596600,2332010,0
1712016596715,1712016596640,2331883,0
1712016608729,1712016596677,2332240,0
1712016608729,1712016596717,2333417,0
1712016608729,1712016596757,2335514,0
1712016608729,1712016596797,2337468,0
1712016608729,1712016596838,2339292,0
1712016608729,1712016596877,2341311,0
1712016608729,1712016596917,2343248,0
1712016608729,1712016596957,2345283,0
1712016608729,1712016596998,2345589,0
1712016608729,1712016597038,2341128,0
1712016608729,1712016597078,2336960,0
1712016608729,1712016597118,2335594,0
1712016608729,1712016597158,2336040,0
1712016608729,1712016597198,2336897,0
1712016608729,1712016597239,2337627,0
1712016608729,1712016597278,2337826,0
1712016608729,1712016597318,2337683,0
1712016608729,1712016597359,2337669,0
1712016608729,1712016597399,2338582,0
1712016608729,1712016597440,2340254,0
1712016608729,1712016597479,2342387,0
1712016608729,1712016597519,2344119,0
1712016608729,1712016597559,2345796,0
1712016608729,1712016597600,2347817,0
1712016608729,1712016597640,2349631,0
1712016608729,1712016597680,2350559,0
1712016608729,1712016597720,2346852,0
1712016608729,1712016597760,2342022,0
1712016608729,1712016597800,2340311,0
1712016608729,1712016597841,2340169,0
1712016608729,1712016597880,2340887,0
1712016608729,1712016597920,2341599,0
1712016608729,1712016597961,2341884,0
1712016608729,1712016598001,2341428,0
1712016608729,1712016598041,2341178,0
1712016608729,1712016598081,2341894,0
1712016608729,1712016598121,2343318,0
1712016608729,1712016598161,2345083,0
1712016608729,1712016598201,2346821,0
1712016608729,1712016598242,2348372,0
1712016608729,1712016598282,2350203,0
1712016608729,1712016598322,2352063,0
1712016608729,1712016598362,2353239,0
1712016608729,1712016598402,2350415,0
1712016608729,1712016598443,2345419,0
1712016608729,1712016598482,2342724,0
1712016608729,1712016598522,2342278,0
1712016608729,1712016598562,2342549,0
1712016608729,1712016598602,2343373,0
1712016608729,1712016598643,2343597,0
1712016608729,1712016598683,2343103,0
1712016608729,1712016598723,2342655,0
1712016608729,1712016598763,2343160,0
1712016608729,1712016598803,2344299,0
1712016608729,1712016598844,2345964,0
1712016608729,1712016598883,2347479,0
1712016608729,1712016598924,2348992,0
1712016608729,1712016598964,2350643,0
1712016608729,1712016599004,2352283,0
1712016608729,1712016599045,2353839,0
1712016608729,1712016599084,2352333,0
1712016608729,1712016599124,2347157,0
1712016608729,1712016599164,2343566,0
1712016608729,1712016599204,2342757,0
1712016608729,1712016599245,2342952,0
1712016608729,1712016599285,2343392,0
1712016608729,1712016599325,2343753,0
1712016608729,1712016599365,2343435,0
1712016608729,1712016599405,2342977,0
1712016608729,1712016599446,2343187,0
1712016608729,1712016599485,2344220,0
1712016608729,1712016599526,2345700,0
1712016608729,1712016599566,2347274,0
1712016608729,1712016599606,2348808,0
1712016608729,1712016599647,2350158,0
1712016608729,1712016599686,2351769,0
1712016608729,1712016599726,2353514,0
1712016608729,1712016599767,2354467,0
1712016608729,1712016599807,2350402,0
1712016608729,1712016599847,2345494,0
1712016608729,1712016599887,2343171,0
1712016608729,1712016599927,2342828,0
1712016608729,1712016599967,2342973,0
1712016608729,1712016600008,2343482,0
1712016608729,1712016600048,2343617,0
1712016608729,1712016600088,2343098,0
1712016608729,1712016600128,2342815,0
1712016608729,1712016600168,2343409,0
1712016608729,1712016600208,2346365,0
1712016608729,1712016600249,2347872,0
1712016608729,1712016600288,2349280,0
1712016608729,1712016600328,2350586,0
1712016608729,1712016600369,2352261,0
1712016608729,1712016600409,2354021,0
1712016608729,1712016600449,2354692,0
1712016608729,1712016600489,2350313,0
1712016608729,1712016600529,2345338,0
1712016608729,1712016600569,2343221,0
1712016608729,1712016600609,2342760,0
1712016608729,1712016600650,2342929,0
1712016608729,1712016600689,2343421,0
1712016608729,1712016600729,2343290,0
1712016608729,1712016600769,2342762,0
1712016608729,1712016600809,2342472,0
1712016608729,1712016600850,2343042,0
1712016608729,1712016600890,2344294,0
1712016608729,1712016600930,2345921,0
1712016608729,1712016600970,2347398,0
1712016608729,1712016601010,2348814,0
1712016608729,1712016601051,2350091,0
1712016608729,1712016601091,2351462,0
1712016608729,1712016601130,2353398,0
1712016608729,1712016601171,2354810,0
1712016608729,1712016601211,2352012,0
1712016608729,1712016601251,2346277,0
1712016608729,1712016601291,2342967,0
1712016608729,1712016601331,2341963,0
1712016608729,1712016601371,2341688,0
1712016608729,1712016601411,2341966,0
1712016608729,1712016601452,2341923,0
1712016608729,1712016601491,2341285,0
1712016608729,1712016601531,2340506,0
1712016608729,1712016601572,2340606,0
1712016608729,1712016601612,2341566,0
1712016608729,1712016601652,2342909,0
1712016608729,1712016601692,2344235,0
1712016608729,1712016601732,2345661,0
1712016608729,1712016601772,2347094,0
1712016608729,1712016601812,2348463,0
1712016608729,1712016601853,2350099,0
1712016608729,1712016601892,2352031,0
1712016608729,1712016601933,2353043,0
1712016608729,1712016601973,2348771,0
1712016608729,1712016602013,2343539,0
1712016608729,1712016602054,2341106,0
1712016608729,1712016602093,2340333,0
1712016608729,1712016602133,2340343,0
1712016608729,1712016602173,2340606,0
1712016608729,1712016602213,2340405,0
1712016608729,1712016602254,2339880,0
1712016608729,1712016602294,2339615,0
1712016608729,1712016602333,2339860,0
1712016608729,1712016602374,2340953,0
1712016608729,1712016602414,2342584,0
1712016608729,1712016602455,2343989,0
1712016608729,1712016602494,2345578,0
1712016608729,1712016602534,2346899,0
1712016608729,1712016602574,2348629,0
1712016608729,1712016602614,2350801,0
1712016608729,1712016602655,2352824,0
1712016608729,1712016602695,2350981,0
1712016608729,1712016602735,2345210,0
1712016608729,1712016602775,2341509,0
1712016608729,1712016602815,2340369,0
1712016608729,1712016602856,2340278,0
1712016608729,1712016602895,2340650,0
1712016608729,1712016602935,2340793,0
