Timestamp,Cleaned_PPG
1711005191261,0.0
1711005191299,0.0
1711005191340,0.0
1711005191379,0.0
1711005191419,0.0
1711005191459,0.0
1711005191500,0.0
1711005191541,0.0
1711005191580,0.0
1711005191620,0.0
1711005191660,0.0
1711005191700,0.0
1711005191741,0.0
1711005191780,0.0
1711005191821,0.0
1711005191861,0.0
1711005191901,0.0
1711005191942,0.0
1711005191981,0.0
1711005192021,0.0
1711005192061,0.0
1711005192102,0.0
1711005192143,0.0
1711005192182,0.0
1711005192222,0.0
1711005192262,0.0
1711005192302,0.0
1711005192343,0.0
1711005192382,0.0
1711005192422,0.0
1711005192463,0.0
1711005192503,0.0
1711005192544,2094241.0
1711005192583,1966856.9095101526
1711005192623,1847388.4965048311
1711005192663,1735550.847998694
1711005192703,1630510.059395546
1711005192744,1532119.4623027144
1711005192783,1439878.6909613959
1711005192823,1353284.2085047893
1711005192863,1272080.5692573194
1711005192903,1195977.849960911
1711005192945,1124458.6527733859
1711005192984,1057879.4070528825
1711005193024,994441.5369621462
1711005193064,929782.1558648981
1711005193104,866597.928743897
1711005193145,809108.1021486653
1711005193184,757104.9996578896
1711005193224,708475.4647180163
1711005193264,663492.3659968709
1711005193304,622621.6546396913
1711005193345,584901.2530396297
1711005193384,549150.3538214646
1711005193425,515248.15164167667
1711005193467,483658.32010176405
1711005193505,454741.24378297175
1711005193546,427631.02554785134
1711005193585,402262.1209402492
1711005193625,378756.6300730463
1711005193665,356385.0989671466
1711005193705,336673.9384164298
1711005193746,317162.8323492727
1711005193785,299016.4436833081
1711005193825,282793.0946864863
1711005193866,267871.5111087223
1711005193906,251640.33864680445
1711005193947,231681.22372457222
1711005193986,213013.33069073595
1711005194026,197500.0287905056
1711005194066,183555.2377378689
1711005194106,171945.3184922519
1711005194147,161973.38084130548
1711005194186,152798.22188676987
1711005194226,143597.88141713105
1711005194267,135064.33620393043
1711005194307,127762.43535177503
1711005194348,121570.93353828555
1711005194387,115476.84107010509
1711005194427,111008.78761457466
1711005194467,105429.42470088927
1711005194507,101193.27309456933
1711005194548,98184.24092821311
1711005194587,94811.7774244654
1711005194628,91655.24523948855
1711005194667,88526.4162041163
1711005194708,86334.33533513639
1711005194749,84167.09703160147
1711005194788,75805.28694990836
1711005194828,66701.18646305264
1711005194868,60139.867825576104
1711005194908,54950.655714120716
1711005194949,50913.429784999695
1711005194989,46650.2235594769
1711005195028,45046.96507087909
1711005195069,43568.5625791701
1711005195109,41473.58767771907
1711005195150,39670.898869704455
1711005195189,38468.06040735333
1711005195229,37564.251359228045
1711005195269,36473.58782379003
1711005195309,34568.54999668943
1711005195351,33024.20981979603
1711005195390,30509.162622350268
1711005195430,28928.242254559882
1711005195470,27050.612480067648
1711005195510,27254.366151718423
1711005195551,26226.190344329923
1711005195590,26398.14410982188
1711005195630,26075.354694637936
1711005195673,21560.26013372466
1711005195711,14014.639466200955
1711005195752,9810.492244196124
1711005195791,5810.6526607088745
1711005195831,1935.035775615368
1711005195871,-518.6514856261201
1711005195911,-1087.4204265014268
1711005195952,167.60536378063262
1711005195991,2590.6215420952067
1711005196031,3668.137274065055
1711005196072,4633.555138054304
1711005196112,6836.977104876656
1711005196153,9052.241333743557
1711005196192,11479.89062823914
1711005196232,13547.785021892749
1711005196272,16131.150303810835
1711005196312,17715.46157106757
1711005196353,19200.173807468265
1711005196392,20252.971085891128
1711005196433,20272.703301914036
1711005196473,15710.161618668586
1711005196513,9849.376400219742
1711005196554,5991.967496913392
1711005196593,3856.70648492733
1711005196633,1887.7521317005157
1711005196673,2142.6504127709195
1711005196713,3016.97579670744
1711005196755,4509.126918868162
1711005196794,4922.848099651746
1711005196834,6262.068823215552
1711005196874,7888.644036824815
1711005196914,9797.904139504768
1711005196955,11651.501799904741
1711005196994,14683.904719297774
1711005197035,15653.767031823285
1711005197075,16764.506194921676
1711005197115,18374.122319399845
1711005197156,20100.01228704583
1711005197195,21221.085411175154
1711005197235,20939.982394359075
1711005197276,20702.952764623333
1711005197316,20403.343026824296
1711005197357,17357.54922777554
1711005197396,8794.830828776117
1711005197436,2251.3105302285403
1711005197476,-2319.4358092285693
1711005197516,-5709.780609214678
1711005197557,-7912.5870827315375
1711005197597,-9002.427097790875
1711005197637,-8426.788354597054
1711005197677,-7672.2841983744875
1711005197717,-7082.404221420176
1711005197758,-5659.428505409509
1711005197797,-3423.9788591256365
1711005197838,-2026.695820292458
1711005197878,2128.0920632258058
1711005197918,4729.267109116539
1711005197959,7199.407421354204
1711005197998,9704.973607728723
1711005198038,12617.991494127084
1711005198078,15394.146689845249
1711005198119,17659.42983501777
1711005198160,17937.178240832407
1711005198199,17844.077729971148
1711005198239,18018.38266841555
1711005198279,17148.891619713046
1711005198319,12736.840896431357
1711005198361,5575.072151842061
1711005198400,757.0905114319175
1711005198440,-2677.9999992982484
1711005198480,-4394.260595487896
1711005198520,-5005.152587973513
1711005198561,-5585.036156556569
1711005198601,-4738.68378192652
1711005198641,-3774.729505026713
1711005198681,-3710.331913338043
1711005198721,-3501.3835183545016
1711005198762,-2559.468748102896
1711005198801,-942.3005629098043
1711005198841,305.5197117207572
1711005198881,1834.4625643803738
1711005198921,2738.1407830389217
1711005198963,2720.882468734868
1711005199002,3596.1854484295473
1711005199042,3347.789761760272
1711005199082,3920.3933341829106
1711005199122,1449.1811949163675
1711005199163,-5563.467631552368
1711005199202,-9588.458362010773
1711005199242,-11920.672493806574
1711005199282,-12690.833996594418
1711005199323,-14440.387100008316
1711005199364,-14322.113490154967
1711005199403,-14543.840932919644
1711005199443,-14058.391084567644
1711005199483,-13181.240954512265
1711005199523,-12263.304162558168
1711005199564,-10563.673648408614
1711005199603,-9165.314728789032
1711005199643,-7440.957361537963
1711005199684,-6230.244458078407
1711005199724,-4108.79123266926
1711005199765,-2896.8279770356603
1711005199804,-1670.8276975518093
1711005199844,184.25564018078148
1711005199884,1778.8173700096086
1711005199924,2642.1809844486415
1711005199965,6498.30667765066
1711005200004,2122.419934383128
1711005200045,-4143.150926171336
1711005200085,-8309.9135734085
1711005200125,-11737.574769841973
1711005200166,-13916.809579611756
1711005200205,-15223.49828336481
1711005200245,-15432.84430367779
1711005200285,-15550.621284459718
1711005200325,-14364.155027360655
1711005200366,-13918.543728687335
1711005200405,-12733.50014384184
1711005200445,-10598.582399282604
1711005200486,-9069.264775185846
1711005200526,-7187.751774019096
1711005200567,-5107.352947261184
1711005200606,-2823.9435943095013
1711005200646,-796.1189983263612
1711005200686,1513.667096146848
1711005200726,3514.193787496537
1711005200767,4961.1014550877735
1711005200806,6488.802198539488
1711005200846,8389.534492872655
1711005200887,6858.458374985494
1711005200927,-58.2765849228017
1711005200968,-5295.5565447872505
1711005201007,-8502.736899204552
1711005201047,-10798.642368998379
1711005201087,-13013.877804166637
1711005201127,-13199.618295150343
1711005201168,-13099.904571737163
1711005201207,-11797.867099018302
1711005201248,-13830.513157867827
1711005201288,-13480.46338029392
1711005201328,-11467.593810873572
1711005201369,-10263.54847527109
1711005201408,-8514.71136267297
1711005201448,-6587.074207591824
1711005201488,-5104.221288946457
1711005201528,-8386.185852315277
1711005201569,-9111.809117300436
1711005201609,-7757.307187448256
1711005201649,-5749.0580100049265
1711005201689,-4671.143416918814
1711005201729,-7923.5523537918925
1711005201770,-12288.148310451768
1711005201809,-15304.753766541835
1711005201849,-17666.161174878012
1711005201889,-19459.23021332966
1711005201930,-16586.217943813186
1711005201971,-16719.699176246766
1711005202010,-15931.332389897201
1711005202050,-14295.19659249438
1711005202090,-12486.814873526804
1711005202130,-11018.07076283684
1711005202171,-9143.99140815856
1711005202210,-5498.887803884223
1711005202250,-2254.0295478282496
1711005202291,693.6633773013018
1711005202331,3618.230435602367
1711005202372,7334.593214833178
1711005202411,11111.100074514747
1711005202451,14624.726195201743
1711005202491,18866.81259247521
1711005202531,23546.659610292874
1711005202573,27632.532190075144
1711005202612,23294.535242393613
1711005202652,18753.394939771388
1711005202692,15816.880113332532
1711005202732,13734.780361404642
1711005202773,12164.075265242252
1711005202812,17507.544954137877
1711005202853,20541.789502991363
1711005202893,20944.391323042568
1711005202933,21064.316295479424
1711005202974,21567.155664507765
1711005203013,21872.473535092548
1711005203053,22693.099225419108
1711005203093,23459.697535863146
1711005203134,23725.619685811922
1711005203175,24553.035546872765
1711005203214,22170.47152141016
1711005203254,23757.1582063213
1711005203292,24239.384736798704
1711005203332,24690.026604688726
1711005203373,24390.150848262012
1711005203413,24052.429164103232
1711005203453,23419.0035815374
1711005203493,23274.747518901248
1711005203533,22365.999083083123
1711005203574,16091.030332980212
1711005203613,7999.134500187822
1711005203654,1665.5341080953367
1711005203694,-3160.899640777614
1711005203734,-6617.475677635055
1711005203775,-10461.606180760078
1711005203814,-12026.935854693409
1711005203854,-12585.894292687997
1711005203895,-13199.403298542835
1711005203935,-14219.031301645562
1711005203976,-14283.097875326872
1711005204015,-13920.852958412375
1711005204055,-13489.65144024184
1711005204095,-12198.553287847899
1711005204136,-10668.715680208057
1711005204177,-9091.914666897617
1711005204216,-8060.612822460476
1711005204256,-7349.74023293145
1711005204296,-5222.388054819312
1711005204336,-4968.352244196925
1711005204377,-4163.220012564212
1711005204416,-3336.061720246915
1711005204457,-4387.336189567577
1711005204497,-9340.690287807025
1711005204537,-13670.918277444318
1711005204578,-16123.72391969338
1711005204617,-18151.371353805996
1711005204657,-19450.20414530672
1711005204698,-19156.404811169952
1711005204738,-18854.62558689434
1711005204779,-18486.58437150484
1711005204818,-17503.87298407592
1711005204858,-16468.96440713806
1711005204898,-15177.654034787789
1711005204939,-14156.08621502854
1711005204980,-12275.07276620809
1711005205019,-11321.105688117445
1711005205059,-10095.81153534865
1711005205099,-7998.698123803362
1711005205139,-7347.393915737048
1711005205180,-5911.749779905658
1711005205219,-4079.13813856896
1711005205259,-4838.390004528686
1711005205299,-9906.705901658162
1711005205340,-13623.01736773504
1711005205381,-17036.70444721356
1711005205420,-18606.893664730713
1711005205460,-20134.770341943018
1711005205500,-20123.945330468472
1711005205540,-19573.4480232317
1711005205581,-19916.740776471328
1711005205620,-18661.602670336142
1711005205660,-17401.51803415036
1711005205701,-14757.245452072937
1711005205741,-12730.640501762275
1711005205782,-10527.89816513611
1711005205821,-8440.485070460942
1711005205861,-6559.9195661097765
1711005205901,-4826.490387388505
1711005205941,-2870.456921789795
1711005205982,-1021.1201168675907
1711005206021,1430.2307604034431
1711005206061,3076.6110657551326
1711005206101,4981.994353501126
1711005206141,4642.180950475857
1711005206183,-1017.2158884843811
1711005206222,-6059.289063169155
1711005206262,-9150.43702874519
1711005206302,-11737.460155207664
1711005206342,-13430.750900722109
1711005206383,-15476.486201543827
1711005206422,-15127.451946439687
1711005206462,-15280.275567220524
1711005206503,-16103.13851754088
1711005206543,-16074.976633172948
1711005206584,-14461.037127825897
1711005206623,-13772.478211940266
1711005206663,-11804.549599674996
1711005206703,-10479.631396775134
1711005206743,-8644.40583994938
1711005206784,-6364.868959882762
1711005206824,-3990.609325582627
1711005206864,-1532.3198317899369
1711005206904,885.6134802822489
1711005206944,3378.456037356518
1711005206985,5186.597614272963
1711005207024,7720.718145178631
1711005207064,9503.515722893178
1711005207104,5705.937119469279
1711005207145,221.2250329083763
1711005207185,-3103.365124918986
1711005207225,-4713.372154378798
1711005207265,-5163.326873332728
1711005207305,-5551.649081110023
1711005207345,-4420.7971034136135
1711005207386,-2170.705970100593
1711005207425,-945.4151646522805
1711005207466,1660.2595105906948
1711005207506,4880.079289244488
1711005207546,7565.449813315645
1711005207587,10812.271880637389
1711005207626,13980.636366544757
1711005207666,16920.84809030965
1711005207706,18735.219385819975
1711005207747,19726.061148370383
1711005207787,20473.756931132637
1711005207827,19813.101762314327
1711005207867,18569.539243964013
1711005207907,15124.905227910727
1711005207947,8165.488547338173
1711005207988,-847.5486927805468
1711005208027,-7957.225458997302
1711005208068,-12929.375694070943
1711005208108,-17825.539225416724
1711005208148,-22202.355227677617
1711005208189,-26293.45488880668
1711005208228,-27034.19148625154
1711005208268,-26340.81929980684
1711005208308,-25520.320729250554
1711005208349,-23443.595959861297
1711005208389,-20504.155870997347
1711005208429,-17662.438135336153
1711005208469,-14714.638945135288
1711005208509,-12674.089707407635
1711005208549,-10581.488645004341
1711005208590,-7419.385632629972
1711005208630,-4509.2320733095985
1711005208670,-1939.0448555559851
1711005208710,985.1517632096075
1711005208750,3216.4386253645644
1711005208791,5262.166778806131
1711005208830,2030.7491064337082
1711005208870,-4503.325621879194
1711005208911,-9815.711277152877
1711005208951,-14008.087253916543
1711005208992,-17447.08053035452
1711005209031,-19584.97418201063
1711005209071,-20267.174684350146
1711005209111,-19738.574191466905
1711005209151,-20003.635595811065
1711005209192,-18151.057633831166
1711005209232,-17850.740956129506
1711005209272,-16445.543981298804
1711005209312,-15324.168510977644
1711005209352,-16387.16436618846
1711005209393,-15653.050443900283
1711005209433,-14155.18427456962
1711005209473,-11456.319629674777
1711005209513,-9561.232398549095
1711005209553,-7548.410554226022
1711005209594,-5598.199467055965
1711005209633,-4290.904407887254
1711005209673,-2496.29301373614
1711005209713,-3015.5765866755974
1711005209754,-8163.52297846647
1711005209795,-13329.251782459207
1711005209834,-18203.08582938672
1711005209874,-21449.627673429437
1711005209914,-24311.87170696212
1711005209954,-25927.156507404055
1711005209995,-25219.038265237352
1711005210035,-24351.357515854295
1711005210075,-22905.775120565202
1711005210115,-21609.370945909992
1711005210155,-19819.788239239715
1711005210196,-16957.126020352123
1711005210236,-14114.386137328576
1711005210276,-9689.516757416073
1711005210316,-6026.765197788831
1711005210356,-3244.144982826896
1711005210397,-148.34911342104897
1711005210436,3136.7864659898914
1711005210476,6350.024394930573
1711005210517,9044.082527867518
1711005210557,7808.193935238756
1711005210598,3049.3195794108324
1711005210637,-277.6685109168757
1711005210677,-3871.5179938012734
1711005210717,-6309.4237511274405
1711005210758,-7442.441791421268
1711005210798,-7716.200878757518
1711005210838,-7998.217637107708
1711005210878,-7003.385506970342
1711005210918,-5890.148396611214
1711005210958,-5386.142537605483
1711005210999,-3429.18378677126
1711005211038,-1248.927446701331
1711005211078,1570.5214970144443
1711005211118,4035.855395499151
1711005211158,5660.097783105448
1711005211199,7659.87114984123
1711005211239,9821.079921641387
1711005211279,10462.471469593234
1711005211319,10739.189074040623
1711005211359,11121.205548814498
1711005211400,13258.185562542407
1711005211439,11526.961676707957
1711005211479,5398.836543595418
1711005211519,1089.098283095751
1711005211559,-3495.3022825936787
1711005211600,-7184.085729009006
1711005211639,-10323.561055050697
1711005211680,-11367.69931574678
1711005211720,-10816.402304854244
1711005211760,-10855.570677961223
1711005211801,-11086.020676797256
1711005211840,-11156.122114949394
1711005211880,-9925.149886533618
1711005211920,-8795.767047243193
1711005211960,-7645.960860596504
1711005212001,-6099.032928118017
1711005212041,-4816.832742145751
1711005212081,-3034.115624450147
1711005212121,-785.5168739096262
1711005212161,472.90050147031434
1711005212202,2305.0234912857413
1711005212241,4790.796462124214
1711005212281,6536.497872841079
1711005212321,7766.328780396376
1711005212361,8558.145114654908
1711005212402,6852.75155518949
1711005212442,1336.6860325108282
1711005212482,-3543.704688761849
1711005212522,-7084.394724069163
1711005212562,-9185.379943984095
1711005212603,-11046.641926407348
1711005212642,-12179.432350911433
1711005212682,-11836.34855531482
1711005212722,-11725.670293810312
1711005212763,-11703.81322179269
1711005212804,-11244.767292188946
1711005212843,-9411.245761856204
1711005212883,-6861.502222007373
1711005212923,-4025.635448884219
1711005212963,-2091.6038198349997
1711005213004,-2350.8859672248363
1711005213043,-3049.457913239952
1711005213083,-1530.7261658478528
1711005213124,2618.65645999508
1711005213164,7904.972288154531
1711005213204,13693.798540879507
1711005213244,21640.319443462417
1711005213284,22433.76423358824
1711005213324,16588.599257417256
1711005213364,10919.135359579232
1711005213405,6438.72318489477
1711005213444,3685.4562831283547
1711005213485,1296.0765804396942
1711005213525,769.5682724611834
1711005213565,1155.2636461206712
1711005213606,1913.113115336746
1711005213645,2394.0416688593104
1711005213685,3341.6719388833735
1711005213725,4267.119943037629
1711005213766,6360.7107565072365
1711005213806,7901.093657496152
1711005213846,8837.371627794113
1711005213886,10654.964563258924
1711005213926,12198.906287055928
1711005213966,13659.590907977428
1711005214007,15881.820327264257
1711005214046,16896.7256046189
1711005214086,18426.77374684019
1711005214127,20229.494783752132
1711005214167,20907.22579502128
1711005214208,20865.706556826597
1711005214247,16809.474445465952
1711005214287,15509.02193632652
1711005214327,16166.879645594861
1711005214367,15512.395440007327
1711005214408,12605.971113420557
1711005214448,10078.27867482393
1711005214488,7740.081235523103
1711005214528,3391.330797420582
1711005214568,4433.242278179154
1711005214609,8301.2560411077
1711005214648,12200.83931717393
1711005214688,16666.926415607333
1711005214729,19561.400980133563
1711005214769,22226.641100933542
1711005214809,23345.738892941503
1711005214849,25555.489317765925
1711005214889,26347.436434167437
1711005214929,27611.647238346748
1711005214969,29638.54198974371
1711005215010,31494.124583035707
1711005215049,33469.98091479251
1711005215090,35473.57717413688
1711005215130,36737.050695598125
1711005215170,31991.507080899086
1711005215211,24806.081388408318
1711005215250,19083.108981222613
1711005215290,15435.92020251276
1711005215330,13933.729085860774
1711005215370,12641.376130786259
1711005215411,11735.49154131487
1711005215451,11833.091331659816
1711005215491,10733.29899489833
1711005215531,11128.11201075185
1711005215571,11407.954548511654
1711005215612,11282.358456652146
1711005215651,11214.152011319995
1711005215692,11688.129375940189
1711005215732,12786.782806081232
1711005215772,13961.540754201822
1711005215813,15923.805183490738
1711005215852,18114.01181510184
1711005215892,20582.104678480886
1711005215932,22827.387714674696
1711005215972,23114.334743358195
1711005216013,21412.21397212241
1711005216053,17575.000517275184
1711005216093,13279.513461237308
1711005216133,10670.663919751998
1711005216173,9880.943452206906
1711005216214,10529.205717866775
1711005216253,11046.534340366721
1711005216294,11966.612406529486
1711005216334,12603.018840015866
1711005216374,12854.725636560004
1711005216415,14159.31916985754
1711005216454,15533.821297683287
1711005216494,16878.661469093524
1711005216535,17595.595834199805
1711005216575,17500.604395713657
1711005216616,17280.568154116627
1711005216655,17497.376918743365
1711005216695,17793.4783800235
1711005216735,17212.57522642985
1711005216776,17512.92001270037
1711005216816,17803.383836016525
1711005216856,18352.15986582823
1711005216896,15169.648945366032
1711005216936,8898.844305537641
1711005216976,4117.447648421396
1711005217017,-26.584652246441692
1711005217056,-1887.7324952068739
1711005217097,-2543.8427138105035
1711005217137,-2843.2573678335175
1711005217177,-4204.594502656721
1711005217218,-3876.9345657145604
1711005217257,-3711.466404011473
1711005217297,-3553.214260268025
1711005217337,-2746.189771494828
1711005217377,-1570.78278035298
1711005217418,-842.067242550198
1711005217457,136.1473510027863
1711005217498,909.0367859201506
1711005217538,2050.33056266699
1711005217578,3396.135124019813
1711005217619,4572.686744357925
1711005217658,6718.872222461738
1711005217698,8136.263533693738
1711005217738,8106.768327854108
1711005217778,2719.0377728007734
1711005217819,-3697.7451573889703
1711005217859,-7414.3317491519265
1711005217898,-9041.102691594511
1711005217939,-9462.35406481428
1711005217979,-10806.277713365853
1711005218019,-11906.213683289941
1711005218059,-13066.194784174673
1711005218099,-14972.615281471983
1711005218139,-15891.898562544957
1711005218179,-14299.522472111508
1711005218220,-12414.496841405518
1711005218259,-11652.439753140323
1711005218299,-10971.61086121155
1711005218340,-10191.827371275984
1711005218380,-8983.381263871677
1711005218420,-8423.771790964529
1711005218460,-6682.785695255268
1711005218500,-6202.6616065735
1711005218540,-5001.627514174208
1711005218580,-3301.0521134743467
1711005218621,-4647.584760140628
1711005218660,-10504.969807832502
1711005218701,-16064.80811939761
1711005218741,-21197.571656620596
1711005218781,-25887.766276773065
1711005218822,-29459.16652252106
1711005218861,-31567.964910811745
1711005218901,-32749.03370075021
1711005218941,-33474.580009289086
1711005218981,-34222.35464960383
1711005219022,-33923.50089306058
1711005219062,-33175.277422508225
1711005219101,-30869.934469819535
1711005219142,-29773.528914050665
1711005219182,-29204.804340240546
1711005219223,-28619.76567863673
1711005219262,-26127.63244176889
1711005219302,-22973.53400077345
1711005219342,-18581.58971837489
1711005219382,-14129.394498521462
1711005219423,-10893.613228529692
1711005219463,-10400.612712973496
1711005219503,-10374.793997979956
1711005219543,-13786.770577443298
1711005219583,-18351.783035777742
1711005219624,-22861.31623798865
1711005219663,-27637.881179509684
1711005219703,-31180.496352390153
1711005219743,-35192.39179956564
1711005219784,-35499.858576894505
1711005219824,-34968.74744765973
1711005219864,-34762.63526372053
1711005219904,-33974.55988783343
1711005219944,-32851.848930526525
1711005219984,-30877.469200159656
1711005220025,-28396.160745667294
1711005220064,-25278.806816849858
1711005220105,-22292.66099502123
1711005220145,-19887.4631999915
1711005220185,-16247.980133852456
1711005220226,-13559.202620442724
1711005220265,-11241.015080126934
1711005220305,-8355.800049890997
1711005220345,-6251.161178970942
1711005220386,-3643.5716860797256
1711005220426,-3581.9393247254193
1711005220466,-8303.698227644898
1711005220506,-12630.452538007405
1711005220546,-14950.393662434304
1711005220586,-16699.82358141616
1711005220627,-18587.09341133572
1711005220666,-18217.71723545622
1711005220707,-16985.039337256923
1711005220747,-15100.879960893653
1711005220787,-13523.62085755961
1711005220828,-12280.23826434277
1711005220867,-12988.28140518628
1711005220907,-11952.222386184148
1711005220947,-10681.33028871892
1711005220988,-9089.8816213198
1711005221028,-6444.138065217063
1711005221068,-4226.961250764318
1711005221108,-2168.20816542767
1711005221148,367.1065276847221
1711005221188,3359.6988527097274
1711005221229,4842.34786372399
1711005221269,1464.8168421699665
1711005221309,-3784.2304835557006
1711005221349,-7827.408667923417
1711005221389,-10817.963644532021
1711005221430,-12213.283606256591
1711005221470,-13650.413985173218
1711005221510,-13435.823005738901
1711005221550,-13079.705754877301
1711005221590,-13175.645828934852
1711005221631,-11428.413136693183
1711005221670,-9652.0342768447
1711005221710,-7347.6578601838555
1711005221750,-5737.81111823325
1711005221791,-3576.00562801701
1711005221832,-2313.807840065798
1711005221871,92.88612281391397
1711005221911,2884.738749433309
1711005221951,4211.719089795835
1711005221991,361.9544282243587
1711005222032,-4165.050569606479
1711005222072,-8015.144719719654
1711005222112,-10078.011222952046
1711005222152,-10658.579083879245
1711005222192,-10594.072760212002
1711005222233,-9262.503519596998
1711005222272,-8394.062539537204
1711005222313,-7135.809102944564
1711005222353,-6039.987737051677
1711005222393,-4388.975630628411
1711005222434,-3262.060533301439
1711005222473,-1588.3369763444643
1711005222513,540.7052074735984
1711005222554,2449.7308492255397
1711005222594,4821.504629382398
1711005222635,7200.731172696687
1711005222674,9626.46584380581
1711005222714,9420.116196159739
1711005222754,5366.023456593044
1711005222795,453.67090127803385
1711005222835,-2836.468443660997
1711005222875,-5368.674004391534
1711005222915,-7191.547432325548
1711005222955,-7113.1887529303785
1711005222995,-6418.868645230075
1711005223036,-3232.473169548437
1711005223076,-408.8669038389344
1711005223116,2047.5170051970053
1711005223156,4347.382955748122
1711005223196,5938.736194813158
1711005223237,8103.199864905095
1711005223276,11019.653018411249
1711005223316,13024.728493490256
1711005223356,14322.089345811633
1711005223397,15699.674191777129
1711005223437,17514.529764062725
1711005223477,19569.874529008754
1711005223517,21063.36298910482
1711005223557,17425.97027388797
1711005223597,12292.025203060359
1711005223638,9139.483923030552
1711005223677,7035.005421833368
1711005223717,5771.970589546487
1711005223758,4946.372500264086
1711005223798,5999.199948241003
1711005223839,9495.36797108734
1711005223878,11814.023992208065
1711005223918,14508.347611061996
1711005223958,17166.142638037447
1711005223998,20018.71389112505
1711005224039,21132.713464065455
1711005224079,21811.289143213537
1711005224119,21826.889821972465
1711005224159,22494.152221795637
1711005224199,23468.2924241242
1711005224240,26127.396064482164
1711005224279,28953.879900368396
1711005224319,25346.417952605058
1711005224359,21553.479205215815
1711005224399,14395.227943242528
1711005224440,8977.237588760443
1711005224480,6302.2925149933435
1711005224520,3440.5199950588867
1711005224560,1981.9972767569125
1711005224600,1634.1458870864008
1711005224641,2257.699483882636
1711005224680,2125.295033519389
1711005224720,2702.766110787634
1711005224760,3259.834299715003
1711005224801,4647.996012402466
1711005224842,6059.281035922002
1711005224881,6862.745115159079
1711005224921,7207.237237744033
1711005224961,7871.595203981269
1711005225001,9371.519879669882
1711005225042,11571.012318001129
1711005225082,13051.183512363816
1711005225122,12549.770526962122
1711005225162,13968.625911460724
1711005225202,10182.502142923186
1711005225243,4730.3268423711415
1711005225282,475.21512690605596
1711005225322,-2262.2078514108434
1711005225362,-4632.2939592027105
1711005225402,-6708.132522867294
1711005225443,-7154.301072147209
1711005225483,-6720.98117120401
1711005225523,-8660.085913612507
1711005225563,-10278.094547636807
1711005225603,-7850.581083595054
1711005225644,-9286.36153636896
1711005225683,-6475.721492319368
1711005225723,-3948.825085251592
1711005225764,-1074.0895160925575
1711005225804,2104.1484748029616
1711005225845,5033.833155686501
1711005225884,8841.136910390109
1711005225924,10609.426234890241
1711005225964,13037.169700785307
1711005226004,15208.87666060892
1711005226045,15938.6107951554
1711005226085,12265.898426438216
1711005226125,7975.188788802363
1711005226165,5867.968577433843
1711005226205,6886.106547996169
1711005226246,7881.618857792113
1711005226285,9152.60279048793
1711005226325,9539.673933663405
1711005226366,9085.623246144038
1711005226406,9166.673653549049
1711005226447,9502.40961000463
1711005226486,10693.972088815644
1711005226526,11379.313882139977
1711005226566,11416.824411176378
1711005226607,11964.078963769134
1711005226647,12654.62053773622
1711005226687,14701.940712511074
1711005226727,15686.787353000604
1711005226767,18135.552014914807
1711005226807,13654.30158463819
1711005226848,8500.012086617062
1711005226888,4849.5891492979135
1711005226928,2592.0294566121884
1711005226968,191.02221445040777
1711005227008,-261.75541534181684
1711005227049,-546.4866913277656
1711005227088,-1132.7037497851998
1711005227129,-1448.6887124229688
1711005227169,-1650.731732154265
1711005227209,467.1649980689399
1711005227250,1916.90886973124
1711005227289,2333.1983600384556
1711005227329,3502.9154834351502
1711005227369,3946.606634157244
1711005227409,4803.445587782655
1711005227450,5175.793463333044
1711005227490,5951.897341880482
1711005227530,4741.805945102125
1711005227570,-989.6311470922083
1711005227610,-4727.933434752282
1711005227651,-7204.738076300127
1711005227690,-8999.003074324224
1711005227731,-10669.742493765429
1711005227771,-10638.523785378551
1711005227811,-10403.85292329383
1711005227852,-10246.081551306881
1711005227891,-10414.929853198119
1711005227931,-9807.782047862187
1711005227971,-9468.795061984565
1711005228011,-7758.043550359551
1711005228052,-8271.72429861268
1711005228092,-6060.210401279386
1711005228132,-4007.74995756289
1711005228172,-2894.396911919117
1711005228212,-1839.2067383585963
1711005228253,-370.92477447493
1711005228293,2059.5750493700616
1711005228333,2573.850866462104
1711005228373,-2024.2903353713918
1711005228413,-6698.226091384422
1711005228454,-10034.260504255071
1711005228493,-12777.17586641619
1711005228534,-14707.88898953516
1711005228574,-14862.84849985619
1711005228614,-14612.578841992887
1711005228655,-14134.046779038385
1711005228694,-14284.592765933834
1711005228734,-13647.748128537554
1711005228775,-12124.134782728739
1711005228815,-10586.412952916697
1711005228856,-6663.561962970998
1711005228895,-4094.808324098354
1711005228935,-1164.1989420216996
1711005228975,844.708991181571
1711005229015,3761.9045978477225
1711005229056,6056.477698839735
1711005229095,7638.063293649349
1711005229135,10044.999479687773
1711005229176,12185.164218015037
1711005229216,13628.999242270365
1711005229256,10429.389505858067
1711005229296,6210.684672788717
1711005229336,2867.212392131798
1711005229376,863.8484018649906
1711005229416,-1131.3810684331693
1711005229457,-1706.466138300486
1711005229496,-2063.9779890333302
1711005229537,-2229.8664446480107
1711005229577,-3408.200130988611
1711005229617,-3777.302740048617
1711005229658,-3458.6633104635403
1711005229697,-2763.0177714028396
1711005229737,-1657.1901045166887
1711005229777,-639.3485250519589
1711005229817,27.259135171072558
1711005229858,564.3851943593472
1711005229898,1005.310439337045
1711005229937,1340.9207886615768
1711005229978,2123.010686890222
1711005230018,3482.9945108392276
1711005230058,4437.735212459695
1711005230098,4821.141603965778
1711005230138,261.98195698298514
1711005230178,-5309.881110077491
1711005230218,-9247.202766725793
1711005230259,-11993.93107246817
1711005230298,-14081.304724493064
1711005230338,-14959.027958392398
1711005230379,-14471.266896029236
1711005230419,-13637.870477479883
1711005230460,-13522.67981718015
1711005230499,-12466.485245134216
1711005230539,-11514.945545604452
1711005230579,-10826.914879962802
1711005230619,-9191.053079276346
1711005230660,-8022.8577222991735
1711005230700,-5386.059091247618
1711005230740,-4306.295249674702
1711005230780,-2855.8799232721794
1711005230820,-1566.2800030894578
1711005230861,-456.7864548927173
1711005230900,545.3299042806029
1711005230940,-3072.8252077400684
1711005230981,-6907.981780169532
1711005231021,-9368.455533406464
1711005231061,-11052.371530020144
1711005231101,-10884.773301142734
1711005231141,-9340.066396807553
1711005231181,-8122.292629365576
1711005231221,-8121.2410024157725
1711005231262,-7701.639423730783
1711005231301,-7733.9403016828
1711005231342,-7226.824846300064
1711005231382,-6275.567274901317
1711005231422,-5479.173300805967
1711005231463,-3970.6907218974084
1711005231502,-2921.5732598970644
1711005231542,-1786.2118426794186
1711005231582,-850.4850194067694
1711005231622,601.0778232596349
1711005231663,1766.0299325422384
1711005231703,-1788.6571201896295
1711005231743,-6678.921112223063
1711005231783,-10277.397824163316
1711005231823,-12873.231335826684
1711005231864,-14884.852405109443
1711005231903,-15708.868008673657
1711005231943,-15393.142724128906
1711005231983,-15187.140900621423
1711005232023,-14709.19064266514
1711005232064,-13918.918060754426
1711005232104,-12702.101209624205
1711005232144,-11213.035302235046
1711005232184,-9901.832418766106
1711005232224,-8522.291819356848
1711005232265,-6680.497001023963
1711005232304,-4978.938927917741
1711005232344,-1767.0061080683954
1711005232385,-506.4913769955747
1711005232425,160.95892838807777
1711005232466,1307.4631701014005
1711005232505,1981.5937290333677
1711005232545,-2196.946169118397
1711005232585,-6504.873938662931
1711005232625,-10099.971812313888
1711005232666,-12804.39495576825
1711005232706,-14908.031170029659
1711005232746,-16217.927137437044
1711005232786,-16134.03998496104
1711005232826,-16267.201668493217
1711005232867,-16078.933266415726
1711005232907,-15397.89062996488
1711005232947,-14419.373400093988
1711005232987,-12536.143827640917
1711005233027,-10454.223826349946
1711005233068,-8489.442994912155
1711005233107,-6743.118579333648
1711005233148,-4125.897554653231
1711005233188,-1039.6685667270795
1711005233228,2401.7993299167138
1711005233269,5183.862855649553
1711005233308,7617.185789221898
1711005233348,10351.08307711361
1711005233388,9618.536904705688
1711005233428,5552.106488556834
1711005233469,1913.9448379576206
1711005233509,-136.1899220214691
1711005233549,-2006.9620465361513
1711005233589,-2724.0266958158463
1711005233629,-2560.4495984213427
1711005233670,-1492.5680143348873
1711005233710,-248.3728681972716
1711005233750,1312.6535201028455
1711005233790,3034.491773678921
1711005233830,3995.5738248201087
1711005233871,5157.064267180394
1711005233910,6475.805762922391
1711005233951,7175.990112169646
1711005233991,8146.765090192435
1711005234031,8415.09030697262
1711005234072,8896.150798377814
1711005234111,9231.037166080903
1711005234151,9884.465105211362
1711005234191,9168.91572794225
1711005234232,7235.406467174878
1711005234272,2049.1351749100722
1711005234312,-1914.2657440702897
1711005234352,-4621.754511199426
1711005234392,-6381.0659872207325
1711005234432,-7517.879419428762
1711005234473,-8053.38585034362
1711005234513,-8345.812970296945
1711005234553,-8974.17060685018
1711005234593,-8967.99149062112
1711005234633,-8507.690809220541
1711005234674,-7919.422447596677
1711005234714,-6899.0829122578725
1711005234754,-4654.116127612069
1711005234794,-2539.6137140379287
1711005234834,-647.7947394698858
1711005234875,1218.223213029094
1711005234914,2673.0534603837878
1711005234954,3276.741974565666
1711005234994,-355.88318550167605
1711005235034,-3577.6983789666556
1711005235075,-5801.675159014296
1711005235114,-5660.331695844885
1711005235155,-5978.667405358981
1711005235195,-4635.555665004998
1711005235235,-3131.213935690932
1711005235276,-1981.414908671286
1711005235315,-86.03887742059305
1711005235355,3105.0003170622513
1711005235395,6071.664438327309
1711005235435,8527.819557642099
1711005235476,11969.548147839028
1711005235515,14159.476923031732
1711005235556,15227.420122126117
1711005235596,15286.057099973783
1711005235636,15660.05816292041
1711005235677,15980.601705084555
1711005235716,16798.294830012135
1711005235756,17357.282056299504
1711005235796,16614.59754082933
1711005235836,10586.66545227822
1711005235877,5005.571332493564
1711005235917,1117.9622792068403
1711005235957,-1999.7870840996038
1711005235997,-4415.289729367476
1711005236037,-5252.023782961303
1711005236078,-5727.44793149177
1711005236117,-5773.760818666313
1711005236157,-5497.191774741048
1711005236197,-4029.2928131017834
1711005236238,-2317.0326777272858
1711005236278,-771.3255401453935
1711005236318,958.2608759147115
1711005236358,3337.6642826702446
1711005236398,5138.59533391986
1711005236438,7290.652546074241
1711005236479,9199.01304674754
1711005236518,11322.373268598923
1711005236558,13243.02425333066
1711005236599,15314.589029210387
1711005236639,18180.939241598826
1711005236680,21886.430036856327
1711005236719,22599.325347116683
1711005236759,16992.288768440718
1711005236799,12146.101045803633
1711005236839,9636.097367129289
1711005236880,8075.963725789916
1711005236919,6173.952284543309
1711005236960,6424.325497884303
1711005237000,5187.69448641059
1711005237040,4169.812129165512
1711005237081,4004.368954682257
1711005237120,3820.6740023563616
1711005237160,2965.009358660551
1711005237200,1968.4109911746345
1711005237241,1321.7768215727992
1711005237281,812.7925321646035
1711005237321,1079.2617066483945
1711005237361,1174.9255459553096
1711005237401,1275.9349034756888
1711005237441,1706.0795986885205
1711005237482,1947.3356305495836
1711005237521,2411.2965835914947
1711005237561,253.76102093607187
1711005237602,-4473.281568055041
1711005237642,-8554.454769116826
1711005237682,-10749.078070129734
1711005237722,-12924.132025070023
1711005237762,-14354.114443307277
1711005237802,-14223.97862736974
1711005237842,-13806.13046035706
1711005237883,-14368.76436072844
1711005237923,-14094.352317672456
1711005237963,-14424.330568268895
1711005238003,-13099.990616835654
1711005238043,-11735.522990344092
1711005238084,-11113.671351228608
1711005238123,-9831.946655359352
1711005238163,-8621.55686513707
1711005238203,-7134.068484362913
1711005238243,-6348.728388953954
1711005238284,-4073.630616636481
1711005238324,-2352.6466158158146
1711005238364,-781.0287361387163
1711005238404,892.6531003513373
1711005238444,1671.1394716915675
1711005238485,-2955.089682841208
1711005238524,-7580.095790309133
1711005238565,-10676.294740836602
1711005238605,-14090.886780251516
1711005238645,-16764.771445785882
1711005238686,-17876.16045359196
1711005238725,-18092.1929456559
1711005238765,-18258.763137965463
1711005238806,-18139.79687931505
1711005238846,-17285.570347090717
1711005238886,-16601.77536719758
1711005238926,-15052.604378631338
1711005238966,-13916.780919802375
1711005239006,-12164.593529654201
1711005239046,-10012.375665531494
1711005239087,-7823.7990265474655
1711005239126,-6455.17843414098
1711005239167,-4547.182497172849
1711005239207,-3020.227998893708
1711005239247,-899.820691362489
1711005239288,1422.8306447232608
1711005239327,3458.5386714930646
1711005239367,5561.496867577778
1711005239407,4119.169543558033
1711005239447,-983.0644626703579
1711005239488,-4377.737529230071
1711005239528,-6882.810213054065
1711005239568,-9202.463195706252
1711005239608,-10735.144778524525
1711005239648,-10668.94851268502
1711005239689,-10353.758778575575
1711005239728,-10495.895261163358
1711005239769,-9806.690866791643
1711005239809,-8563.581377570983
1711005239849,-7473.375550949946
1711005239890,-5836.757969262078
1711005239929,-4262.652467566077
1711005239969,-2529.1424228532705
1711005240010,-1038.726137141697
1711005240050,606.2044069315307
1711005240090,2156.9385047259275
1711005240130,3531.315754659474
1711005240170,5421.511997213587
1711005240210,5538.243286557263
1711005240250,1389.3226436702535
1711005240291,-2375.0456797697116
1711005240331,-5230.207330726087
1711005240371,-7808.719026114326
1711005240411,-9454.893007218838
1711005240451,-8652.459577701287
1711005240492,-8055.786114295479
1711005240531,-8109.811255065259
1711005240571,-8395.904081719462
1711005240612,-7175.792957778089
1711005240652,-5963.751480827108
1711005240693,-4305.162561568432
1711005240732,-2426.944790443871
1711005240772,-483.2603843472898
1711005240812,1224.6771251850296
1711005240853,3244.628127193544
1711005240893,4880.251579829957
1711005240933,5991.013867356349
1711005240973,7713.431487592636
1711005241013,9889.592570198234
1711005241053,9829.708925412502
1711005241094,5180.362222017022
1711005241133,719.5810212204233
1711005241173,-2384.14429773367
1711005241213,-4657.6938269208185
1711005241253,-6776.695591203868
1711005241294,-7151.9434630628675
1711005241334,-6613.596172846388
1711005241374,-7163.671540184878
1711005241414,-6757.5693221311085
1711005241454,-6622.5036462270655
1711005241495,-6111.746694349917
1711005241534,-5135.437729674624
1711005241574,-3282.1638514338993
1711005241614,-1594.0841886764392
1711005241654,233.33796083601192
1711005241695,2186.191653536167
1711005241735,3487.186595080886
1711005241775,5344.01459764922
1711005241815,6867.965853016591
1711005241855,8777.909973183647
1711005241896,9896.042547757737
1711005241935,10827.099891509628
1711005241975,6760.266002911609
1711005242015,2102.9549729782157
1711005242056,-1513.8456293086056
1711005242096,-4519.774876853917
1711005242136,-7323.109304333804
1711005242176,-7412.797120854724
1711005242216,-6742.945538806263
1711005242256,-8007.741093242075
1711005242297,-9319.662994335638
1711005242336,-9654.237387305126
1711005242376,-8232.99410497304
1711005242416,-5388.226136081619
1711005242456,-2921.55690647359
1711005242497,-1627.1415284255054
1711005242537,-1356.9227153644897
1711005242577,253.1291938899085
1711005242617,2326.265080761863
1711005242657,4826.6429183660075
1711005242698,6585.437693239655
1711005242737,8842.316105279606
1711005242777,10580.350916515104
1711005242817,10372.820885928813
1711005242857,5592.259209721815
1711005242898,1661.0380210694857
1711005242938,-1385.540477633942
1711005242978,-3588.984318825882
1711005243018,-5437.196118270978
1711005243058,-5410.085858414415
1711005243099,-5732.6923945855815
1711005243138,-6114.557666842826
1711005243178,-6213.015678504016
1711005243218,-5746.309082095046
1711005243259,-4636.766408343334
1711005243299,-3681.982608947903
1711005243339,-2318.961494242307
1711005243379,-351.6931793629192
1711005243419,1669.8820871952921
1711005243459,2051.075547780143
1711005243500,1320.2443365727086
1711005243539,3741.038446836639
1711005243580,5617.598713962827
1711005243620,6353.339004024398
1711005243660,4832.250230051344
1711005243701,-740.0120732083451
1711005243740,-6260.228397308383
1711005243780,-8457.167407420464
1711005243820,-5982.312195350882
1711005243861,-2235.15714650834
1711005243901,996.4288383801468
1711005243941,2682.551052329596
1711005243981,1756.9594119279645
1711005244021,534.8383553661406
1711005244061,677.8125258961227
1711005244102,2567.2492190096527
1711005244141,5812.716954541858
1711005244182,10013.832330487436
1711005244222,14138.186405892251
1711005244262,16845.31133476016
1711005244303,18746.57253563637
1711005244342,19567.389887095895
1711005244382,16852.833099427633
1711005244422,10060.6804432692
1711005244463,5404.874046459561
1711005244503,1357.692660980858
1711005244543,-1905.9753935269546
1711005244583,-4275.594711735379
1711005244623,-5897.481448283186
1711005244663,-7217.5428064255975
1711005244704,-8619.231978344265
1711005244743,-8840.238855401985
1711005244784,-6930.685609465232
1711005244824,-6047.486564146122
1711005244864,-5504.686686543282
1711005244905,-7360.612987125525
1711005244944,-8907.009982239688
1711005244984,-6320.382408531383
1711005245025,-2631.180819451809
1711005245065,457.3025575405918
1711005245106,1814.6697636006866
1711005245145,2610.4132912559435
1711005245185,2932.9676638613455
1711005245225,3044.897818041034
1711005245265,1404.6396112444345
1711005245306,-889.7208237629384
1711005245346,-3460.6887272025924
1711005245386,-5497.910357937217
1711005245426,-7717.031995612197
1711005245466,-9265.248585593887
1711005245507,-9599.999736934667
1711005245547,-10501.669287034776
1711005245587,-10982.427903235657
1711005245627,-11068.277721897233
1711005245667,-10698.309812122025
1711005245708,-8896.194062632509
1711005245747,-7039.433411870152
1711005245788,-5072.829105056124
1711005245828,-2137.553488478996
1711005245868,376.3588240821846
1711005245909,4546.880798523314
1711005245948,7556.643907287624
1711005245988,8157.314236939419
1711005246028,9191.212121313903
1711005246068,11942.07769386191
1711005246109,12045.386348887347
1711005246149,9787.806692113169
1711005246189,6408.423989048693
1711005246229,2896.245955145918
1711005246269,-884.3954491652548
1711005246310,-1823.4431215601508
1711005246349,-764.2613241681829
1711005246390,-437.20527459308505
1711005246432,1093.9314621435478
1711005246470,1833.6546983192675
1711005246511,3011.548302046722
1711005246550,4175.919312899001
1711005246590,4872.432763846358
1711005246631,6728.851624358911
1711005246671,7991.419099683873
1711005246712,9331.175014877692
1711005246751,12148.363804270048
1711005246791,12445.149098632857
1711005246831,13337.90251296712
1711005246871,11950.57842862024
1711005246912,7005.392497156281
1711005246951,2258.1938020219095
1711005246992,-1442.7880340684205
1711005247032,-5454.897954684915
1711005247072,-7803.286327670794
1711005247113,-9021.420367730316
1711005247152,-8693.953804442659
1711005247192,-10133.992970651714
1711005247232,-10133.240399288014
1711005247272,-8085.6358563485555
1711005247313,-5927.5861977813765
1711005247352,-5323.243285066448
1711005247392,-5068.996561843436
1711005247433,-5195.749125769595
1711005247473,-4239.427255311748
1711005247514,-2136.817092433572
1711005247553,501.69428436551243
1711005247593,2075.837871769909
1711005247633,2756.092751843389
1711005247673,5014.784762492869
1711005247714,5957.863547605928
1711005247754,5971.468065756839
1711005247794,1259.4349076019134
1711005247834,-3042.302820870653
1711005247874,-6192.474176602671
1711005247915,-8758.067684812704
1711005247954,-10368.998019321822
1711005247994,-10117.139368614648
1711005248034,-9878.190906911623
1711005248075,-10012.014132164652
1711005248115,-9388.625319758663
1711005248155,-7661.471284679603
1711005248195,-5536.769221803639
1711005248235,-3188.1657152967528
1711005248275,-29.500891570933163
1711005248316,3171.8671907244716
1711005248355,6055.830888742581
1711005248395,7800.922091069398
1711005248435,9521.916147579206
1711005248475,11804.817770370282
1711005248516,13845.991177179385
1711005248556,15924.511627065483
1711005248596,17876.36980925128
1711005248639,18500.577572996728
1711005248676,13631.43330963049
1711005248717,8516.62626571022
1711005248756,4415.223194646882
1711005248796,1194.7998167776968
1711005248836,-1847.8855486651883
1711005248876,-3860.6245841518976
1711005248917,-4056.3982742410153
1711005248957,-5036.0300906091
1711005248997,-5744.571986253373
1711005249037,-6021.555832559243
1711005249077,-5637.965995185776
1711005249118,-4376.894470158499
1711005249157,-3594.751100078691
1711005249197,-1612.9474977999926
1711005249237,-409.94593442138284
1711005249278,1144.3164933198132
1711005249318,3055.761880710721
1711005249358,4538.93087322358
1711005249398,6126.805730082095
1711005249438,7505.473398194183
1711005249478,9314.902046551462
1711005249519,10812.799628368812
1711005249558,10705.712049985537
1711005249598,7531.299388371874
1711005249638,2314.785666211974
1711005249678,-1284.6786754904315
1711005249719,-3919.040465919068
1711005249759,-5868.214340193197
1711005249799,-7020.416826286819
1711005249839,-7226.460873498116
1711005249879,-7588.751790845301
1711005249920,-7901.14685371099
1711005249959,-8190.150089109782
1711005250000,-7385.809328385396
1711005250040,-6629.466723083984
1711005250080,-5885.08912668773
1711005250121,-4496.070989902364
1711005250160,-2937.5741360085085
1711005250200,-1326.310519696679
1711005250240,600.4830684878398
1711005250280,2962.2673691953532
1711005250321,5017.711690922966
1711005250361,7381.246090792818
1711005250401,8927.402442081831
1711005250441,8625.846520973835
1711005250481,3668.6618787380867
1711005250522,-246.02259594015777
1711005250561,-3286.9952184320427
1711005250601,-5577.806583257392
1711005250642,-5965.38765156921
1711005250682,-5661.646467905026
1711005250723,-6108.866004514741
1711005250762,-6275.0033219563775
1711005250802,-6244.602060638601
1711005250845,-5059.459500984754
1711005250882,-4363.04520018422
1711005250923,-3065.8598188939504
1711005250963,-1400.4892630169634
1711005251003,307.3754695034586
1711005251043,1390.88735894626
1711005251083,3182.302332227584
1711005251124,4846.118711794727
1711005251163,5879.122123239329
1711005251203,7082.275434712414
1711005251243,7297.092054358451
1711005251284,3338.316938802367
1711005251324,-1343.6844448312186
1711005251364,-4887.540997683071
1711005251404,-8138.06373937754
1711005251444,-10074.40035667969
1711005251484,-10935.946286033373
1711005251525,-10093.510862769326
1711005251565,-9715.263165354729
1711005251605,-7045.3273734925315
1711005251645,-4439.261014827294
1711005251685,-1092.0984271774068
1711005251726,3046.5736856609583
1711005251765,10546.315197213087
1711005251805,19860.656041298527
1711005251845,28811.26947678812
1711005251886,43084.93587121181
1711005251927,57691.51265795599
1711005251966,71073.23732721782
1711005252006,83817.82426202227
1711005252046,94309.36962189339
1711005252086,95623.46721067652
1711005252127,84802.30527273193
1711005252167,75374.76326074451
1711005252207,68147.32823599549
1711005252247,54576.12382349698
1711005252287,38190.76023700228
1711005252328,27023.132989359554
1711005252367,17476.705671933014
1711005252407,9966.000254984945
1711005252447,4737.515754927881
1711005252487,1170.9617834615055
1711005252528,-872.5797333903611
1711005252568,-1905.8477143347263
1711005252608,-2631.6564577405807
1711005252648,-3025.477837521117
1711005252688,-2486.5166932898574
1711005252729,-1928.6268134205602
1711005252769,-1138.861952574458
1711005252809,-557.912678388413
1711005252849,-1581.1002642703243
1711005252889,-6102.173701872816
1711005252930,-11561.735018707346
1711005252969,-16536.178764802404
1711005253010,-19230.657145488076
1711005253050,-20541.516654940788
1711005253090,-19675.924353920156
1711005253131,-15333.450052995933
1711005253170,-14512.129782977281
1711005253210,-15246.58729325654
1711005253250,-15770.354505598778
1711005253290,-14306.03440428502
1711005253331,-13871.091459374642
1711005253370,-12250.2727266734
1711005253410,-9287.82240169542
1711005253450,-7442.440822189674
1711005253491,-6389.964101347374
1711005253531,-6081.753803141415
1711005253571,-7009.0103610008955
1711005253611,-10932.892330999952
1711005253651,-15197.995304002427
1711005253691,-18163.82849277649
1711005253732,-19841.844640459167
1711005253771,-20211.100211621728
1711005253812,-19374.539099493297
1711005253852,-19329.86696988996
1711005253892,-18483.967458045343
1711005253932,-18268.620100721717
1711005253972,-17672.676583842374
1711005254012,-17348.006644111127
1711005254052,-16590.80807158677
1711005254092,-15590.302827271866
1711005254133,-13298.433286667336
1711005254173,-12529.154041469563
1711005254213,-12160.179540566402
1711005254253,-16196.440286460333
1711005254293,-20981.37990493863
1711005254334,-25549.452200729167
1711005254373,-29147.783314317
1711005254413,-31061.657801207155
1711005254453,-31799.537910730345
1711005254493,-31967.411793559324
1711005254534,-31159.85064302804
1711005254574,-30870.94044775376
1711005254614,-29474.18935015425
1711005254654,-28617.735705691855
1711005254694,-26511.77256746497
1711005254735,-24471.003001914825
1711005254774,-22357.851291210856
1711005254814,-20305.444687482202
1711005254854,-17910.37956321705
1711005254894,-15762.12707834458
1711005254935,-16902.287069296697
1711005254975,-22619.672407703474
1711005255015,-28810.33460271405
1711005255055,-33444.19392398745
1711005255095,-36798.41063352954
1711005255136,-38703.189854687545
1711005255175,-39316.65273027774
1711005255215,-38510.414601243334
1711005255255,-38076.63022827869
1711005255296,-37044.6849465305
1711005255336,-35332.908047705656
1711005255376,-33518.83727552951
1711005255416,-31611.152030700818
1711005255456,-28676.386319844984
1711005255496,-25590.470309671247
1711005255537,-22508.791339405812
1711005255576,-20321.022649783175
1711005255616,-18051.283859656658
1711005255657,-14684.467576706782
1711005255697,-11565.390639000805
1711005255737,-10162.5133786886
1711005255777,-14834.525185248582
1711005255817,-21007.375802696915
1711005255857,-26553.011390048545
1711005255897,-30745.104751951993
1711005255938,-34022.74570824858
1711005255977,-35541.97573502548
1711005256018,-34819.215339699294
1711005256058,-33979.26308297459
1711005256098,-32805.85454281699
1711005256139,-31820.176906816894
1711005256178,-30421.182259544265
1711005256218,-27688.64333573333
1711005256258,-24943.925333956024
1711005256298,-21419.060383994365
1711005256339,-18164.558677021414
1711005256379,-15675.117029405665
1711005256418,-12468.250811360078
1711005256459,-9153.494592876174
1711005256499,-6566.642844638787
1711005256539,-3543.830847347155
1711005256579,-121.92421310674399
1711005256619,1378.155157679459
1711005256659,-2153.3574570238125
1711005256699,-7601.657376347575
1711005256740,-12997.218706289073
1711005256779,-17094.188768815715
1711005256820,-20314.41059357114
1711005256860,-21457.614242382813
1711005256900,-20377.689446326345
1711005256941,-19436.3095563706
1711005256980,-18696.07845528284
1711005257020,-17326.051745682023
1711005257060,-15108.514418631792
1711005257101,-13110.738967339043
1711005257141,-10412.01836401783
1711005257181,-7940.870486705098
1711005257221,-4732.559065487701
1711005257261,-1848.263797099702
1711005257301,-87.40297538670711
1711005257342,2053.8920642514713
1711005257381,4297.565173623385
1711005257422,6801.024791960837
1711005257462,9216.45572188031
1711005257502,11287.91116019641
1711005257543,13294.73270618543
1711005257582,10141.17601585621
1711005257622,4513.6790981993545
1711005257662,199.48275659885257
1711005257703,-3288.337415797636
1711005257743,-6141.519949594047
1711005257783,-6714.826416608179
1711005257823,-5967.740567760775
1711005257863,-5502.841605532449
1711005257903,-4392.301947033033
1711005257944,-3350.2503477032296
1711005257984,-2662.3755871271715
1711005258024,-766.9869023030624
1711005258064,1643.5180884241126
1711005258104,4069.1063113636337
1711005258145,5881.557731054956
1711005258185,8216.182067454793
1711005258225,10686.957759632729
1711005258265,12614.437993949512
1711005258305,14853.482762990287
1711005258346,16224.035091904458
1711005258385,18184.551207839977
1711005258425,20072.03196861758
1711005258465,21137.58222199697
1711005258506,17916.59200700326
1711005258547,13142.690567596816
1711005258586,9056.05397213623
1711005258626,6030.601785181556
1711005258666,4089.981462372234
1711005258706,4085.1411396036856
1711005258747,4865.120886655757
1711005258787,5570.072252043523
1711005258827,6028.8960109986365
1711005258867,6983.852641330566
1711005258907,8209.715766827576
1711005258948,9139.794753618306
1711005258987,11007.078811484855
1711005259028,13307.93203526223
1711005259068,14416.40152593283
1711005259108,16012.431888234336
1711005259149,17582.524407201447
1711005259188,19486.197374129668
1711005259228,21419.706078499556
1711005259268,23106.259696302004
1711005259308,27559.047101369128
1711005259349,26676.03523214045
1711005259389,22460.217495107325
1711005259429,18510.97081655846
1711005259469,15104.732655011583
1711005259509,13105.246774779633
1711005259549,12267.12784762634
1711005259589,12320.003286501393
1711005259629,12729.947701013414
1711005259669,12985.721737934044
1711005259709,13057.151949867839
1711005259750,13589.41131588514
1711005259789,13786.394350124756
1711005259829,14880.333717565052
1711005259870,16259.466458322713
1711005259910,17594.488677148474
1711005259950,19036.96911115991
1711005259990,20116.78283507703
1711005260030,20916.924538366497
1711005260070,22600.922448984813
1711005260110,23511.569139946485
1711005260151,24077.264952006983
1711005260190,25426.82952174684
1711005260231,23714.349112070166
1711005260271,19076.332426935667
1711005260311,15253.018197749509
1711005260352,12924.216360310558
1711005260391,11751.970882831607
1711005260431,11113.89006050257
1711005260471,11314.794129976071
1711005260511,11537.613010566216
1711005260552,11469.86110930494
1711005260592,11816.077105128672
1711005260631,12020.524390099803
1711005260672,13351.860969963716
1711005260712,14480.231510076439
1711005260753,15676.643034684472
1711005260792,16731.316441446776
1711005260832,17715.17875000625
1711005260872,19167.34033760149
1711005260912,20409.658987067174
1711005260953,21598.10822760919
1711005260992,22549.944339219248
1711005261033,23529.192869194318
1711005261073,25094.5441318776
1711005261113,25420.67812151625
1711005261154,22732.93997902004
1711005261193,18010.623880452942
1711005261233,13745.875808304874
1711005261273,10925.069216732634
1711005261313,9398.63860719325
1711005261354,8422.681894929148
1711005261394,8748.313012340339
1711005261434,8990.369325302076
1711005261474,8846.993653258076
1711005261514,8571.243526421487
1711005261555,8737.062773806276
1711005261594,9428.129392496543
1711005261634,10356.378022153396
1711005261674,11119.98267358495
1711005261714,12099.899576985044
1711005261755,13018.053488652688
1711005261795,13908.154946033843
1711005261835,15302.260487284977
1711005261875,16136.065429010196
1711005261915,16821.163101406768
1711005261956,17735.979138035327
1711005261995,19089.221864105202
1711005262036,20010.98412230052
1711005262076,17889.557093780953
1711005262116,12697.40623640595
1711005262157,8201.489039873937
1711005262196,5498.246233513579
1711005262236,3026.9408634616993
1711005262276,1650.0063162043225
1711005262316,1668.3529931893572
1711005262357,1430.7297229208052
1711005262397,1576.0803718920797
1711005262437,1006.8990184071008
1711005262477,1065.032876540441
1711005262517,1354.0858248579316
1711005262558,2042.419908177806
1711005262597,3296.443741571391
1711005262637,4005.906493102433
1711005262677,4798.695239648921
1711005262717,5592.7552258649375
1711005262758,6384.005376357585
1711005262798,7415.064466343494
1711005262838,8362.185920150485
1711005262878,9637.992848149035
1711005262918,10716.877742877929
1711005262959,9994.762575632893
1711005262999,5228.274268882116
1711005263039,1124.13319384004
1711005263079,-2054.2339255353436
1711005263119,-4696.030367728788
1711005263160,-6217.251908812672
1711005263199,-5721.464681590907
1711005263239,-6111.000763161574
1711005263279,-6704.909303398337
1711005263320,-7229.928945959546
1711005263361,-7200.059356519952
1711005263400,-6231.106154156849
1711005263440,-5605.9784372951835
1711005263479,-4583.989643859677
1711005263519,-3173.7779653635807
1711005263560,-2287.9559883309994
1711005263600,-1263.0883987923153
1711005263640,93.14967583981343
1711005263680,1113.8862379405182
1711005263720,2079.2180867271964
1711005263761,3511.139610532904
1711005263800,5209.56856075488
1711005263841,3561.7438225336373
1711005263881,-2209.1691427053884
1711005263921,-7692.100793004502
1711005263962,-12288.448877891991
1711005264001,-15039.208611292765
1711005264041,-17367.696222027298
1711005264082,-18351.368426769506
1711005264122,-18496.929587045684
1711005264163,-19592.210364347324
1711005264202,-20226.185135758482
1711005264242,-19781.622233433183
1711005264282,-19256.025024810573
1711005264323,-19023.43516428955
1711005264363,-17680.232155431062
1711005264403,-15788.083077870775
1711005264443,-14242.182070286479
1711005264483,-12703.081509590847
1711005264523,-11269.097387079615
1711005264564,-9544.07899669325
1711005264604,-7882.886926596053
1711005264644,-5761.671383562498
1711005264684,-4170.6268677865155
1711005264724,-2184.0942931016907
1711005264765,-4449.646951701026
1711005264805,-10614.215611681808
1711005264845,-16010.020609790925
1711005264885,-20522.561367460992
1711005264925,-24286.17575600883
1711005264966,-26618.295579764294
1711005265006,-26809.04196672351
1711005265046,-27396.427196669392
1711005265086,-27626.810943321092
1711005265126,-27654.051011347678
1711005265167,-27492.86014963151
1711005265206,-26311.977878411533
1711005265246,-24123.647296962794
1711005265287,-22673.699601848144
1711005265327,-20540.12849883968
1711005265367,-18497.640437050723
1711005265407,-16252.309283050243
1711005265447,-13821.266093289014
1711005265487,-11182.189494062215
1711005265527,-9523.039176843828
1711005265568,-7179.242241876898
1711005265607,-3485.8877085638233
1711005265648,-1272.5851180357859
1711005265688,-3652.9283200188074
1711005265728,-9658.986675853608
1711005265769,-15704.701865826733
1711005265808,-19533.48453466571
1711005265848,-22498.554554926697
1711005265888,-23909.623888192233
1711005265928,-23866.866540780757
1711005265969,-23499.220948660048
1711005266009,-23300.71044505341
1711005266049,-22778.6625988523
1711005266089,-21959.166587794432
1711005266129,-20553.90721798269
1711005266170,-18075.078651053598
1711005266209,-15912.172730371123
1711005266249,-13733.342412518337
1711005266289,-11820.701466688653
1711005266330,-8898.650809219107
1711005266370,-6184.932564352173
1711005266410,-3731.004410693655
1711005266450,-966.9230142012239
1711005266490,1672.4578837235458
1711005266530,3659.648428345099
1711005266571,6141.798284869641
1711005266611,3725.536649585236
1711005266651,-1988.084234266309
1711005266691,-7160.775786112528
1711005266731,-10623.81899040984
1711005266772,-13158.39865777851
1711005266811,-14436.026136252098
1711005266851,-14137.333660108969
1711005266891,-14509.020034629852
1711005266931,-14295.797554912511
1711005266972,-13989.131450151326
1711005267012,-12797.987892598845
1711005267052,-11096.517806459684
1711005267092,-8866.414559029043
1711005267132,-6673.240103616845
1711005267173,-4740.708765274612
1711005267212,-3263.9759201458655
1711005267252,-1184.7875542161055
1711005267293,621.5065492559224
1711005267333,2693.0750647373497
1711005267374,5120.507558132056
1711005267413,6946.017512601102
1711005267453,7353.764327839948
1711005267493,4151.723305732943
1711005267533,-355.0882912152447
1711005267574,-3830.4617527241353
1711005267614,-5920.192681414308
1711005267654,-7867.979653395247
1711005267694,-7900.879885011818
1711005267734,-7609.489964316599
1711005267775,-7840.218247569166
1711005267814,-7635.638730606064
1711005267854,-7301.3241284319665
1711005267894,-5591.97094177315
1711005267935,-3835.582985304063
1711005267975,-2145.5943831685
1711005268015,-239.014492187649
1711005268055,1105.3798952109646
1711005268095,2402.754340412561
1711005268135,4067.079532224918
1711005268176,5861.660842680838
1711005268215,7722.120886087185
1711005268256,8256.206986606587
1711005268296,4718.213069206569
1711005268336,607.4084282179829
1711005268377,-3083.2173551106825
1711005268416,-5343.9923855608795
1711005268456,-6472.814068846405
1711005268496,-5901.170131542021
1711005268537,-5937.691832203418
1711005268577,-5945.639926675707
1711005268617,-5790.763604403473
1711005268657,-5460.457371134311
1711005268697,-4066.3244901699945
1711005268737,-2119.7631795001216
1711005268778,-704.7284882618114
1711005268818,1056.4821329687256
1711005268858,2989.7637120322324
1711005268898,4326.7141180075705
1711005268938,6244.884151369333
1711005268979,7500.767024900531
1711005269018,9664.032070241868
1711005269058,11391.290763876634
1711005269098,10135.131963562686
1711005269139,5588.69670588756
1711005269179,1352.6107849543914
1711005269219,-1853.7215954437852
1711005269259,-4822.3583004302345
1711005269299,-7247.168242067564
1711005269339,-7546.918402400101
1711005269380,-7274.357984056231
1711005269420,-7229.216293246951
1711005269460,-6883.264128650539
1711005269500,-6397.196340213064
1711005269540,-4897.989328895928
1711005269581,-3792.0997476498596
1711005269621,-1540.5009439741261
1711005269661,284.9395778863691
1711005269701,2137.343942990061
1711005269741,3612.4183242756408
1711005269782,5137.1504285151605
1711005269821,7281.472300571855
1711005269861,9413.542701627826
1711005269902,11344.361337287351
1711005269942,13186.38121506269
1711005269983,14883.925695020473
1711005270022,16818.128402519505
1711005270062,19070.805970519083
1711005270102,19042.26468458376
1711005270142,14795.793476031162
1711005270183,9884.821404864779
1711005270223,6866.084553267341
1711005270263,3849.6282306439243
1711005270303,983.6425920939073
1711005270344,-432.5049237436615
1711005270384,-864.5818386571482
1711005270424,-916.7083826158196
1711005270464,-1434.1371814403683
1711005270504,-1233.6666239830665
1711005270544,-353.13210008549504
1711005270585,991.0241167354397
1711005270625,2712.751312259119
1711005270665,4361.762393882498
1711005270705,7663.102497235639
1711005270745,9949.450869136024
1711005270786,11977.71724853362
1711005270825,12944.43788186321
1711005270865,14733.143406205345
1711005270905,15976.313806477468
1711005270945,17834.760188567685
1711005270986,19592.32663251506
1711005271025,21379.28468312975
1711005271066,22822.657176119974
1711005271106,22210.11449853191
1711005271146,17399.897016019793
1711005271187,13065.13983158581
1711005271226,10091.963353894185
1711005271266,7725.794377882732
1711005271306,5431.952382039744
1711005271346,4066.2644078554586
1711005271387,4056.3514216332696
1711005271427,3499.9823888712563
1711005271467,3277.597816260997
1711005271507,3313.878664113581
1711005271547,4279.584610376041
1711005271588,5451.978775429539
1711005271627,6748.245186843909
1711005271667,8230.693714122055
1711005271707,9221.243563083932
1711005271747,10789.787836866453
1711005271788,11901.279463151935
1711005271828,13175.29220148502
1711005271868,14346.54722978361
1711005271908,15720.653728396632
1711005271948,16903.50766616664
1711005271989,18567.873842104804
1711005272028,19740.78786588204
1711005272068,20177.83133730758
1711005272108,17553.56727755675
1711005272149,13349.328749772161
1711005272189,9839.867368629668
1711005272229,7202.895545951789
1711005272269,5237.589468165999
1711005272309,4165.498778871493
1711005272349,4071.5861233570613
1711005272390,4188.008717560675
1711005272429,4099.131805578712
1711005272469,4089.5314274551347
1711005272510,4416.896809339756
1711005272550,5152.739527235739
1711005272590,6665.949248209596
1711005272630,8071.957540890668
1711005272670,9170.579995165579
1711005272710,10070.67598421243
1711005272750,11379.542707473505
1711005272791,12287.054195705568
1711005272830,13256.559850421967
1711005272871,13928.559572006576
1711005272911,14978.705196038587
1711005272951,15918.917837499408
1711005272992,16549.830260451185
1711005273031,13436.676036566263
1711005273071,10266.010283994488
1711005273111,7533.006832246436
1711005273151,5532.440221269615
1711005273192,4460.252383699641
1711005273232,4206.235593633959
1711005273272,4621.838165499037
1711005273312,4224.633028427605
1711005273352,4013.8805494769476
1711005273393,4443.886695739813
1711005273432,4830.243109615287
1711005273473,5554.415812838357
1711005273513,7038.1935809806455
1711005273553,8295.26652993681
1711005273594,9231.257254669908
1711005273633,10383.825446094852
1711005273673,11506.776090829633
1711005273713,12468.885063822614
1711005273753,13218.289149756078
1711005273794,14285.48652425548
1711005273834,16063.226109070005
1711005273874,15784.184733220842
1711005273914,11629.389947797405
1711005273954,6708.198726721341
1711005273995,3739.0760308944155
1711005274034,1531.5743778632022
1711005274075,-551.1247209534049
1711005274115,-1310.7482292340137
1711005274155,-863.2474249494262
1711005274196,-647.5774158793502
1711005274235,-767.8992962196935
1711005274275,-902.0462151335087
1711005274315,-417.6545857372694
1711005274355,10.459744822699577
1711005274396,1280.948298717849
1711005274436,2380.5656880706083
1711005274476,3459.3421146669425
1711005274516,4879.022489951458
1711005274556,5581.094215134624
1711005274597,7002.281246117782
1711005274636,8005.550874385983
1711005274677,9348.317056292668
1711005274717,11183.257195147919
1711005274757,12598.341066559777
1711005274798,9821.225173068698
1711005274837,4789.10655643302
1711005274877,600.7944378315005
1711005274918,-2386.7062780226115
1711005274958,-5075.716633301228
1711005274999,-6869.639434406534
1711005275038,-7172.812682399061
1711005275078,-7842.6530796783045
1711005275118,-8772.662939797621
1711005275159,-9001.587173109176
1711005275199,-8890.902280740673
1711005275239,-7621.7813523337245
1711005275279,-6309.717592150206
1711005275319,-4554.083832282806
1711005275359,-3154.5594655189198
1711005275400,-2081.4005608679727
1711005275440,-1365.2273748451844
1711005275480,-345.4335251925513
1711005275519,1169.3961095702834
1711005275559,2791.7362461970188
1711005275600,4703.25754698948
1711005275640,6398.77703762427
1711005275680,6952.433583670994
1711005275720,3034.0085573797114
1711005275760,-2226.0870944424532
1711005275801,-5802.793716040673
1711005275840,-7807.641211302485
1711005275881,-9945.764428825118
1711005275921,-9623.224025531905
1711005275961,-9302.821373536717
1711005276002,-9855.918402467854
1711005276041,-9908.059498092625
1711005276081,-10031.002836447675
1711005276121,-9868.76856051106
1711005276161,-8761.194923054893
1711005276202,-7683.479821678251
1711005276242,-6034.889816506067
1711005276282,-4520.669528427767
1711005276322,-2921.418311799178
1711005276362,-1071.8934620446526
1711005276403,522.7426207098179
1711005276443,2144.21451191511
1711005276483,3903.611185210757
1711005276523,5013.497661553323
1711005276563,2330.0620179721154
1711005276604,-3354.7347488070372
1711005276643,-7595.470739606768
1711005276683,-11000.620774523122
1711005276723,-13146.314314645017
1711005276763,-15107.027741805185
1711005276804,-15652.289830778725
1711005276844,-15982.898668034934
1711005276884,-17167.140442820266
1711005276924,-17101.2739942912
1711005276964,-16317.558630747488
1711005277005,-15354.799029394984
1711005277044,-14362.522077704314
1711005277084,-12799.98378992523
1711005277124,-10843.380300990772
1711005277164,-8622.592179205501
1711005277205,-7327.517515703104
1711005277245,-5277.529251723783
1711005277285,-3340.133479374461
1711005277325,-1328.7382760206237
1711005277365,210.2994527153205
1711005277406,2231.227624183055
1711005277445,1815.0738623193465
1711005277485,-3156.7890779220033
1711005277525,-8715.179785140092
1711005277566,-12643.58529049973
1711005277606,-15681.43007656606
1711005277646,-18304.334777018987
1711005277686,-19583.77758569247
1711005277726,-19655.05251932447
1711005277766,-19895.677675708197
1711005277807,-19456.423787887208
1711005277846,-18987.176009329967
1711005277886,-17969.3913770183
1711005277927,-16257.951825440861
1711005277967,-13931.841166409431
1711005278008,-11901.0614118292
1711005278047,-9344.88034625398
1711005278087,-7448.503780551488
1711005278127,-5537.793657918228
1711005278167,-3822.317112368997
1711005278208,-2092.963369332254
1711005278248,-42.20385618740693
1711005278288,2502.9842112076003
1711005278328,4656.068861132953
1711005278368,6524.883483527694
1711005278409,4837.302975032479
1711005278448,-358.7897486591246
1711005278488,-4742.780915586511
1711005278529,-8643.686742584687
1711005278569,-11527.74200405064
1711005278609,-14310.137284695636
1711005278649,-15564.618637304986
1711005278689,-15556.490178814856
1711005278729,-15928.254790644161
1711005278769,-15889.62674961728
1711005278810,-15196.303005342372
1711005278849,-14029.908561146818
1711005278890,-12774.508418920916
1711005278930,-10898.180992143229
1711005278970,-8838.077121098293
1711005279011,-6904.322305188049
1711005279050,-4829.606193885673
1711005279090,-2644.052695629187
1711005279130,-659.1208513695747
1711005279170,1475.4354677603114
1711005279211,3355.427559720585
1711005279251,5508.865968618309
1711005279291,7541.389770586044
1711005279331,5525.553029782372
1711005279371,1523.7246997682378
1711005279412,-2031.566962318262
1711005279451,-4221.411510305945
1711005279492,-6164.537127811462
1711005279532,-7185.7450767650735
1711005279572,-7277.197922338732
1711005279613,-6928.938850003295
1711005279652,-7192.111272664042
1711005279692,-7248.951586488634
1711005279732,-6265.927391332574
1711005279772,-5031.240631880239
1711005279813,-3567.2316797217354
1711005279853,-1681.6674758279696
1711005279893,118.61489896057174
1711005279933,2676.3575906248298
1711005279973,5028.465319876559
1711005280014,7380.434769382235
1711005280053,9458.578396775527
1711005280094,11813.989329664037
1711005280134,13263.828780108364
1711005280174,11966.911258221604
1711005280215,8076.51515347464
1711005280254,5208.149251292227
1711005280294,2849.0207555389497
1711005280334,770.134914918337
1711005280374,-349.7312859389931
1711005280415,-12.509251071838662
1711005280455,191.66328408196568
1711005280495,142.3096222009044
1711005280535,443.62917888816446
1711005280575,976.5141593893059
1711005280616,2244.6756994335447
1711005280655,3586.6999136842787
1711005280696,4565.514610072132
1711005280736,6216.503921221476
1711005280776,7505.501920878887
1711005280817,8980.98658982385
1711005280856,10673.322301102802
1711005280896,12291.406022757292
1711005280936,14546.978313477011
1711005280976,16453.540205969475
1711005281017,17554.644718051888
1711005281057,16168.120508366963
1711005281097,12298.49227459752
1711005281137,9008.813420991646
1711005281177,6758.396237762645
1711005281218,4187.014698040439
1711005281257,2376.6073623690754
1711005281298,2150.1889162082225
1711005281338,2335.1358234731015
1711005281378,1836.534405930899
1711005281419,2041.2991089092102
1711005281458,2696.0489203815814
1711005281498,3283.2053647241555
1711005281538,4432.341491866857
1711005281579,5830.010265204124
1711005281619,7399.9839850270655
1711005281659,8401.339532207232
1711005281699,10049.494270685129
1711005281739,12134.772257208591
1711005281779,13442.280884979758
1711005281820,14531.454780774191
1711005281860,16465.571120943874
1711005281900,17922.804621080402
1711005281940,18437.361803564476
1711005281980,14948.42416929407
1711005282021,11138.535580600612
1711005282060,8155.952564530075
1711005282101,5666.102048815228
1711005282141,3463.2555689041037
1711005282181,3038.175939650275
1711005282222,4614.499982460868
1711005282261,7506.0470423162915
1711005282301,8527.11978471186
1711005282341,9361.195881213993
1711005282381,9635.917451144429
1711005282422,10028.58861732576
1711005282461,11055.374506103108
1711005282502,12416.816143875476
1711005282542,13256.210533256643
1711005282582,14082.600413526408
1711005282623,14757.29060490802
1711005282662,15638.339189854683
1711005282702,16920.13308759057
1711005282742,18154.99455185607
1711005282782,18824.169689361937
1711005282823,14835.109449053416
1711005282862,11114.086786882952
1711005282902,8640.712480080314
1711005282942,6798.3093583593145
1711005282983,5182.177912787534
1711005283023,4400.9124753000215
1711005283063,4801.155757419299
1711005283103,4500.766219184268
1711005283143,3293.477317346493
1711005283183,3304.606332955649
1711005283224,3353.9161968128756
1711005283263,4229.715557376854
1711005283303,4068.8193880226463
1711005283344,5008.039463615045
1711005283384,6149.868119853083
1711005283425,6890.43125041062
1711005283464,7841.237168501131
1711005283504,8189.241744411178
1711005283544,8810.961646772223
1711005283584,8696.682807947975
1711005283625,5267.400396415964
1711005283664,2624.395850080531
1711005283705,40.853388882474974
1711005283745,-1382.1406555641443
1711005283785,-2527.9301464878954
1711005283826,-2805.1816602726467
1711005283865,-2860.1231502690352
1711005283905,-2177.293309279252
1711005283945,-2102.897880984703
1711005283985,-1584.742970556952
1711005284026,-979.1040223049931
1711005284066,-284.5506556094624
1711005284106,1382.9974421062507
1711005284146,2245.275678073056
1711005284186,2943.761415588204
1711005284227,4523.59076408064
1711005284266,6384.989200284937
1711005284306,7377.591533307685
1711005284346,8769.404264257755
1711005284386,9237.89341154974
1711005284427,5658.823576594703
1711005284467,1227.0955636582803
1711005284507,-1931.324040682288
1711005284547,-5007.216269735945
1711005284587,-6516.945379939862
1711005284628,-7787.510783528211
1711005284667,-8114.830861316994
1711005284707,-7997.168475980405
1711005284747,-8755.106707620434
1711005284788,-8402.808200875297
1711005284828,-7391.791473731631
1711005284868,-7339.510623025009
1711005284908,-6114.838957034983
1711005284948,-4494.516135669313
1711005284988,-3206.1155245017726
1711005285029,-2175.5136934393086
1711005285068,-802.7090616347268
1711005285108,831.6505444557406
1711005285149,1691.495646166848
1711005285189,2963.503533347277
1711005285229,4660.691442333395
1711005285269,4311.043555381242
1711005285309,-965.4877767828293
1711005285349,-5294.040940733161
1711005285389,-9116.55984651018
1711005285430,-11979.241273376625
1711005285469,-14628.07622362324
1711005285510,-16162.705616434803
1711005285550,-17413.93407489662
1711005285590,-17538.593650018098
1711005285631,-17593.972348473966
1711005285670,-17823.729956783354
1711005285710,-17506.463401790475
1711005285750,-16697.224760989193
1711005285790,-15154.385543219978
1711005285831,-13598.112630543299
1711005285871,-12630.900721634505
1711005285911,-11298.114230984356
1711005285951,-9650.382644912694
1711005285991,-8038.359564656857
1711005286032,-5954.239903138019
1711005286071,-3557.148126975866
1711005286111,-2732.9381349207833
1711005286151,-4580.228024323005
1711005286192,-8657.720953691518
1711005286232,-12757.04142968217
1711005286272,-15087.866096707992
1711005286312,-17587.39203482261
1711005286352,-18914.21821424691
1711005286392,-19243.31760473689
1711005286433,-18519.67308107391
1711005286473,-18528.55013467977
1711005286513,-18413.018710702425
1711005286553,-17961.35028156638
1711005286593,-16255.686121074948
1711005286634,-14009.214084506966
1711005286673,-12217.117786969058
1711005286713,-10218.626785138156
1711005286753,-8348.356302054599
1711005286794,-6057.853643041104
1711005286834,-4625.279914116021
1711005286874,-2489.236801338615
1711005286914,-1924.7890285733156
1711005286954,-4894.2289338517
1711005286994,-8970.240584711079
1711005287035,-11527.113315755269
1711005287075,-14544.223192020087
1711005287115,-16931.225328495726
1711005287155,-17097.606904041953
1711005287195,-17002.59254009556
1711005287236,-16706.32015084289
1711005287275,-15973.337665013038
1711005287315,-14652.915206680074
1711005287355,-13826.077815676574
1711005287396,-11713.388360948302
1711005287437,-10462.064314346993
1711005287476,-9200.842016980285
1711005287516,-7346.699149239343
1711005287558,-5650.558815555647
1711005287598,-3035.195852378849
1711005287639,-2697.8911499364767
1711005287679,-389.9007718130015
1711005287719,1275.4449136473704
1711005287759,-57.38396448874846
1711005287799,-5090.575744541828
1711005287840,-9266.242691638414
1711005287879,-12959.424793806858
1711005287920,-15690.863813154632
1711005287960,-17536.15079533495
1711005288000,-17875.735966559267
1711005288041,-17466.91164070228
1711005288080,-17179.427828881424
1711005288120,-15710.726835066453
1711005288160,-14078.51223685639
1711005288200,-11914.513050624402
1711005288241,-9819.091079883277
1711005288281,-7512.581763119437
1711005288321,-6063.907686541788
1711005288361,-4205.735726690618
1711005288401,-1871.5419424786232
1711005288442,-678.1529579560738
1711005288481,1515.640793499304
1711005288522,3401.5592401460744
1711005288562,4627.046117639169
1711005288602,4534.1679475279525
1711005288643,360.3905692144763
1711005288682,-3451.379706325475
1711005288722,-5388.147891148459
1711005288762,-6509.760069719981
1711005288802,-7887.379936676938
1711005288843,-7183.199534130981
1711005288882,-6955.987122820923
1711005288922,-4247.882284032181
1711005288963,-2920.815533919027
1711005289003,-2057.3872842229903
1711005289043,-10.905228739604354
1711005289083,2278.472783772275
1711005289123,4509.502967881504
1711005289163,7042.33013133565
1711005289203,9384.219787392765
1711005289244,11525.133343504276
1711005289283,13095.31743633328
1711005289323,14651.171596223954
1711005289364,15863.514121700544
1711005289404,17975.90097533143
1711005289444,19601.62197342515
1711005289484,18407.95749379252
1711005289524,14036.901570694521
1711005289564,10288.919725920074
1711005289604,8414.532495452557
1711005289645,6102.276818068465
1711005289684,4958.424863557331
1711005289725,5313.6071347657125
1711005289765,4785.741853985237
1711005289805,4240.763030218426
1711005289846,4634.531212573405
1711005289885,5626.865858181147
1711005289925,6907.188194682123
1711005289965,7678.770738752326
1711005290005,7735.645296477014
1711005290046,8225.676580259576
1711005290086,9112.830328433309
1711005290126,9629.564912138041
1711005290166,10206.071901436895
1711005290206,11180.50670624571
1711005290247,11572.61226557754
1711005290286,11147.763342704391
1711005290326,6734.694902616087
1711005290366,2999.7480206363834
1711005290406,216.21854926878586
1711005290447,-2029.1524160886183
1711005290487,-3319.3095917170867
1711005290527,-2972.200255941134
1711005290567,-3381.7823776863515
1711005290607,-3705.8120290215593
1711005290648,-3802.295295686228
1711005290687,-3381.8087410065345
1711005290727,-2841.962206638418
1711005290767,-1309.8949914453551
1711005290808,824.2569929810707
1711005290848,1529.6324565152172
1711005290888,2431.6638850886375
1711005290928,5140.578526966739
1711005290968,6590.684308389202
1711005291008,6185.12683385564
1711005291049,2819.332041703863
1711005291088,-645.1720858528279
1711005291128,-3209.9662722835783
1711005291169,-5049.890397513751
1711005291209,-5864.842268413398
1711005291249,-6022.948502750136
1711005291289,-5672.677541122772
1711005291329,-6134.789009864908
1711005291369,-5923.655517686158
1711005291409,-5304.02877146448
1711005291450,-3417.5350108162966
1711005291489,-2058.776942197932
1711005291530,-397.46614180272445
1711005291570,1141.5423003644682
1711005291610,2509.8243681970052
1711005291651,3765.2494604573585
1711005291690,5205.317395759746
1711005291730,6584.236749028787
1711005291770,5100.369691845961
1711005291810,-683.5239296294749
1711005291851,-3695.818817303516
1711005291891,-5429.003441238776
1711005291931,-6627.289290350862
1711005291971,-7399.528144759126
1711005292011,-7206.427553871181
1711005292052,-7525.319650301477
1711005292091,-7949.832915510982
1711005292131,-7027.746599538252
1711005292171,-5725.70962906396
1711005292212,-5295.559568411205
1711005292252,-4054.7104309936985
1711005292292,-2143.9655179637484
1711005292332,-720.244241418317
1711005292372,1196.120726679219
1711005292412,2553.714353880845
1711005292453,3425.9065217075404
1711005292492,4793.672206038609
1711005292533,6234.127676282078
1711005292573,6277.300161602907
1711005292613,2496.695057853125
1711005292654,-690.8654254125431
1711005292693,-3715.7614697283134
1711005292733,-6106.6794223641045
1711005292773,-8000.198887674138
1711005292814,-8500.80766396923
1711005292854,-8438.206873373827
1711005292894,-8205.34230691567
1711005292934,-7551.257532133721
1711005292974,-6880.360674457392
1711005293014,-5568.43357941485
1711005293055,-4066.068722195225
1711005293094,-710.1805359679274
1711005293134,1431.7907641604543
1711005293175,2660.3610298319254
1711005293215,3621.7413915274665
1711005293256,5160.745342057664
1711005293295,6982.609722305322
1711005293335,8383.206622119993
1711005293375,10333.070669302251
1711005293415,10958.215409392258
1711005293456,7947.505965903867
1711005293496,4361.783313643187
1711005293536,1476.9341191097628
1711005293576,-720.4716172271874
1711005293616,-2545.074986695312
1711005293657,-3056.5430509292055
1711005293697,-2797.381402480416
1711005293737,-2023.3581492607482
1711005293777,-1782.2262297021225
1711005293817,-1457.9205660359003
1711005293858,-619.1482528252527
1711005293897,545.9345212895423
1711005293937,2152.6139193479903
1711005293977,3989.5410331077874
1711005294017,5109.227702394826
1711005294058,6453.911655306816
1711005294098,7628.147958799498
1711005294138,9161.25725876633
1711005294178,10998.695243947208
1711005294218,11490.973067067098
1711005294259,9835.693825586932
1711005294298,7514.682896331884
1711005294338,5283.025888037868
1711005294378,3130.1321101537906
1711005294419,1627.2704137917608
1711005294459,1723.159212143626
1711005294499,2055.256183891557
1711005294539,1309.6487679784186
1711005294579,827.6398741996381
1711005294619,934.6317177719902
1711005294660,1295.7617967319675
1711005294700,2576.5980186639354
1711005294740,3074.708580759354
1711005294780,5335.785586126614
1711005294820,6835.688819991425
1711005294861,8502.073264211416
1711005294900,9301.39307220513
1711005294940,10626.362595072016
1711005294980,11270.088822944323
1711005295020,7909.973306016531
1711005295061,3857.2672539330088
1711005295100,970.5908152759075
1711005295141,-1395.55921219429
1711005295181,-3490.06916980003
1711005295221,-4952.664486321621
1711005295262,-4808.275514001027
1711005295301,-4488.673754989402
1711005295341,-4175.9676554475445
1711005295381,-3673.9563562828116
1711005295421,-3144.6577344436664
1711005295462,-1986.121391395107
1711005295501,97.13769718585536
1711005295541,2570.3310141181573
1711005295581,3381.513920580037
1711005295622,4273.1222195378505
1711005295662,5122.920166207477
1711005295702,6131.892867513001
1711005295742,6861.300737881102
1711005295782,7183.716551212594
1711005295822,9080.72345543257
1711005295863,8280.147807624657
1711005295902,4199.203175119357
1711005295942,256.2022205805406
1711005295983,-2862.4243651542347
1711005296023,-5213.843257089611
1711005296063,-7032.846749378834
1711005296103,-7459.812347724568
1711005296143,-7620.835553330602
1711005296183,-6924.287367890123
1711005296223,-7091.119374994421
1711005296264,-6441.953520216746
1711005296303,-5377.053530778969
1711005296343,-4502.922660578042
1711005296383,-2966.788154578535
1711005296424,-1665.4264067956246
1711005296464,-34.30861411592923
1711005296504,1688.2012236712035
1711005296544,2762.223451898666
1711005296584,3640.9912849392276
1711005296624,4679.678982124664
1711005296665,6191.47022311599
1711005296704,7718.272617178736
1711005296744,8812.160314748995
1711005296784,5726.905222971924
1711005296824,522.1942709793802
1711005296865,-2612.2689716834575
1711005296905,-4921.5847494173795
1711005296945,-6487.883499555057
1711005296985,-7761.811131673399
1711005297025,-7028.716845224146
1711005297066,-6738.0082029486075
1711005297105,-6885.400795515161
1711005297145,-6875.112849416677
1711005297185,-5978.647901896387
1711005297225,-4947.953831521794
1711005297266,-3350.261260314379
1711005297306,-1159.9945047588553
1711005297346,1711.0615804377012
1711005297386,3098.520418416243
1711005297426,4992.044262850657
1711005297467,6305.407930910122
1711005297506,7975.32657769369
1711005297546,9495.905146029312
1711005297586,10728.070913311327
1711005297626,9486.236382897012
1711005297667,5054.8200211673975
1711005297707,1268.4210005947389
1711005297747,-1481.9663840970024
1711005297787,-3066.0539987669326
1711005297827,-3643.0866108557675
1711005297868,-2448.867377554765
1711005297907,-2185.4955779169686
1711005297947,-1816.8059479272924
1711005297987,-1872.9393478929996
1711005298027,-1384.027173037175
1711005298068,-326.3941012690775
1711005298107,205.56675294041634
1711005298148,1579.0890947859734
1711005298188,2895.887257549446
1711005298228,4320.86894540675
1711005298269,5886.2408467144705
1711005298308,6938.516371112317
1711005298348,8067.258480273653
1711005298388,5139.595389341237
1711005298428,1799.117086013779
1711005298469,-532.2261257390492
1711005298509,-2050.2512173163705
1711005298549,-3541.6212563628796
1711005298589,-3691.7121469732374
1711005298629,-3842.5632852122653
1711005298670,-3515.785682291724
1711005298709,-3654.1076135842595
1711005298749,-3103.162338124588
1711005298789,-2057.209395993501
1711005298829,-10.848879920318723
1711005298870,1402.1475006816909
1711005298910,2875.1316310311668
1711005298950,4742.481041876832
1711005298990,6466.902491037967
1711005299030,9654.573339313036
1711005299071,12749.327626002952
1711005299110,10596.968915397301
1711005299150,5606.345269982237
1711005299190,1974.4338871547952
1711005299231,-1380.903295275988
1711005299271,-3914.909283094341
1711005299311,-5803.953507094644
1711005299351,-6010.456615367439
1711005299391,-6489.764903831296
1711005299431,-7343.585845411755
1711005299472,-8018.580872655846
1711005299511,-7642.386465183459
1711005299551,-7268.182493282948
1711005299592,-6535.289812687086
1711005299632,-4941.615003119223
1711005299673,-2605.1248437920585
1711005299712,-1645.0987962880172
1711005299752,-112.59875331772491
1711005299792,1475.3105462691747
1711005299832,3461.87316581537
1711005299873,2213.852005064022
1711005299913,-1813.0453427419998
1711005299953,-4734.215031357249
1711005299993,-7875.459465460852
1711005300033,-10216.366896493826
1711005300074,-10644.196304587182
1711005300113,-10412.983292421559
1711005300153,-9668.17548300419
1711005300194,-9020.75955641875
1711005300233,-9888.309122594539
1711005300274,-8264.490494192112
1711005300314,-8407.922302006977
1711005300354,-8685.830562263494
1711005300394,-6882.333763032686
1711005300434,-5099.0952268766705
1711005300475,-3909.8709716249723
1711005300514,-2225.8444424527697
1711005300555,-1249.3493832158856
1711005300595,2.419941690284759
1711005300635,797.7832503332756
1711005300676,2279.928578431951
1711005300715,-1415.4828041605651
1711005300755,-5398.531256565591
1711005300795,-9001.647758254316
1711005300835,-11317.167135212105
1711005300876,-12708.935646639671
1711005300916,-13895.432540164562
1711005300956,-14139.057999317069
1711005300996,-13703.25307334913
1711005301036,-13737.143415138824
1711005301077,-13149.801799810492
1711005301116,-11835.41889676731
1711005301157,-10531.779423198197
1711005301197,-8403.290870713536
1711005301237,-6646.372977617197
1711005301278,-3853.0981583483517
1711005301317,-1796.739715873031
1711005301357,-325.5181009308435
1711005301397,1608.1227276702411
1711005301437,3797.171861246461
1711005301478,2799.836598561844
1711005301518,889.786103723105
1711005301558,-2823.3411591565236
1711005301598,-5197.60400562617
1711005301638,-6106.913205864374
1711005301679,-6681.848327787127
1711005301718,-6169.267537818989
1711005301758,-6047.095730696805
1711005301798,-6383.460849650437
1711005301838,-6105.136820970336
1711005301879,-5219.75800100062
1711005301919,-4584.627824838273
1711005301959,-3955.3047685064375
1711005301999,-2211.3348015001975
1711005302039,-865.1620104333851
1711005302080,392.93169425521046
1711005302119,1705.6860465034842
1711005302159,2758.8243436580524
1711005302199,4876.594212846598
1711005302239,5401.690646654461
1711005302280,1578.5885774560738
1711005302319,-2216.7326698328834
1711005302360,-5065.917648057453
1711005302400,-7753.841620313935
1711005302440,-9552.844471259974
1711005302481,-10066.394446994644
1711005302520,-10515.573426625459
1711005302560,-10402.651014086325
1711005302600,-9769.19008900458
1711005302640,-8542.829977506772
1711005302681,-7341.704490002245
1711005302720,-5874.931388587691
1711005302760,-3259.6953733756673
1711005302801,-1073.0601088891272
1711005302841,518.4220367255621
1711005302881,2279.9010801953264
1711005302921,2926.676849164767
1711005302961,4668.307243599789
1711005303001,6631.422074671602
1711005303041,8415.703128879424
1711005303082,9327.15020172461
1711005303121,7151.285947679542
1711005303161,2821.8236851724796
1711005303202,-198.6134547474794
1711005303242,-2970.384026654996
1711005303282,-4751.468190397602
1711005303322,-6812.93694612477
1711005303362,-6518.05771203246
1711005303402,-6657.976854761597
1711005303442,-6237.801269091666
1711005303483,-6092.02434506407
1711005303522,-5330.161405786872
1711005303562,-3748.794045459479
1711005303602,-2239.785383633338
1711005303643,-2998.280220587272
1711005303683,-4008.741867705714
1711005303723,-2593.1942925357725
1711005303763,327.810229586903
1711005303803,2868.8050753006246
1711005303843,5036.331621178659
1711005303884,6543.162220764905
1711005303923,7821.268238208722
1711005303963,8624.991632515332
1711005304003,5645.7102665405255
1711005304044,1606.374702389352
1711005304084,-1033.138014971977
1711005304124,-2803.2706324937753
1711005304164,-4411.905023747822
1711005304204,-4659.187586329179
1711005304244,-4392.65598177677
1711005304285,-4642.921443960164
1711005304324,-4069.1556958183646
1711005304364,-3415.4145468103234
1711005304404,-2438.320869338233
1711005304444,-536.1152588794939
1711005304485,627.4753985216375
1711005304525,2294.897141323192
1711005304565,3582.7857349095866
1711005304605,4715.232772041345
1711005304645,5809.529241836397
1711005304686,8109.857525587315
1711005304725,8071.199509805068
1711005304765,7289.01483947807
1711005304805,3890.3490409972146
1711005304845,608.619004752487
1711005304886,-2327.90812426107
1711005304926,-1706.0667688134126
1711005304966,490.18142395233735
1711005305006,1537.1536654175725
1711005305046,550.2806315384805
1711005305087,552.664878091542
1711005305126,66.32301327586174
1711005305166,799.840576290153
1711005305206,2280.0266394088976
1711005305246,3490.344231778756
1711005305287,4630.449289321667
1711005305327,6453.4427459975705
1711005305367,7808.856067760149
1711005305407,9331.97720356402
1711005305447,10998.094944537384
1711005305488,13272.951535946224
1711005305527,14632.283993296092
1711005305567,16182.425441750558
1711005305607,15341.058942398056
1711005305647,11401.726743411738
1711005305688,7893.197328516748
1711005305728,4401.450641798787
1711005305768,1773.9621880203485
1711005305808,72.05035217432305
1711005305848,-290.3065832101274
1711005305889,618.8489337994251
1711005305928,714.71463209996
1711005305968,486.5814094315283
1711005306008,2110.9456388254184
1711005306048,2574.8860475057736
1711005306089,3388.0438526244834
1711005306129,4648.838740187464
1711005306169,6704.044693866279
1711005306209,8464.06297026435
1711005306249,9984.719398131594
1711005306290,11252.08935779985
1711005306329,12529.538221796276
1711005306369,13124.515208592173
1711005306409,15023.115763042588
1711005306450,16204.272463197354
1711005306490,16891.568204877432
1711005306530,14227.411648460664
1711005306570,9906.07434906112
1711005306613,6366.914334007539
1711005306650,3695.559569124365
1711005306691,1297.327456820989
1711005306730,154.64221343398094
1711005306771,-26.820884072221816
1711005306811,-293.5425676277373
1711005306851,-538.2420499036089
1711005306892,-537.1315107648261
1711005306931,42.23209822596982
1711005306971,783.4144693843555
1711005307011,1618.7146052056924
1711005307052,2783.824003316695
1711005307092,4183.755140495719
1711005307132,5475.867713661399
1711005307172,6622.336738217622
1711005307212,7811.5626342634205
1711005307252,8588.41519255843
1711005307293,10507.38976851292
1711005307332,12168.607964770868
1711005307373,11543.02609973913
1711005307413,7524.762293265201
1711005307453,3454.450478548417
1711005307494,552.0974820610136
1711005307533,-1249.088297390379
1711005307573,-2630.086802481208
1711005307613,-2287.89791167574
1711005307653,-1368.020491803065
1711005307694,-1277.6283860728145
1711005307734,-1193.6149964062497
1711005307774,-533.2903350605629
1711005307814,-367.4647124852054
1711005307854,1847.2743979422376
1711005307895,3888.018679921981
1711005307934,5171.231042175321
1711005307974,6607.04538888135
1711005308015,8460.875766879413
1711005308055,9777.158490054542
1711005308096,11324.313129393617
1711005308135,12247.966839503497
1711005308175,13754.676715057809
1711005308215,11847.527373744873
1711005308255,7431.044277162524
1711005308296,4216.054974682163
1711005308336,1664.1094356351532
1711005308376,-317.371236422332
1711005308416,-1941.9323265440762
1711005308456,-2241.8537368553225
1711005308497,-2298.3710446143523
1711005308536,-2984.3530770684592
1711005308576,-2407.0206529381685
1711005308617,-3768.1632843199186
1711005308656,423.08371393661946
1711005308697,1176.1941233610269
1711005308737,2548.3277437584475
1711005308777,3398.144655772252
1711005308820,4467.244654622395
1711005308857,5937.109414630337
1711005308898,7224.767729530577
1711005308937,8235.544280701783
1711005308977,9181.579365977086
1711005309017,9605.255087291123
1711005309057,5525.892066575354
1711005309098,697.8501404023264
1711005309138,-3497.7352820262313
1711005309178,-7037.910428228788
1711005309218,-8854.86147024692
1711005309258,-10159.548296622233
1711005309299,-10611.901558629237
1711005309338,-10903.131043866742
1711005309378,-11096.020759976935
1711005309418,-10683.44317990169
1711005309459,-10920.037781308172
1711005309499,-9452.408727631206
1711005309539,-8492.672158886911
1711005309579,-7251.861314122099
1711005309619,-5660.754516339162
1711005309659,-4217.23634057818
1711005309700,-2455.663032723125
1711005309739,-944.733287927229
1711005309779,845.5979113210924
1711005309819,3310.0470364487264
1711005309859,4597.193604200613
1711005309900,6396.003740770975
1711005309940,-472.33858773997054
1711005309980,-4907.82807263732
1711005310020,-7801.741207282059
1711005310060,-9455.010401101317
1711005310101,-11130.38528318284
1711005310140,-11707.265316389035
1711005310180,-11518.023055044701
1711005310220,-11639.090535475407
1711005310261,-11440.870904274518
1711005310301,-8175.970412282972
1711005310341,-6515.238886054605
1711005310381,-5675.5203571065795
1711005310421,-4616.776056578383
1711005310461,-3528.8232160652988
1711005310502,-2349.3392321818974
1711005310541,-573.6387464506552
1711005310581,817.1278860988095
1711005310622,2235.5521476634312
1711005310662,3666.320312996395
1711005310702,3325.8386568313
1711005310742,-408.14055999880657
1711005310782,-4954.924771149177
1711005310822,-7766.4434952386655
1711005310862,-9764.253333572065
1711005310903,-11124.43468386028
1711005310942,-11367.059942355845
1711005310983,-11424.285643454641
1711005311026,-10883.249802242266
1711005311063,-10702.95012944378
1711005311104,-10680.991041579284
1711005311143,-9366.35351206339
1711005311183,-7934.4032732043415
1711005311223,-5884.96624759282
1711005311264,-4045.5577511033043
1711005311304,-2970.478754879907
1711005311344,-1135.7859437621664
1711005311384,968.2263481291011
1711005311424,1990.0536348014139
1711005311464,-386.72154571209103
1711005311505,-4085.0256236428395
1711005311544,-7464.712439847179
1711005311584,-12690.29347058176
1711005311625,-14983.076108529232
1711005311664,-14102.74128244794
1711005311705,-13605.318465026561
1711005311745,-13347.270527510671
1711005311785,-13338.66472093016
1711005311825,-13567.966124063125
1711005311865,-13158.077377509791
1711005311906,-11795.698422042886
1711005311945,-10316.611314047128
1711005311986,-8679.852612857241
1711005312026,-6605.2241380277555
1711005312066,-4353.326307348907
1711005312107,-2542.213809061097
1711005312146,-1272.5520256287418
1711005312186,589.6977876783349
1711005312226,926.0468251314014
1711005312266,-3273.521324031288
1711005312307,-7484.522632269654
1711005312347,-11376.99324353179
1711005312387,-14064.688614760293
1711005312427,-16444.52360602119
1711005312467,-20443.78686280828
1711005312508,-18424.77002000902
1711005312547,-18911.091907678638
1711005312588,-16528.664721869864
1711005312628,-14018.716174368281
1711005312668,-11819.075160235167
1711005312709,-8815.131065516267
1711005312748,-5757.223674766254
1711005312788,-2177.4393840669654
1711005312829,2255.3282315917313
1711005312869,6174.451561565278
1711005312909,9069.520295293769
1711005312949,10982.528871879447
1711005312989,12520.007115127053
1711005313029,14084.778406344587
1711005313069,12754.799377670512
1711005313110,6730.733258275315
1711005313150,1885.6708177388646
1711005313190,-2434.79235397093
1711005313230,-6081.396802124567
1711005313270,-8990.460383177735
1711005313311,-10472.233760431409
1711005313350,-10991.141890774481
1711005313390,-11904.881619944936
1711005313431,-14083.299807603937
1711005313471,-12238.319795056013
1711005313511,-11657.506915564649
1711005313551,-10339.511136279907
1711005313591,-9642.035890656058
1711005313631,-7699.358195746783
1711005313671,-6470.5441452211235
1711005313712,-4431.3954249692615
1711005313752,1281.0200177973602
1711005313792,1675.5073591643013
1711005313832,3828.9479584037326
1711005313872,4690.696095390245
1711005313913,6184.6648037335835
1711005313952,3911.550411613658
1711005313993,-219.94582821102813
1711005314033,-3088.5279515513685
1711005314073,-6427.382086432073
1711005314114,-9611.51644544676
1711005314153,-11444.88062520232
1711005314193,-10910.306191406911
1711005314234,-10531.09828527039
1711005314274,-9661.528895880561
1711005314315,-9480.139333211584
1711005314354,-7676.28202026966
1711005314394,-4907.379067037255
1711005314434,-2842.3227843996137
1711005314474,-772.5886260424741
1711005314515,1206.6934086908586
1711005314555,2978.1175543284044
1711005314595,5153.786431925371
1711005314635,6381.297327523353
1711005314675,8262.268848021282
1711005314716,11989.7342857779
1711005314755,12399.021481130738
1711005314795,13670.000586270588
1711005314835,11878.649634189438
1711005314876,8789.182909702417
1711005314916,5650.510430746246
1711005314956,4034.6975502406713
1711005314996,2728.943350137444
1711005315036,1843.6234797539655
1711005315076,1831.6257260912098
1711005315117,1664.0014051478356
1711005315156,2261.266131837154
1711005315196,2514.361926329322
1711005315236,3586.9738616072573
1711005315276,5008.706007273868
1711005315317,5937.673326400109
1711005315357,7541.537082100054
1711005315397,9041.839948943583
1711005315437,10769.245617003413
1711005315477,12221.085033413954
1711005315518,13519.086419061292
1711005315557,13190.542272265535
1711005315597,10321.899754708633
1711005315637,7672.918604488019
1711005315677,5554.784719906282
1711005315718,3873.91905406164
1711005315758,3095.751562485937
1711005315798,4166.040008870652
1711005315838,4454.275097990176
1711005315878,4201.608303727815
1711005315919,4905.394603630062
1711005315958,5218.724322591443
1711005315998,6273.517835336039
1711005316038,7498.093860994559
1711005316079,9168.86814035452
1711005316119,10400.219288628781
1711005316159,10957.39245257806
1711005316199,12326.854390260996
1711005316239,13469.13779038703
1711005316279,13759.75104683498
1711005316320,10365.436765423045
1711005316359,6878.495183370309
1711005316399,4332.583708680468
1711005316440,1615.5736253305804
1711005316480,-119.36938704596832
1711005316520,-306.92751638474874
1711005316560,-700.8501865230501
1711005316600,-1114.769696754869
1711005316640,-1063.0753208408132
1711005316680,-567.6767922802828
1711005316721,488.4127311585471
1711005316760,1421.0048919855617
1711005316801,2879.6368965753354
1711005316840,4391.724117900012
1711005316881,6033.3485674732365
1711005316922,6656.234265393112
1711005316961,8219.466491762549
1711005317001,9411.16202336736
1711005317041,10734.603857963346
1711005317081,9811.66209415975
1711005317122,5620.566463870462
1711005317162,2096.118339857552
1711005317202,-289.63067091000266
1711005317242,-1545.2538365540095
1711005317282,-2666.323532881215
1711005317323,-2631.4247460681945
1711005317362,-3288.106253958773
1711005317402,-3068.955442636274
1711005317442,-2519.6261669339146
1711005317482,-1917.265912848059
1711005317523,-966.0956619945355
1711005317563,538.2963184863329
1711005317603,2056.4543605968356
1711005317643,3096.658137639519
1711005317683,4293.014698826941
1711005317724,4993.866374369478
1711005317763,6539.883388874587
1711005317803,7306.573929853039
1711005317843,9180.671315606218
1711005317884,11002.695195091888
1711005317924,10745.07228792645
1711005317964,7304.240320570767
1711005318004,4366.757989821024
1711005318044,2085.450861379504
1711005318084,633.617521425942
1711005318125,-48.057081209495664
1711005318164,56.23814292997122
1711005318205,566.4834504988976
1711005318245,461.4905330534093
1711005318285,852.0293277923483
1711005318326,1237.956564082764
1711005318365,1780.6943211648613
1711005318405,3041.626674897503
1711005318445,4494.230587597936
1711005318485,5504.768214885145
1711005318526,6704.898945225868
1711005318566,7434.912058472633
1711005318606,8955.436552979983
1711005318646,10192.574455656111
1711005318686,8825.600520077161
1711005318727,5548.985894107958
1711005318766,3307.6810767110437
1711005318806,1615.8499484637287
1711005318847,407.93863026658073
1711005318887,75.58481981791556
1711005318927,996.2403400959447
1711005318967,1292.2384732600767
1711005319007,1435.9794544721954
1711005319047,1122.947781942552
1711005319087,1861.5281568458304
1711005319128,2081.0704227648675
1711005319167,3093.4442393947393
1711005319208,4303.192933989689
1711005319248,5613.176141548436
1711005319288,6536.883743064012
1711005319329,7990.3952352334745
1711005319368,9074.657461140072
1711005319408,6381.727315231226
1711005319449,2489.3192450106144
1711005319489,-1165.0986024839804
1711005319529,-3654.649286190048
1711005319569,-5538.921715400647
1711005319609,-5787.199761772994
1711005319649,-5650.608979084995
1711005319689,-5632.379787295591
1711005319730,-5696.535221602069
1711005319770,-5327.074623579392
1711005319810,-5027.42997844005
1711005319850,-3897.1514109962154
1711005319890,-2493.0204743165523
1711005319931,-507.5763700241223
1711005319970,1139.039866117062
1711005320011,2158.5654203342274
1711005320051,3169.2931462435517
1711005320091,4766.72427122877
1711005320132,5182.477460917551
1711005320171,1532.99714509584
1711005320211,-3005.8744905793574
1711005320251,-6602.358627312817
1711005320292,-9094.411376476288
1711005320332,-11080.67473121453
1711005320372,-12147.969200271647
1711005320412,-12074.087512104306
1711005320452,-11770.79811970098
1711005320492,-11550.861721452558
1711005320533,-10980.85119479429
1711005320573,-10053.334266079357
1711005320613,-8979.523118955549
1711005320653,-7570.907684430946
1711005320693,-5675.389437119942
1711005320734,-2893.580324338982
1711005320773,-1185.145767975133
1711005320813,905.7763380557299
1711005320853,2886.285782470368
1711005320894,3296.93772464199
1711005320934,-365.56147827999666
1711005320974,-4021.3931741085835
1711005321014,-7024.406184570398
1711005321054,-9577.136066887993
1711005321094,-10480.406144458335
1711005321135,-10445.681539275218
1711005321174,-10653.232493100455
1711005321214,-10884.736870866269
1711005321254,-10721.921458501136
1711005321294,-10120.017792524071
1711005321335,-8885.771275103092
1711005321375,-7514.677740526851
1711005321415,-6334.8596629863605
1711005321455,-4985.1191146529745
1711005321495,-3529.432562754955
1711005321536,-1568.6906034469139
1711005321575,362.9845017560292
1711005321615,1630.1173772942275
1711005321655,-633.3177617196925
1711005321695,-4380.17462197179
1711005321736,-7391.911021871725
1711005321776,-9677.170992559288
1711005321816,-11641.976372914854
1711005321856,-11355.091587529983
1711005321896,-11132.48825160833
1711005321937,-11273.076189388987
1711005321976,-11220.665486732963
1711005322016,-10481.869460686808
1711005322057,-9469.080206835875
1711005322097,-8459.40904503013
1711005322138,-6953.163954500342
1711005322177,-4897.918053549249
1711005322217,-3061.5704183885828
1711005322257,-1208.5633592223749
1711005322297,613.0254041517619
1711005322338,2316.6380290410016
1711005322378,-384.17983511136845
1711005322418,-4857.5692842004355
1711005322458,-8021.835416434798
1711005322498,-10981.191741851624
1711005322539,-12934.917246154044
1711005322578,-13877.99688330898
1711005322618,-13487.944856025744
1711005322658,-13788.828251932515
1711005322699,-13517.719266579254
1711005322739,-12993.339336462319
1711005322779,-11931.831385227386
1711005322819,-10736.522108484758
1711005322859,-9150.00274133985
1711005322899,-7418.673066081479
1711005322940,-5193.052052889019
1711005322979,-3196.2907035015523
1711005323020,-1298.0968774817884
1711005323060,626.1334795055445
1711005323100,2632.806844511535
1711005323141,3636.313547679223
1711005323180,56.7584463164676
1711005323220,-3650.55525897583
1711005323260,-7574.775393859716
1711005323301,-10433.289342722856
1711005323341,-12537.951378015568
1711005323381,-12646.561838363763
1711005323421,-13072.743706807727
1711005323461,-13208.666430367157
1711005323501,-12820.20936861448
1711005323542,-12335.066531190649
1711005323581,-10866.600393864093
1711005323621,-9149.019472331041
1711005323662,-7392.011942517245
1711005323702,-5763.7544325653
1711005323743,-4248.16507129604
1711005323782,-2261.4139002275188
1711005323822,-388.05813780939206
1711005323862,1662.5589335535187
1711005323903,3385.7459841489326
1711005323943,6069.111564169638
1711005323983,8773.684210548643
1711005324023,9382.638722416712
1711005324063,5428.431750675663
1711005324103,1211.043970974395
1711005324144,-1627.6292497082613
1711005324183,-3944.0942653089296
1711005324224,-6298.1924727524165
1711005324264,-6885.023625772446
1711005324304,-6976.002156146569
1711005324345,-6812.234410860343
1711005324384,-6867.473315631039
1711005324424,-6164.783861092292
1711005324464,-4818.64208687772
1711005324505,-3254.3854472292587
1711005324545,-1077.2886495648418
1711005324585,962.5632572632749
1711005324625,2883.290727722924
1711005324665,4067.4417509909254
1711005324705,6280.773820552975
1711005324746,8004.61391229392
1711005324786,9442.960602737032
1711005324826,11363.699094818672
1711005324866,13452.488011367619
1711005324906,14385.104211972328
1711005324947,11284.350361060351
1711005324987,7841.219135709573
1711005325027,4896.832720043603
1711005325067,2967.0651325425133
1711005325107,1807.0037566351239
1711005325148,1143.9541426501237
1711005325187,1053.9775776138995
1711005325227,1094.0704023344442
1711005325268,913.3357106945477
1711005325308,1317.6953731607646
1711005325349,2031.590163625311
1711005325388,3386.222803643439
1711005325428,4224.632677627727
1711005325469,5975.038726466941
1711005325509,7408.056872268207
1711005325549,9510.38198272651
1711005325589,10931.749785261229
1711005325629,12525.690020442009
1711005325669,13886.772897674702
1711005325709,13898.566970732994
1711005325750,10375.907568453811
1711005325790,6713.943643841427
1711005325830,4387.186939951032
1711005325870,2285.5520879379474
1711005325910,1562.988169103628
1711005325951,1757.1346489479765
1711005325991,2108.5247950977646
1711005326031,2547.628972661216
1711005326071,3478.8500824733637
1711005326111,3851.5926500251517
1711005326152,4996.12528171856
1711005326192,6130.9538193338085
1711005326232,7196.0427844384685
1711005326272,8287.756335055921
1711005326312,9906.618425493129
1711005326353,11437.304080866743
1711005326392,12601.308511370327
1711005326432,14080.806533667026
1711005326472,13205.890483012889
1711005326512,9702.422124058241
1711005326553,6170.965204365086
1711005326593,2899.598039575387
1711005326633,1288.1266746937763
1711005326673,-85.05083605600521
1711005326713,-209.59080229559913
1711005326754,-242.34449060447514
1711005326793,-495.10478379623964
1711005326833,-712.947892267257
1711005326874,-481.7127377539873
1711005326914,331.3272675606422
1711005326954,2049.05137259583
1711005326994,2987.6449663767125
1711005327034,4143.2411579878535
1711005327074,5631.76058417419
1711005327114,6898.169461624697
1711005327155,8159.247611518949
1711005327194,9604.37990316609
1711005327235,10085.726031541359
1711005327275,6970.684256069362
1711005327315,3070.3343079201877
1711005327356,-139.3265971748624
1711005327395,-2426.5004783337936
1711005327435,-4844.44254802377
1711005327475,-5213.829793847632
1711005327516,-5070.902186725289
1711005327556,-4873.7360467789695
1711005327596,-5140.587054229109
1711005327636,-5104.193206753116
1711005327676,-4331.102903114166
1711005327716,-3368.32555258926
1711005327757,-1802.3101695722435
1711005327796,-570.9385489451233
1711005327836,579.3205167849082
1711005327877,2629.3400514014065
1711005327917,3497.1177607332356
1711005327957,4748.052755624056
1711005327997,6121.405307852197
1711005328037,7586.657345082378
1711005328077,8968.498662824742
1711005328117,5746.482764357235
1711005328158,2647.4451851928607
1711005328197,-115.5146256252192
1711005328238,-2824.2535219097044
1711005328278,-4501.261410277337
1711005328318,-5110.385728680994
1711005328359,-5187.948288691929
1711005328398,-5170.777068011463
1711005328438,-5152.562461477704
1711005328479,-4656.134068572428
1711005328519,-3546.7577563582454
1711005328559,-2229.0700875467155
1711005328599,-1135.0270456490107
1711005328639,-168.47017820039764
1711005328679,1558.862654987257
1711005328719,3131.9008770822547
1711005328760,3991.6942084052134
1711005328799,5289.371970483568
1711005328840,6019.267827365082
1711005328880,7618.314155138098
1711005328920,8990.461768443696
1711005328961,9273.065338494256
1711005329000,5829.305778257083
1711005329040,2203.9029447133653
1711005329081,-1177.6305691529997
1711005329121,-3400.1319992062636
1711005329161,-5409.385034200037
1711005329201,-5233.12613561633
1711005329241,-4981.202835122123
1711005329281,-4630.398784591816
1711005329321,-4513.035779183032
1711005329362,-4555.809743740363
1711005329401,-3563.209727577865
1711005329442,-2996.4278668193147
1711005329482,-1476.5865584730636
1711005329522,-73.44726879964583
1711005329563,1048.509986561723
1711005329602,2396.9675614675507
1711005329642,3749.83242708561
1711005329683,5300.2985988850705
1711005329723,6617.801100894809
1711005329764,8010.324015717953
1711005329803,7119.806014266564
1711005329843,3801.752975547686
1711005329883,689.3433355269954
1711005329924,-1069.4238811277319
1711005329964,-2961.512652839534
1711005330004,-3447.3284291881137
1711005330044,-3237.7006020718254
1711005330084,-3241.071454344783
1711005330124,-2763.704863602761
1711005330165,-2670.744771643309
1711005330205,-1917.5766192649025
1711005330245,-866.55931173102
1711005330285,369.65039344271645
1711005330325,1835.8262369162403
1711005330366,3112.3891459619626
1711005330405,4297.2184030609205
1711005330445,6086.608077746583
1711005330486,7333.722787777893
1711005330526,8149.020753156627
1711005330567,5875.069990413729
1711005330606,2165.7728254657704
1711005330646,-638.4851859696209
1711005330686,-2835.454626132734
1711005330727,-4269.965592801105
1711005330768,-4541.549772257451
1711005330807,-4272.347385309637
1711005330847,-4256.855829268694
1711005330887,-4257.220207132865
1711005330927,-3717.47201640578
1711005330968,-2781.05199142755
1711005331008,-1320.9565514507703
1711005331048,-429.9016709511634
1711005331088,900.7832402214408
1711005331128,2314.670617787866
1711005331169,3665.8588397030253
1711005331208,5103.2033211993985
1711005331248,6660.8007786069065
1711005331288,8153.728612057865
1711005331329,7226.5655090208165
1711005331370,3279.6032759312075
1711005331409,-110.49138418817893
1711005331449,-2832.5623740460724
1711005331489,-4658.404807921033
1711005331529,-6104.348611205351
1711005331570,-6276.840618553804
1711005331610,-6147.052034608554
1711005331650,-5930.0952813941985
1711005331690,-5126.64187547937
1711005331730,-4234.748636262491
1711005331771,-3356.842153476551
1711005331810,-2200.4817367636133
1711005331850,-1244.3736726271454
1711005331890,131.4611463707406
1711005331931,2160.135883649811
1711005331971,4105.261303225998
1711005332011,5458.805514596868
1711005332051,6736.710946362698
1711005332091,7998.44057978224
1711005332131,7623.786410762696
1711005332172,2998.5180068998598
1711005332211,-1070.3694023168646
1711005332251,-4443.284520918271
1711005332292,-7018.561889464734
1711005332332,-9040.80456801923
1711005332372,-8694.945974951144
1711005332412,-8405.777347728843
1711005332452,-8314.383630310185
1711005332492,-8306.779616993852
1711005332532,-7605.969036671799
1711005332573,-6635.568073662929
1711005332612,-6003.356794043211
1711005332653,-4604.0929727838375
1711005332693,-3193.9998320653103
1711005332733,-1801.528199654771
1711005332774,-995.9150823855307
1711005332813,506.9003216919955
1711005332853,2519.0199513472617
1711005332893,3911.561508539133
1711005332933,5771.605505146552
1711005332974,7489.904872129671
1711005333014,8342.008992118994
1711005333054,5268.719642567914
1711005333094,1229.2373858292121
1711005333134,-2188.6787750779185
1711005333175,-4774.245438501239
1711005333214,-7006.171375616454
1711005333254,-8238.520016405964
1711005333295,-7918.138757990906
1711005333335,-7869.4106969079
1711005333375,-8024.876050816849
1711005333415,-8016.212235514075
1711005333455,-6909.215877807699
1711005333495,-5531.54010715615
1711005333535,-4115.755032506306
1711005333576,-2667.8241021502763
1711005333615,-831.5144498571754
1711005333656,237.34458840312436
1711005333696,1348.2718055406585
1711005333736,2537.5162249235436
1711005333777,4231.375058191363
1711005333816,5890.226695208345
1711005333856,7523.190092921257
1711005333896,9680.526897650212
1711005333936,10809.461899685673
1711005333977,7490.478313652333
1711005334017,3402.001472636359
1711005334057,1082.5813989639282
1711005334097,-1413.6471983501688
1711005334137,-3650.0941673535854
1711005334178,-4239.786032059696
1711005334217,-4096.573603932746
1711005334257,-4234.477663338184
1711005334297,-3679.5748592123855
1711005334338,-3099.2281272718683
1711005334379,-2301.646516363602
1711005334418,-1112.715897460468
1711005334458,-125.87041280185804
1711005334498,1287.7301257164218
1711005334538,2421.512025748845
1711005334579,3717.1990239429288
1711005334619,5193.185227444628
1711005334659,6848.5090051977895
1711005334699,8764.051152870059
1711005334739,10353.044921976514
1711005334780,12162.235410074703
1711005334819,13210.554771822412
1711005334859,10905.578881762922
1711005334899,6712.200383266434
1711005334940,3630.207234503934
1711005334980,1349.1880652620457
1711005335020,100.01955590490252
1711005335060,-630.031051187776
1711005335100,-683.4648369294591
1711005335140,-1272.2665723038372
1711005335181,-1224.9157083488535
1711005335221,-430.4376153347548
1711005335261,-71.75969059858471
1711005335301,1075.7996395817026
1711005335341,1766.9524282878265
1711005335382,2867.407602599589
1711005335421,3726.9769551046193
1711005335461,5189.6161501707975
1711005335501,6415.364077147795
1711005335542,7725.5190821914
1711005335582,8872.039824450854
1711005335622,10110.555531210732
1711005335662,8682.677117992658
1711005335702,5197.3331793700345
1711005335742,2764.009894997813
1711005335783,458.27884725038894
1711005335823,-685.647667247802
1711005335863,-740.8413174692541
1711005335903,-370.89534179354087
1711005335943,-183.04366811807267
1711005335984,-257.80928285978734
1711005336023,105.64140375517309
1711005336064,414.0558089350816
1711005336104,1161.9044979396276
1711005336144,1808.1218806244433
1711005336185,3132.6766616120003
1711005336224,4036.036255917046
1711005336264,5215.553171747597
1711005336304,6471.130312023219
1711005336344,7431.1338014872745
1711005336385,8157.484503051732
1711005336425,5759.915186272468
1711005336465,1786.089730232954
1711005336505,-1922.6889218350407
1711005336545,-3928.327576436568
1711005336586,-6170.965052025393
1711005336625,-6813.377590710763
1711005336666,-6475.425757481251
1711005336706,-6334.415518039372
1711005336746,-6505.907387506217
1711005336787,-5957.848857416771
1711005336826,-5327.611462361179
1711005336866,-4362.1984994167
1711005336907,-3458.2741433957126
1711005336947,-2449.9631061675027
1711005336987,-924.3797029182315
1711005337027,259.11945904698223
1711005337067,1472.4921657152008
1711005337107,2827.697764765937
1711005337147,3974.1384062885772
1711005337188,3452.276144523872
1711005337228,-797.155130719766
1711005337268,-4395.5112742250785
1711005337308,-7606.726507707965
1711005337348,-10163.97137471661
1711005337389,-11590.742740441812
1711005337428,-11531.612352838274
1711005337468,-11790.886620745063
1711005337509,-11955.390116825234
1711005337549,-12170.52548915497
1711005337589,-12387.09642789117
1711005337629,-11372.583048203494
1711005337669,-10435.259259828366
1711005337709,-8750.007500084117
1711005337749,-7452.363121204311
1711005337790,-5703.3568138289265
1711005337829,-3807.461912627099
1711005337869,-1688.1824058899656
1711005337909,93.86932354792953
1711005337949,1596.8400802086107
1711005337990,3610.7385753402486
1711005338030,2502.050638130866
1711005338070,-1406.1183883377817
1711005338110,-5300.592843051534
1711005338150,-8637.885222930694
