dataReceived,timestamp,ppg,status
1711005203346,1711005191261,2097152,0
1711005203346,1711005191299,2394637,0
1711005203346,1711005191340,2394371,0
1711005203346,1711005191379,2394381,0
1711005203346,1711005191419,2394353,0
1711005203346,1711005191459,2394329,0
1711005203346,1711005191500,2394334,0
1711005203346,1711005191541,2394529,0
1711005203346,1711005191580,2394732,0
1711005203346,1711005191620,2395064,0
1711005203346,1711005191660,2127908,0
1711005203346,1711005191700,2128238,0
1711005203346,1711005191741,2128625,0
1711005203346,1711005191780,2128921,0
1711005203346,1711005191821,2129344,0
1711005203346,1711005191861,2099609,0
1711005203346,1711005191901,2100578,0
1711005203346,1711005191942,2101427,0
1711005203346,1711005191981,2102335,0
1711005203346,1711005192021,2103370,0
1711005203346,1711005192061,2113069,0
1711005203346,1711005192102,2107302,0
1711005203346,1711005192143,2102112,0
1711005203346,1711005192182,2098441,0
1711005203346,1711005192222,2095831,0
1711005203346,1711005192262,2093546,0
1711005203346,1711005192302,2092667,0
1711005203346,1711005192343,2092608,0
1711005203346,1711005192382,2092362,0
1711005203346,1711005192422,2092163,0
1711005203346,1711005192463,2092369,0
1711005203346,1711005192503,2093040,0
1711005203346,1711005192544,2094241,0
1711005203346,1711005192583,2095709,0
1711005203346,1711005192623,2097335,0
1711005203346,1711005192663,2099182,0
1711005203346,1711005192703,2100981,0
1711005203346,1711005192744,2103032,0
1711005203346,1711005192783,2105045,0
1711005203346,1711005192823,2107320,0
1711005203346,1711005192863,2109467,0
1711005203346,1711005192903,2111838,0
1711005203346,1711005192945,2114329,0
1711005203346,1711005192984,2117138,0
1711005203346,1711005193024,2119236,0
1711005203346,1711005193064,2115970,0
1711005203346,1711005193104,2110283,0
1711005203346,1711005193145,2106589,0
1711005203346,1711005193184,2104298,0
1711005203346,1711005193224,2102645,0
1711005203346,1711005193264,2101911,0
1711005203346,1711005193304,2102289,0
1711005203346,1711005193345,2102738,0
1711005203346,1711005193384,2102942,0
1711005203346,1711005193425,2103142,0
1711005203346,1711005193467,2103901,0
1711005203346,1711005193505,2104925,0
1711005203346,1711005193546,2106244,0
1711005203346,1711005193585,2107656,0
1711005203346,1711005193625,2109237,0
1711005203346,1711005193665,2110846,0
1711005203346,1711005193705,2112594,0
1711005203346,1711005193746,2114407,0
1711005203346,1711005193785,2116456,0
1711005203346,1711005193825,2118695,0
1711005203346,1711005193866,2121067,0
1711005203346,1711005193906,2121901,0
1711005203346,1711005193947,2117775,0
1711005203346,1711005193986,2113704,0
1711005203346,1711005194026,2111199,0
1711005203346,1711005194066,2109672,0
1711005203346,1711005194106,2108754,0
1711005203346,1711005194147,2109142,0
1711005203346,1711005194186,2109676,0
1711005203346,1711005194226,2110273,0
1711005203346,1711005194267,2110527,0
1711005203346,1711005194307,2111451,0
1711005203346,1711005194348,2113123,0
1711005203346,1711005194387,2114988,0
1711005203346,1711005194427,2117251,0
1711005203346,1711005194467,2119609,0
1711005203346,1711005194507,2121951,0
1711005203346,1711005194548,2124551,0
1711005203346,1711005194587,2127340,0
1711005203346,1711005194628,2130068,0
1711005203346,1711005194667,2133072,0
1711005203346,1711005194708,2136585,0
1711005203346,1711005194749,2139052,0
1711005203346,1711005194788,2135870,0
1711005203346,1711005194828,2131763,0
1711005203346,1711005194868,2129303,0
1711005203346,1711005194908,2127810,0
1711005203346,1711005194949,2126637,0
1711005203346,1711005194989,2126203,0
1711005203346,1711005195028,2127379,0
1711005203346,1711005195069,2128359,0
1711005203346,1711005195109,2128844,0
1711005203346,1711005195150,2129465,0
1711005203346,1711005195189,2130436,0
1711005203346,1711005195229,2131836,0
1711005203346,1711005195269,2132968,0
1711005203346,1711005195309,2133786,0
1711005203346,1711005195351,2134406,0
1711005203346,1711005195390,2134945,0
1711005203346,1711005195430,2135669,0
1711005203346,1711005195470,2136343,0
1711005203346,1711005195510,2137412,0
1711005203346,1711005195551,2138762,0
1711005203346,1711005195590,2140470,0
1711005203346,1711005195630,2141687,0
1711005203346,1711005195673,2138178,0
1711005203346,1711005195711,2132603,0
1711005203346,1711005195752,2128143,0
1711005203346,1711005195791,2124808,0
1711005203346,1711005195831,2122153,0
1711005203346,1711005195871,2120072,0
1711005203346,1711005195911,2120122,0
1711005203346,1711005195952,2120738,0
1711005203346,1711005195991,2121728,0
1711005203346,1711005196031,2122888,0
1711005203346,1711005196072,2124819,0
1711005203346,1711005196112,2126913,0
1711005203346,1711005196153,2129301,0
1711005203346,1711005196192,2131680,0
1711005203346,1711005196232,2134228,0
1711005203346,1711005196272,2137276,0
1711005203346,1711005196312,2139881,0
1711005203346,1711005196353,2142494,0
1711005203346,1711005196392,2145051,0
1711005203346,1711005196433,2146553,0
1711005203346,1711005196473,2142782,0
1711005203346,1711005196513,2137964,0
1711005203346,1711005196554,2134710,0
1711005203346,1711005196593,2132576,0
1711005203346,1711005196633,2130928,0
1711005203346,1711005196673,2130389,0
1711005203346,1711005196713,2131069,0
1711005203346,1711005196755,2131913,0
1711005203346,1711005196794,2133146,0
1711005203346,1711005196834,2135022,0
1711005203346,1711005196874,2137078,0
1711005203346,1711005196914,2139614,0
1711005203346,1711005196955,2142142,0
1711005203346,1711005196994,2144561,0
1711005203346,1711005197035,2146950,0
1711005203346,1711005197075,2149449,0
1711005203346,1711005197115,2151657,0
1711005203346,1711005197156,2153915,0
1711005203346,1711005197195,2156078,0
1711005203346,1711005197235,2158060,0
1711005203346,1711005197276,2159772,0
1711005203346,1711005197316,2161179,0
1711005203346,1711005197357,2159765,0
1711005203346,1711005197396,2152560,0
1711005203346,1711005197436,2146624,0
1711005203346,1711005197476,2142429,0
1711005203346,1711005197516,2139132,0
1711005203346,1711005197557,2136343,0
1711005203346,1711005197597,2135084,0
1711005203346,1711005197637,2135123,0
1711005203346,1711005197677,2134892,0
1711005203346,1711005197717,2135019,0
1711005203346,1711005197758,2135829,0
1711005203346,1711005197797,2137229,0
1711005203346,1711005197838,2138905,0
1711005203346,1711005197878,2141293,0
1711005203346,1711005197918,2143762,0
1711005203346,1711005197959,2147753,0
1711005203346,1711005197998,2151951,0
1711005203346,1711005198038,2155383,0
1711005203346,1711005198078,2158085,0
1711005203346,1711005198119,2160049,0
1711005203346,1711005198160,2161588,0
1711005203346,1711005198199,2163085,0
1711005203346,1711005198239,2164619,0
1711005203346,1711005198279,2165871,0
1711005203346,1711005198319,2162295,0
1711005203346,1711005198361,2155546,0
1711005203346,1711005198400,2150860,0
1711005203346,1711005198440,2147853,0
1711005203346,1711005198480,2145351,0
1711005203346,1711005198520,2143745,0
1711005203346,1711005198561,2143410,0
1711005203346,1711005198601,2143185,0
1711005203346,1711005198641,2142754,0
1711005203346,1711005198681,2142423,0
1711005203346,1711005198721,2142812,0
1711005203346,1711005198762,2143543,0
1711005203346,1711005198801,2144646,0
1711005203346,1711005198841,2145859,0
1711005203346,1711005198881,2147158,0
1711005203346,1711005198921,2148152,0
1711005203346,1711005198963,2148796,0
1711005203346,1711005199002,2149704,0
1711005203346,1711005199042,2150811,0
1711005203346,1711005199082,2151637,0
1711005203346,1711005199122,2148654,0
1711005203346,1711005199163,2143076,0
1711005203346,1711005199202,2138564,0
1711005203346,1711005199242,2134918,0
1711005203346,1711005199282,2132097,0
1711005203346,1711005199323,2129817,0
1711005203346,1711005199364,2129248,0
1711005203346,1711005199403,2128583,0
1711005203346,1711005199443,2127864,0
1711005203346,1711005199483,2127147,0
1711005203346,1711005199523,2127192,0
1711005203346,1711005199564,2127663,0
1711005203346,1711005199603,2128450,0
1711005203346,1711005199643,2129431,0
1711005203346,1711005199684,2130532,0
1711005203346,1711005199724,2131919,0
1711005203346,1711005199765,2133120,0
1711005203346,1711005199804,2134319,0
1711005203346,1711005199844,2135924,0
1711005203346,1711005199884,2137763,0
1711005203346,1711005199924,2139635,0
1711005203346,1711005199965,2140283,0
1711005203346,1711005200004,2135969,0
1711005203346,1711005200045,2130282,0
1711005203346,1711005200085,2125910,0
1711005203346,1711005200125,2122204,0
1711005203346,1711005200166,2119061,0
1711005203346,1711005200205,2116783,0
1711005203346,1711005200245,2116077,0
1711005203346,1711005200285,2115590,0
1711005203346,1711005200325,2115178,0
1711005203346,1711005200366,2115051,0
1711005203346,1711005200405,2115477,0
1711005203346,1711005200445,2116135,0
1711005203346,1711005200486,2117193,0
1711005203346,1711005200526,2118657,0
1711005203346,1711005200567,2120409,0
1711005203346,1711005200606,2122354,0
1711005203346,1711005200646,2124615,0
1711005203346,1711005200686,2126753,0
1711005203346,1711005200726,2128817,0
1711005203346,1711005200767,2131005,0
1711005203346,1711005200806,2133039,0
1711005203346,1711005200846,2135257,0
1711005203346,1711005200887,2133778,0
1711005203346,1711005200927,2127987,0
1711005203346,1711005200968,2123179,0
1711005203346,1711005201007,2119766,0
1711005203346,1711005201047,2116705,0
1711005203346,1711005201087,2114337,0
1711005203346,1711005201127,2113467,0
1711005203346,1711005201168,2113104,0
1711005203346,1711005201207,2112507,0
1711005203346,1711005201248,2112189,0
1711005203346,1711005201288,2112293,0
1711005203346,1711005201328,2113092,0
1711005203346,1711005201369,2114041,0
1711005203346,1711005201408,2115022,0
1711005203346,1711005201448,2116193,0
1711005203346,1711005201488,2117234,0
1711005203346,1711005201528,2118318,0
1711005203346,1711005201569,2119005,0
1711005203346,1711005201609,2119825,0
1711005203346,1711005201649,2121125,0
1711005203346,1711005201689,2121941,0
1711005203346,1711005201729,2118831,0
1711005203346,1711005201770,2113663,0
1711005203346,1711005201809,2109264,0
1711005203346,1711005201849,2105649,0
1711005203346,1711005201889,2102680,0
1711005203346,1711005201930,2101054,0
1711005203346,1711005201971,2100657,0
1711005203346,1711005202010,2100361,0
1711005203346,1711005202050,2100185,0
1711005203346,1711005202090,2100284,0
1711005203346,1711005202130,2101029,0
1711005203346,1711005202171,2102594,0
1711005203346,1711005202210,2104671,0
1711005203346,1711005202250,2106891,0
1711005203346,1711005202291,2109518,0
1711005203346,1711005202331,2112671,0
1711005203346,1711005202372,2115831,0
1711005203346,1711005202411,2119543,0
1711005203346,1711005202451,2123550,0
1711005203346,1711005202491,2128333,0
1711005203346,1711005202531,2134236,0
1711005203346,1711005202573,2139042,0
1711005203346,1711005202612,2136561,0
1711005203346,1711005202652,2132988,0
1711005203346,1711005202692,2130970,0
1711005203346,1711005202732,2129387,0
1711005203346,1711005202773,2128511,0
1711005203346,1711005202812,2128859,0
1711005203346,1711005202853,2130553,0
1711005203346,1711005202893,2132136,0
1711005203346,1711005202933,2133386,0
1711005203346,1711005202974,2135074,0
1711005203346,1711005203013,2137149,0
1711005203346,1711005203053,2139389,0
1711005203346,1711005203093,2141557,0
1711005203346,1711005203134,2143549,0
1711005203346,1711005203175,2145640,0
1711005203346,1711005203214,2147954,0
1711005203346,1711005203254,2150201,0
1711005215385,1711005203292,2152370,0
1711005215385,1711005203332,2154557,0
1711005215385,1711005203373,2156011,0
1711005215385,1711005203413,2157071,0
1711005215385,1711005203453,2158210,0
1711005215385,1711005203493,2159388,0
1711005215385,1711005203533,2160185,0
1711005215385,1711005203574,2155537,0
1711005215385,1711005203613,2148423,0
1711005215385,1711005203654,2142835,0
1711005215385,1711005203694,2138300,0
1711005215385,1711005203734,2134133,0
1711005215385,1711005203775,2130679,0
1711005215385,1711005203814,2128724,0
1711005215385,1711005203854,2127277,0
1711005215385,1711005203895,2125889,0
1711005215385,1711005203935,2124551,0
1711005215385,1711005203976,2123977,0
1711005215385,1711005204015,2123907,0
1711005215385,1711005204055,2124248,0
1711005215385,1711005204095,2125024,0
1711005215385,1711005204136,2125767,0
1711005215385,1711005204177,2126665,0
1711005215385,1711005204216,2127398,0
1711005215385,1711005204256,2128041,0
1711005215385,1711005204296,2128655,0
1711005215385,1711005204336,2129357,0
1711005215385,1711005204377,2130425,0
1711005215385,1711005204416,2131911,0
1711005215385,1711005204457,2131317,0
1711005215385,1711005204497,2126322,0
1711005215385,1711005204537,2121537,0
1711005215385,1711005204578,2117902,0
1711005215385,1711005204617,2114933,0
1711005215385,1711005204657,2112910,0
1711005215385,1711005204698,2112233,0
1711005215385,1711005204738,2111884,0
1711005215385,1711005204779,2111259,0
1711005215385,1711005204818,2110620,0
1711005215385,1711005204858,2110499,0
1711005215385,1711005204898,2110974,0
1711005215385,1711005204939,2111834,0
1711005215385,1711005204980,2113228,0
1711005215385,1711005205019,2114417,0
1711005215385,1711005205059,2115781,0
1711005215385,1711005205099,2117034,0
1711005215385,1711005205139,2117661,0
1711005215385,1711005205180,2118444,0
1711005215385,1711005205219,2119330,0
1711005215385,1711005205259,2118698,0
1711005215385,1711005205299,2113648,0
1711005215385,1711005205340,2108655,0
1711005215385,1711005205381,2104566,0
1711005215385,1711005205420,2101345,0
1711005215385,1711005205460,2098619,0
1711005215385,1711005205500,2097473,0
1711005215385,1711005205540,2096964,0
1711005215385,1711005205581,2096316,0
1711005215385,1711005205620,2095780,0
1711005215385,1711005205660,2095658,0
1711005215385,1711005205701,2096221,0
1711005215385,1711005205741,2097028,0
1711005215385,1711005205782,2098324,0
1711005215385,1711005205821,2099580,0
1711005215385,1711005205861,2101083,0
1711005215385,1711005205901,2102591,0
1711005215385,1711005205941,2104238,0
1711005215385,1711005205982,2105877,0
1711005215385,1711005206021,2107566,0
1711005215385,1711005206061,2109616,0
1711005215385,1711005206101,2111653,0
1711005215385,1711005206141,2111383,0
1711005215385,1711005206183,2105956,0
1711005215385,1711005206222,2100625,0
1711005215385,1711005206262,2096322,0
1711005215385,1711005206302,2092486,0
1711005215385,1711005206342,2089211,0
1711005215385,1711005206383,2087053,0
1711005215385,1711005206422,2086269,0
1711005215385,1711005206462,2085313,0
1711005215385,1711005206503,2084046,0
1711005215385,1711005206543,2083104,0
1711005215385,1711005206584,2082908,0
1711005215385,1711005206623,2083115,0
1711005215385,1711005206663,2083964,0
1711005215385,1711005206703,2085110,0
1711005215385,1711005206743,2086558,0
1711005215385,1711005206784,2088121,0
1711005215385,1711005206824,2089884,0
1711005215385,1711005206864,2091913,0
1711005215385,1711005206904,2093922,0
1711005215385,1711005206944,2096333,0
1711005215385,1711005206985,2098872,0
1711005215385,1711005207024,2101561,0
1711005215385,1711005207064,2103578,0
1711005215385,1711005207104,2100268,0
1711005215385,1711005207145,2095239,0
1711005215385,1711005207185,2091942,0
1711005215385,1711005207225,2090036,0
1711005215385,1711005207265,2088821,0
1711005215385,1711005207305,2088598,0
1711005215385,1711005207345,2089752,0
1711005215385,1711005207386,2091536,0
1711005215385,1711005207425,2093406,0
1711005215385,1711005207466,2095675,0
1711005215385,1711005207506,2098308,0
1711005215385,1711005207546,2101474,0
1711005215385,1711005207587,2104777,0
1711005215385,1711005207626,2107995,0
1711005215385,1711005207666,2111197,0
1711005215385,1711005207706,2114390,0
1711005215385,1711005207747,2116860,0
1711005215385,1711005207787,2118554,0
1711005215385,1711005207827,2119351,0
1711005215385,1711005207867,2119850,0
1711005215385,1711005207907,2118990,0
1711005215385,1711005207947,2113093,0
1711005215385,1711005207988,2104482,0
1711005215385,1711005208027,2096602,0
1711005215385,1711005208068,2089209,0
1711005215385,1711005208108,2082452,0
1711005215385,1711005208148,2077049,0
1711005215385,1711005208189,2073503,0
1711005215385,1711005208228,2071635,0
1711005215385,1711005208268,2070633,0
1711005215385,1711005208308,2070731,0
1711005215385,1711005208349,2071365,0
1711005215385,1711005208389,2072669,0
1711005215385,1711005208429,2073835,0
1711005215385,1711005208469,2075406,0
1711005215385,1711005208509,2076924,0
1711005215385,1711005208549,2078700,0
1711005215385,1711005208590,2080642,0
1711005215385,1711005208630,2082586,0
1711005215385,1711005208670,2084883,0
1711005215385,1711005208710,2087291,0
1711005215385,1711005208750,2089902,0
1711005215385,1711005208791,2092373,0
1711005215385,1711005208830,2090151,0
1711005215385,1711005208870,2084261,0
1711005215385,1711005208911,2079200,0
1711005215385,1711005208951,2074779,0
1711005215385,1711005208992,2070711,0
1711005215385,1711005209031,2067035,0
1711005215385,1711005209071,2064883,0
1711005215385,1711005209111,2063468,0
1711005215385,1711005209151,2062179,0
1711005215385,1711005209192,2061431,0
1711005215385,1711005209232,2061055,0
1711005215385,1711005209272,2061177,0
1711005215385,1711005209312,2061834,0
1711005215385,1711005209352,2062385,0
1711005215385,1711005209393,2062883,0
1711005215385,1711005209433,2063646,0
1711005215385,1711005209473,2064449,0
1711005215385,1711005209513,2065451,0
1711005215385,1711005209553,2066497,0
1711005215385,1711005209594,2067662,0
1711005215385,1711005209633,2069038,0
1711005215385,1711005209673,2070620,0
1711005215385,1711005209713,2070782,0
1711005215385,1711005209754,2065820,0
1711005215385,1711005209795,2060006,0
1711005215385,1711005209834,2054771,0
1711005215385,1711005209874,2050161,0
1711005215385,1711005209914,2046125,0
1711005215385,1711005209954,2043391,0
1711005215385,1711005209995,2041952,0
1711005215385,1711005210035,2040881,0
1711005215385,1711005210075,2039925,0
1711005215385,1711005210115,2040079,0
1711005215385,1711005210155,2040885,0
1711005215385,1711005210196,2042272,0
1711005215385,1711005210236,2044335,0
1711005215385,1711005210276,2046911,0
1711005215385,1711005210316,2049775,0
1711005215385,1711005210356,2052932,0
1711005215385,1711005210397,2056392,0
1711005215385,1711005210436,2059799,0
1711005215385,1711005210476,2062821,0
1711005215385,1711005210517,2065549,0
1711005215385,1711005210557,2064923,0
1711005215385,1711005210598,2060579,0
1711005215385,1711005210637,2057082,0
1711005215385,1711005210677,2053840,0
1711005215385,1711005210717,2050945,0
1711005215385,1711005210758,2048311,0
1711005215385,1711005210798,2047625,0
1711005215385,1711005210838,2047226,0
1711005215385,1711005210878,2047078,0
1711005215385,1711005210918,2047541,0
1711005215385,1711005210958,2048434,0
1711005215385,1711005210999,2050048,0
1711005215385,1711005211038,2051784,0
1711005215385,1711005211078,2053592,0
1711005215385,1711005211118,2055432,0
1711005215385,1711005211158,2057435,0
1711005215385,1711005211199,2059808,0
1711005215385,1711005211239,2062058,0
1711005215385,1711005211279,2064238,0
1711005215385,1711005211319,2065899,0
1711005215385,1711005211359,2067521,0
1711005215385,1711005211400,2069570,0
1711005215385,1711005211439,2068650,0
1711005215385,1711005211479,2063416,0
1711005215385,1711005211519,2058928,0
1711005215385,1711005211559,2054862,0
1711005215385,1711005211600,2050935,0
1711005215385,1711005211639,2047477,0
1711005215385,1711005211680,2045541,0
1711005215385,1711005211720,2044852,0
1711005215385,1711005211760,2044026,0
1711005215385,1711005211801,2043353,0
1711005215385,1711005211840,2042987,0
1711005215385,1711005211880,2043379,0
1711005215385,1711005211920,2044110,0
1711005215385,1711005211960,2045158,0
1711005215385,1711005212001,2046388,0
1711005215385,1711005212041,2047735,0
1711005215385,1711005212081,2049233,0
1711005215385,1711005212121,2050837,0
1711005215385,1711005212161,2052490,0
1711005215385,1711005212202,2054359,0
1711005215385,1711005212241,2056361,0
1711005215385,1711005212281,2058264,0
1711005215385,1711005212321,2060541,0
1711005215385,1711005212361,2062593,0
1711005215385,1711005212402,2061955,0
1711005215385,1711005212442,2057107,0
1711005215385,1711005212482,2052693,0
1711005215385,1711005212522,2049095,0
1711005215385,1711005212562,2045780,0
1711005215385,1711005212603,2042912,0
1711005215385,1711005212642,2041792,0
1711005215385,1711005212682,2041274,0
1711005215385,1711005212722,2040577,0
1711005215385,1711005212763,2039983,0
1711005215385,1711005212804,2040028,0
1711005215385,1711005212843,2040521,0
1711005215385,1711005212883,2041485,0
1711005215385,1711005212923,2042897,0
1711005215385,1711005212963,2044734,0
1711005215385,1711005213004,2046834,0
1711005215385,1711005213043,2049503,0
1711005215385,1711005213083,2052372,0
1711005215385,1711005213124,2054855,0
1711005215385,1711005213164,2057876,0
1711005215385,1711005213204,2060951,0
1711005215385,1711005213244,2064455,0
1711005215385,1711005213284,2066296,0
1711005215385,1711005213324,2063314,0
1711005215385,1711005213364,2060474,0
1711005215385,1711005213405,2058275,0
1711005215385,1711005213444,2056503,0
1711005215385,1711005213485,2054598,0
1711005215385,1711005213525,2053580,0
1711005215385,1711005213565,2053508,0
1711005215385,1711005213606,2053528,0
1711005215385,1711005213645,2053710,0
1711005215385,1711005213685,2054351,0
1711005215385,1711005213725,2055683,0
1711005215385,1711005213766,2057527,0
1711005215385,1711005213806,2059851,0
1711005215385,1711005213846,2062076,0
1711005215385,1711005213886,2064277,0
1711005215385,1711005213926,2066641,0
1711005215385,1711005213966,2069005,0
1711005215385,1711005214007,2071554,0
1711005215385,1711005214046,2074230,0
1711005215385,1711005214086,2076901,0
1711005215385,1711005214127,2079883,0
1711005215385,1711005214167,2082885,0
1711005215385,1711005214208,2084028,0
1711005215385,1711005214247,2081436,0
1711005215385,1711005214287,2079002,0
1711005215385,1711005214327,2077130,0
1711005215385,1711005214367,2075484,0
1711005215385,1711005214408,2074387,0
1711005215385,1711005214448,2074667,0
1711005215385,1711005214488,2076185,0
1711005215385,1711005214528,2077697,0
1711005215385,1711005214568,2079401,0
1711005215385,1711005214609,2081824,0
1711005215385,1711005214648,2084850,0
1711005215385,1711005214688,2088225,0
1711005215385,1711005214729,2091799,0
1711005215385,1711005214769,2095451,0
1711005215385,1711005214809,2098603,0
1711005215385,1711005214849,2101992,0
1711005215385,1711005214889,2104956,0
1711005215385,1711005214929,2108181,0
1711005215385,1711005214969,2111548,0
1711005215385,1711005215010,2114716,0
1711005215385,1711005215049,2118318,0
1711005215385,1711005215090,2121828,0
1711005215385,1711005215130,2124829,0
1711005215385,1711005215170,2122653,0
1711005215385,1711005215211,2117144,0
1711005215385,1711005215250,2113241,0
1711005215385,1711005215290,2111118,0
1711005227423,1711005215330,2109658,0
1711005227423,1711005215370,2109343,0
1711005227423,1711005215411,2110161,0
1711005227423,1711005215451,2110689,0
1711005227423,1711005215491,2110993,0
1711005227423,1711005215531,2111266,0
1711005227423,1711005215571,2112267,0
1711005227423,1711005215612,2113570,0
1711005227423,1711005215651,2115194,0
1711005227423,1711005215692,2117044,0
1711005227423,1711005215732,2118952,0
1711005227423,1711005215772,2121104,0
1711005227423,1711005215813,2123408,0
1711005227423,1711005215852,2125889,0
1711005227423,1711005215892,2128750,0
1711005227423,1711005215932,2131856,0
1711005227423,1711005215972,2134341,0
1711005227423,1711005216013,2133550,0
1711005227423,1711005216053,2130743,0
1711005227423,1711005216093,2128104,0
1711005227423,1711005216133,2126867,0
1711005227423,1711005216173,2126670,0
1711005227423,1711005216214,2127792,0
1711005227423,1711005216253,2130253,0
1711005227423,1711005216294,2132457,0
1711005227423,1711005216334,2134318,0
1711005227423,1711005216374,2136109,0
1711005227423,1711005216415,2138159,0
1711005227423,1711005216454,2140016,0
1711005227423,1711005216494,2141789,0
1711005227423,1711005216535,2143550,0
1711005227423,1711005216575,2144895,0
1711005227423,1711005216616,2146098,0
1711005227423,1711005216655,2147151,0
1711005227423,1711005216695,2148339,0
1711005227423,1711005216735,2149549,0
1711005227423,1711005216776,2150991,0
1711005227423,1711005216816,2152767,0
1711005227423,1711005216856,2154573,0
1711005227423,1711005216896,2152116,0
1711005227423,1711005216936,2146536,0
1711005227423,1711005216976,2142221,0
1711005227423,1711005217017,2139200,0
1711005227423,1711005217056,2136926,0
1711005227423,1711005217097,2135480,0
1711005227423,1711005217137,2135299,0
1711005227423,1711005217177,2135247,0
1711005227423,1711005217218,2135072,0
1711005227423,1711005217257,2134679,0
1711005227423,1711005217297,2134815,0
1711005227423,1711005217337,2135304,0
1711005227423,1711005217377,2135993,0
1711005227423,1711005217418,2136894,0
1711005227423,1711005217457,2137730,0
1711005227423,1711005217498,2138652,0
1711005227423,1711005217538,2139683,0
1711005227423,1711005217578,2140699,0
1711005227423,1711005217619,2141966,0
1711005227423,1711005217658,2143641,0
1711005227423,1711005217698,2145348,0
1711005227423,1711005217738,2146326,0
1711005227423,1711005217778,2141741,0
1711005227423,1711005217819,2136033,0
1711005227423,1711005217859,2131485,0
1711005227423,1711005217898,2127824,0
1711005227423,1711005217939,2124850,0
1711005227423,1711005217979,2122869,0
1711005227423,1711005218019,2121833,0
1711005227423,1711005218059,2120670,0
1711005227423,1711005218099,2119220,0
1711005227423,1711005218139,2118105,0
1711005227423,1711005218179,2117499,0
1711005227423,1711005218220,2116969,0
1711005227423,1711005218259,2116547,0
1711005227423,1711005218299,2116364,0
1711005227423,1711005218340,2116617,0
1711005227423,1711005218380,2117387,0
1711005227423,1711005218420,2118072,0
1711005227423,1711005218460,2118657,0
1711005227423,1711005218500,2118850,0
1711005227423,1711005218540,2119536,0
1711005227423,1711005218580,2120673,0
1711005227423,1711005218621,2119319,0
1711005227423,1711005218660,2112860,0
1711005227423,1711005218701,2106325,0
1711005227423,1711005218741,2100125,0
1711005227423,1711005218781,2094246,0
1711005227423,1711005218822,2088856,0
1711005227423,1711005218861,2085068,0
1711005227423,1711005218901,2082170,0
1711005227423,1711005218941,2079564,0
1711005227423,1711005218981,2077032,0
1711005227423,1711005219022,2075062,0
1711005227423,1711005219062,2073796,0
1711005227423,1711005219101,2073109,0
1711005227423,1711005219142,2072927,0
1711005227423,1711005219182,2073253,0
1711005227423,1711005219223,2074059,0
1711005227423,1711005219262,2074961,0
1711005227423,1711005219302,2075919,0
1711005227423,1711005219342,2076877,0
1711005227423,1711005219382,2078121,0
1711005227423,1711005219423,2079587,0
1711005227423,1711005219463,2081186,0
1711005227423,1711005219503,2082513,0
1711005227423,1711005219543,2079309,0
1711005227423,1711005219583,2072317,0
1711005227423,1711005219624,2065428,0
1711005227423,1711005219663,2059478,0
1711005227423,1711005219703,2053770,0
1711005227423,1711005219743,2049118,0
1711005227423,1711005219784,2046889,0
1711005227423,1711005219824,2045507,0
1711005227423,1711005219864,2043836,0
1711005227423,1711005219904,2042628,0
1711005227423,1711005219944,2041783,0
1711005227423,1711005219984,2041625,0
1711005227423,1711005220025,2042029,0
1711005227423,1711005220064,2042877,0
1711005227423,1711005220105,2043857,0
1711005227423,1711005220145,2044856,0
1711005227423,1711005220185,2046125,0
1711005227423,1711005220226,2047129,0
1711005227423,1711005220265,2048370,0
1711005227423,1711005220305,2049834,0
1711005227423,1711005220345,2052199,0
1711005227423,1711005220386,2054955,0
1711005227423,1711005220426,2054739,0
1711005227423,1711005220466,2049349,0
1711005227423,1711005220506,2044330,0
1711005227423,1711005220546,2040288,0
1711005227423,1711005220586,2037703,0
1711005227423,1711005220627,2036065,0
1711005227423,1711005220666,2035992,0
1711005227423,1711005220707,2036337,0
1711005227423,1711005220747,2036395,0
1711005227423,1711005220787,2036121,0
1711005227423,1711005220828,2036081,0
1711005227423,1711005220867,2036243,0
1711005227423,1711005220907,2036797,0
1711005227423,1711005220947,2037733,0
1711005227423,1711005220988,2038659,0
1711005227423,1711005221028,2039802,0
1711005227423,1711005221068,2041202,0
1711005227423,1711005221108,2042898,0
1711005227423,1711005221148,2044880,0
1711005227423,1711005221188,2047515,0
1711005227423,1711005221229,2049155,0
1711005227423,1711005221269,2045955,0
1711005227423,1711005221309,2041072,0
1711005227423,1711005221349,2037063,0
1711005227423,1711005221389,2033765,0
1711005227423,1711005221430,2031509,0
1711005227423,1711005221470,2030555,0
1711005227423,1711005221510,2030389,0
1711005227423,1711005221550,2030022,0
1711005227423,1711005221590,2029438,0
1711005227423,1711005221631,2029454,0
1711005227423,1711005221670,2030173,0
1711005227423,1711005221710,2031389,0
1711005227423,1711005221750,2032803,0
1711005227423,1711005221791,2034739,0
1711005227423,1711005221832,2036585,0
1711005227423,1711005221871,2038654,0
1711005227423,1711005221911,2041066,0
1711005227423,1711005221951,2042463,0
1711005227423,1711005221991,2039012,0
1711005227423,1711005222032,2034722,0
1711005227423,1711005222072,2030946,0
1711005227423,1711005222112,2028504,0
1711005227423,1711005222152,2026853,0
1711005227423,1711005222192,2026557,0
1711005227423,1711005222233,2027049,0
1711005227423,1711005222272,2027244,0
1711005227423,1711005222313,2027457,0
1711005227423,1711005222353,2028167,0
1711005227423,1711005222393,2029385,0
1711005227423,1711005222434,2030887,0
1711005227423,1711005222473,2032825,0
1711005227423,1711005222513,2034818,0
1711005227423,1711005222554,2036986,0
1711005227423,1711005222594,2039330,0
1711005227423,1711005222635,2041710,0
1711005227423,1711005222674,2044238,0
1711005227423,1711005222714,2045423,0
1711005227423,1711005222754,2041721,0
1711005227423,1711005222795,2037319,0
1711005227423,1711005222835,2033848,0
1711005227423,1711005222875,2031297,0
1711005227423,1711005222915,2029733,0
1711005227423,1711005222955,2029195,0
1711005227423,1711005222995,2029832,0
1711005227423,1711005223036,2030396,0
1711005227423,1711005223076,2031123,0
1711005227423,1711005223116,2033401,0
1711005227423,1711005223156,2035517,0
1711005227423,1711005223196,2037760,0
1711005227423,1711005223237,2040263,0
1711005227423,1711005223276,2043081,0
1711005227423,1711005223316,2045941,0
1711005227423,1711005223356,2048458,0
1711005227423,1711005223397,2051220,0
1711005227423,1711005223437,2054113,0
1711005227423,1711005223477,2057424,0
1711005227423,1711005223517,2060369,0
1711005227423,1711005223557,2058319,0
1711005227423,1711005223597,2054763,0
1711005227423,1711005223638,2052285,0
1711005227423,1711005223677,2050616,0
1711005227423,1711005223717,2049897,0
1711005227423,1711005223758,2050059,0
1711005227423,1711005223798,2051891,0
1711005227423,1711005223839,2054699,0
1711005227423,1711005223878,2058196,0
1711005227423,1711005223918,2061653,0
1711005227423,1711005223958,2065531,0
1711005227423,1711005223998,2068927,0
1711005227423,1711005224039,2071669,0
1711005227423,1711005224079,2074225,0
1711005227423,1711005224119,2076222,0
1711005227423,1711005224159,2078437,0
1711005227423,1711005224199,2080586,0
1711005227423,1711005224240,2082897,0
1711005227423,1711005224279,2085451,0
1711005227423,1711005224319,2087368,0
1711005227423,1711005224359,2084457,0
1711005227423,1711005224399,2079604,0
1711005227423,1711005224440,2076249,0
1711005227423,1711005224480,2075041,0
1711005227423,1711005224520,2074326,0
1711005227423,1711005224560,2074633,0
1711005227423,1711005224600,2075953,0
1711005227423,1711005224641,2076833,0
1711005227423,1711005224680,2076772,0
1711005227423,1711005224720,2076899,0
1711005227423,1711005224760,2077294,0
1711005227423,1711005224801,2077909,0
1711005227423,1711005224842,2078879,0
1711005227423,1711005224881,2079947,0
1711005227423,1711005224921,2081371,0
1711005227423,1711005224961,2082841,0
1711005227423,1711005225001,2084628,0
1711005227423,1711005225042,2086427,0
1711005227423,1711005225082,2088248,0
1711005227423,1711005225122,2090091,0
1711005227423,1711005225162,2091805,0
1711005227423,1711005225202,2089641,0
1711005227423,1711005225243,2084537,0
1711005227423,1711005225282,2080350,0
1711005227423,1711005225322,2077221,0
1711005227423,1711005225362,2074400,0
1711005227423,1711005225402,2072231,0
1711005227423,1711005225443,2071506,0
1711005227423,1711005225483,2070986,0
1711005227423,1711005225523,2070385,0
1711005227423,1711005225563,2069886,0
1711005227423,1711005225603,2069692,0
1711005227423,1711005225644,2070349,0
1711005227423,1711005225683,2071483,0
1711005227423,1711005225723,2072675,0
1711005227423,1711005225764,2074189,0
1711005227423,1711005225804,2075635,0
1711005227423,1711005225845,2077283,0
1711005227423,1711005225884,2079147,0
1711005227423,1711005225924,2081759,0
1711005227423,1711005225964,2084796,0
1711005227423,1711005226004,2088166,0
1711005227423,1711005226045,2090675,0
1711005227423,1711005226085,2088381,0
1711005227423,1711005226125,2085477,0
1711005227423,1711005226165,2083844,0
1711005227423,1711005226205,2084539,0
1711005227423,1711005226246,2085789,0
1711005227423,1711005226285,2087192,0
1711005227423,1711005226325,2088592,0
1711005227423,1711005226366,2089212,0
1711005227423,1711005226406,2089551,0
1711005227423,1711005226447,2090087,0
1711005227423,1711005226486,2091329,0
1711005227423,1711005226526,2092584,0
1711005227423,1711005226566,2093859,0
1711005227423,1711005226607,2094970,0
1711005227423,1711005226647,2095971,0
1711005227423,1711005226687,2097412,0
1711005227423,1711005226727,2099716,0
1711005227423,1711005226767,2101495,0
1711005227423,1711005226807,2098712,0
1711005227423,1711005226848,2094887,0
1711005227423,1711005226888,2091926,0
1711005227423,1711005226928,2089460,0
1711005227423,1711005226968,2087552,0
1711005227423,1711005227008,2086942,0
1711005227423,1711005227049,2086617,0
1711005227423,1711005227088,2086171,0
1711005227423,1711005227129,2085733,0
1711005227423,1711005227169,2085854,0
1711005227423,1711005227209,2086485,0
1711005227423,1711005227250,2087234,0
1711005227423,1711005227289,2088205,0
1711005227423,1711005227329,2089086,0
1711005239462,1711005227369,2089811,0
1711005239462,1711005227409,2090582,0
1711005239462,1711005227450,2091503,0
1711005239462,1711005227490,2092667,0
1711005239462,1711005227530,2091420,0
1711005239462,1711005227570,2086510,0
1711005239462,1711005227610,2082283,0
1711005239462,1711005227651,2079026,0
1711005239462,1711005227690,2076434,0
1711005239462,1711005227731,2074604,0
1711005239462,1711005227771,2073900,0
1711005239462,1711005227811,2073473,0
1711005239462,1711005227852,2072736,0
1711005239462,1711005227891,2071903,0
1711005239462,1711005227931,2071700,0
1711005239462,1711005227971,2071958,0
1711005239462,1711005228011,2072509,0
1711005239462,1711005228052,2073299,0
1711005239462,1711005228092,2074300,0
1711005239462,1711005228132,2075478,0
1711005239462,1711005228172,2076593,0
1711005239462,1711005228212,2077685,0
1711005239462,1711005228253,2079040,0
1711005239462,1711005228293,2080633,0
1711005239462,1711005228333,2081263,0
1711005239462,1711005228373,2076787,0
1711005239462,1711005228413,2071900,0
1711005239462,1711005228454,2068064,0
1711005239462,1711005228493,2065212,0
1711005239462,1711005228534,2062703,0
1711005239462,1711005228574,2061415,0
1711005239462,1711005228614,2060855,0
1711005239462,1711005228655,2060097,0
1711005239462,1711005228694,2059400,0
1711005239462,1711005228734,2059166,0
1711005239462,1711005228775,2059725,0
1711005239462,1711005228815,2060256,0
1711005239462,1711005228856,2061684,0
1711005239462,1711005228895,2063549,0
1711005239462,1711005228935,2065760,0
1711005239462,1711005228975,2067931,0
1711005239462,1711005229015,2070306,0
1711005239462,1711005229056,2072844,0
1711005239462,1711005229095,2075388,0
1711005239462,1711005229135,2078185,0
1711005239462,1711005229176,2081134,0
1711005239462,1711005229216,2084057,0
1711005239462,1711005229256,2081713,0
1711005239462,1711005229296,2077345,0
1711005239462,1711005229336,2074463,0
1711005239462,1711005229376,2072565,0
1711005239462,1711005229416,2070984,0
1711005239462,1711005229457,2069819,0
1711005239462,1711005229496,2069474,0
1711005239462,1711005229537,2069014,0
1711005239462,1711005229577,2068492,0
1711005239462,1711005229617,2068232,0
1711005239462,1711005229658,2068483,0
1711005239462,1711005229697,2069300,0
1711005239462,1711005229737,2070351,0
1711005239462,1711005229777,2071265,0
1711005239462,1711005229817,2072134,0
1711005239462,1711005229858,2072858,0
1711005239462,1711005229898,2073596,0
1711005239462,1711005229937,2074496,0
1711005239462,1711005229978,2075466,0
1711005239462,1711005230018,2076666,0
1711005239462,1711005230058,2078002,0
1711005239462,1711005230098,2079113,0
1711005239462,1711005230138,2076265,0
1711005239462,1711005230178,2071055,0
1711005239462,1711005230218,2067141,0
1711005239462,1711005230259,2064056,0
1711005239462,1711005230298,2061764,0
1711005239462,1711005230338,2060490,0
1711005239462,1711005230379,2060054,0
1711005239462,1711005230419,2059587,0
1711005239462,1711005230460,2058840,0
1711005239462,1711005230499,2058507,0
1711005239462,1711005230539,2058716,0
1711005239462,1711005230579,2059586,0
1711005239462,1711005230619,2060567,0
1711005239462,1711005230660,2061768,0
1711005239462,1711005230700,2063221,0
1711005239462,1711005230740,2064595,0
1711005239462,1711005230780,2065983,0
1711005239462,1711005230820,2067434,0
1711005239462,1711005230861,2068937,0
1711005239462,1711005230900,2069525,0
1711005239462,1711005230940,2065842,0
1711005239462,1711005230981,2061561,0
1711005239462,1711005231021,2058774,0
1711005239462,1711005231061,2056898,0
1711005239462,1711005231101,2055763,0
1711005239462,1711005231141,2055754,0
1711005239462,1711005231181,2056006,0
1711005239462,1711005231221,2055809,0
1711005239462,1711005231262,2055551,0
1711005239462,1711005231301,2055245,0
1711005239462,1711005231342,2055391,0
1711005239462,1711005231382,2055901,0
1711005239462,1711005231422,2056442,0
1711005239462,1711005231463,2057320,0
1711005239462,1711005231502,2058382,0
1711005239462,1711005231542,2059314,0
1711005239462,1711005231582,2060409,0
1711005239462,1711005231622,2061527,0
1711005239462,1711005231663,2062615,0
1711005239462,1711005231703,2059739,0
1711005239462,1711005231743,2054705,0
1711005239462,1711005231783,2050612,0
1711005239462,1711005231823,2047207,0
1711005239462,1711005231864,2044515,0
1711005239462,1711005231903,2042760,0
1711005239462,1711005231943,2042286,0
1711005239462,1711005231983,2041631,0
1711005239462,1711005232023,2041011,0
1711005239462,1711005232064,2040435,0
1711005239462,1711005232104,2040531,0
1711005239462,1711005232144,2041136,0
1711005239462,1711005232184,2041990,0
1711005239462,1711005232224,2043040,0
1711005239462,1711005232265,2044340,0
1711005239462,1711005232304,2045659,0
1711005239462,1711005232344,2046993,0
1711005239462,1711005232385,2048390,0
1711005239462,1711005232425,2049828,0
1711005239462,1711005232466,2051522,0
1711005239462,1711005232505,2052116,0
1711005239462,1711005232545,2047713,0
1711005239462,1711005232585,2042855,0
1711005239462,1711005232625,2038812,0
1711005239462,1711005232666,2035501,0
1711005239462,1711005232706,2032512,0
1711005239462,1711005232746,2030617,0
1711005239462,1711005232786,2029473,0
1711005239462,1711005232826,2028276,0
1711005239462,1711005232867,2027327,0
1711005239462,1711005232907,2026770,0
1711005239462,1711005232947,2027094,0
1711005239462,1711005232987,2027894,0
1711005239462,1711005233027,2028951,0
1711005239462,1711005233068,2030430,0
1711005239462,1711005233107,2032054,0
1711005239462,1711005233148,2033808,0
1711005239462,1711005233188,2035990,0
1711005239462,1711005233228,2038584,0
1711005239462,1711005233269,2041500,0
1711005239462,1711005233308,2044435,0
1711005239462,1711005233348,2047647,0
1711005239462,1711005233388,2047596,0
1711005239462,1711005233428,2043706,0
1711005239462,1711005233469,2040626,0
1711005239462,1711005233509,2038368,0
1711005239462,1711005233549,2036687,0
1711005239462,1711005233589,2035787,0
1711005239462,1711005233629,2036363,0
1711005239462,1711005233670,2037218,0
1711005239462,1711005233710,2038084,0
1711005239462,1711005233750,2039051,0
1711005239462,1711005233790,2040542,0
1711005239462,1711005233830,2042363,0
1711005239462,1711005233871,2043925,0
1711005239462,1711005233910,2045411,0
1711005239462,1711005233951,2046856,0
1711005239462,1711005233991,2048421,0
1711005239462,1711005234031,2049468,0
1711005239462,1711005234072,2050661,0
1711005239462,1711005234111,2051418,0
1711005239462,1711005234151,2052302,0
1711005239462,1711005234191,2053026,0
1711005239462,1711005234232,2051199,0
1711005239462,1711005234272,2046413,0
1711005239462,1711005234312,2042346,0
1711005239462,1711005234352,2039422,0
1711005239462,1711005234392,2037305,0
1711005239462,1711005234432,2036112,0
1711005239462,1711005234473,2035889,0
1711005239462,1711005234513,2035646,0
1711005239462,1711005234553,2034874,0
1711005239462,1711005234593,2034276,0
1711005239462,1711005234633,2034204,0
1711005239462,1711005234674,2034342,0
1711005239462,1711005234714,2034821,0
1711005239462,1711005234754,2036324,0
1711005239462,1711005234794,2037429,0
1711005239462,1711005234834,2038926,0
1711005239462,1711005234875,2040455,0
1711005239462,1711005234914,2042467,0
1711005239462,1711005234954,2043500,0
1711005239462,1711005234994,2040239,0
1711005239462,1711005235034,2037025,0
1711005239462,1711005235075,2035110,0
1711005239462,1711005235114,2034468,0
1711005239462,1711005235155,2034215,0
1711005239462,1711005235195,2035134,0
1711005239462,1711005235235,2036435,0
1711005239462,1711005235276,2037317,0
1711005239462,1711005235315,2038968,0
1711005239462,1711005235355,2042685,0
1711005239462,1711005235395,2046849,0
1711005239462,1711005235435,2050592,0
1711005239462,1711005235476,2053449,0
1711005239462,1711005235515,2055753,0
1711005239462,1711005235556,2057711,0
1711005239462,1711005235596,2059320,0
1711005239462,1711005235636,2060680,0
1711005239462,1711005235677,2061965,0
1711005239462,1711005235716,2063213,0
1711005239462,1711005235756,2064509,0
1711005239462,1711005235796,2064836,0
1711005239462,1711005235836,2059996,0
1711005239462,1711005235877,2054917,0
1711005239462,1711005235917,2051123,0
1711005239462,1711005235957,2047951,0
1711005239462,1711005235997,2045392,0
1711005239462,1711005236037,2044471,0
1711005239462,1711005236078,2044323,0
1711005239462,1711005236117,2044225,0
1711005239462,1711005236157,2044359,0
1711005239462,1711005236197,2044903,0
1711005239462,1711005236238,2045995,0
1711005239462,1711005236278,2047664,0
1711005239462,1711005236318,2049420,0
1711005239462,1711005236358,2051449,0
1711005239462,1711005236398,2053650,0
1711005239462,1711005236438,2055974,0
1711005239462,1711005236479,2058439,0
1711005239462,1711005236518,2060885,0
1711005239462,1711005236558,2063809,0
1711005239462,1711005236599,2066792,0
1711005239462,1711005236639,2070154,0
1711005239462,1711005236680,2073660,0
1711005239462,1711005236719,2075416,0
1711005239462,1711005236759,2072043,0
1711005239462,1711005236799,2069026,0
1711005239462,1711005236839,2067302,0
1711005239462,1711005236880,2065942,0
1711005239462,1711005236919,2064973,0
1711005239462,1711005236960,2064984,0
1711005239462,1711005237000,2064986,0
1711005239462,1711005237040,2064592,0
1711005239462,1711005237081,2064176,0
1711005239462,1711005237120,2063925,0
1711005239462,1711005237160,2063576,0
1711005239462,1711005237200,2063196,0
1711005239462,1711005237241,2062744,0
1711005239462,1711005237281,2062539,0
1711005239462,1711005237321,2062507,0
1711005239462,1711005237361,2062725,0
1711005239462,1711005237401,2062932,0
1711005239462,1711005237441,2063292,0
1711005239462,1711005237482,2063862,0
1711005239462,1711005237521,2064615,0
1711005239462,1711005237561,2062297,0
1711005239462,1711005237602,2057460,0
1711005239462,1711005237642,2053169,0
1711005239462,1711005237682,2049913,0
1711005239462,1711005237722,2047082,0
1711005239462,1711005237762,2044971,0
1711005239462,1711005237802,2044124,0
1711005239462,1711005237842,2043131,0
1711005239462,1711005237883,2041804,0
1711005239462,1711005237923,2040872,0
1711005239462,1711005237963,2040135,0
1711005239462,1711005238003,2040015,0
1711005239462,1711005238043,2040286,0
1711005239462,1711005238084,2040528,0
1711005239462,1711005238123,2041176,0
1711005239462,1711005238163,2041945,0
1711005239462,1711005238203,2042821,0
1711005239462,1711005238243,2043781,0
1711005239462,1711005238284,2044905,0
1711005239462,1711005238324,2046218,0
1711005239462,1711005238364,2047616,0
1711005239462,1711005238404,2049145,0
1711005239462,1711005238444,2049819,0
1711005239462,1711005238485,2045614,0
1711005239462,1711005238524,2040898,0
1711005239462,1711005238565,2037163,0
1711005239462,1711005238605,2033726,0
1711005239462,1711005238645,2030531,0
1711005239462,1711005238686,2028281,0
1711005239462,1711005238725,2027343,0
1711005239462,1711005238765,2026402,0
1711005239462,1711005238806,2025458,0
1711005239462,1711005238846,2025028,0
1711005239462,1711005238886,2024929,0
1711005239462,1711005238926,2025437,0
1711005239462,1711005238966,2026037,0
1711005239462,1711005239006,2026954,0
1711005239462,1711005239046,2028194,0
1711005239462,1711005239087,2029397,0
1711005239462,1711005239126,2030641,0
1711005239462,1711005239167,2032058,0
1711005239462,1711005239207,2033715,0
1711005239462,1711005239247,2035258,0
1711005239462,1711005239288,2037113,0
1711005239462,1711005239327,2039100,0
1711005239462,1711005239367,2041106,0
1711005251491,1711005239407,2039954,0
1711005251491,1711005239447,2035464,0
1711005251491,1711005239488,2031774,0
1711005251491,1711005239528,2029014,0
1711005251491,1711005239568,2026763,0
1711005251491,1711005239608,2024958,0
1711005251491,1711005239648,2024588,0
1711005251491,1711005239689,2024246,0
1711005251491,1711005239728,2023628,0
1711005251491,1711005239769,2023258,0
1711005251491,1711005239809,2023507,0
1711005251491,1711005239849,2024013,0
1711005251491,1711005239890,2025013,0
1711005251491,1711005239929,2026141,0
1711005251491,1711005239969,2027482,0
1711005251491,1711005240010,2028816,0
1711005251491,1711005240050,2030354,0
1711005251491,1711005240090,2031947,0
1711005251491,1711005240130,2033718,0
1711005251491,1711005240170,2035582,0
1711005251491,1711005240210,2035675,0
1711005251491,1711005240250,2031829,0
1711005251491,1711005240291,2028225,0
1711005251491,1711005240331,2025321,0
1711005251491,1711005240371,2023074,0
1711005251491,1711005240411,2021192,0
1711005251491,1711005240451,2020935,0
1711005251491,1711005240492,2020946,0
1711005251491,1711005240531,2020825,0
1711005251491,1711005240571,2020661,0
1711005251491,1711005240612,2021210,0
1711005251491,1711005240652,2021889,0
1711005251491,1711005240693,2023072,0
1711005251491,1711005240732,2024478,0
1711005251491,1711005240772,2026200,0
1711005251491,1711005240812,2027710,0
1711005251491,1711005240853,2029502,0
1711005251491,1711005240893,2031278,0
1711005251491,1711005240933,2033148,0
1711005251491,1711005240973,2035242,0
1711005251491,1711005241013,2037423,0
1711005251491,1711005241053,2038079,0
1711005251491,1711005241094,2034038,0
1711005251491,1711005241133,2030033,0
1711005251491,1711005241173,2026916,0
1711005251491,1711005241213,2024293,0
1711005251491,1711005241253,2021842,0
1711005251491,1711005241294,2020796,0
1711005251491,1711005241334,2020574,0
1711005251491,1711005241374,2020152,0
1711005251491,1711005241414,2019864,0
1711005251491,1711005241454,2019816,0
1711005251491,1711005241495,2020340,0
1711005251491,1711005241534,2021284,0
1711005251491,1711005241574,2022362,0
1711005251491,1711005241614,2023777,0
1711005251491,1711005241654,2025160,0
1711005251491,1711005241695,2026765,0
1711005251491,1711005241735,2028235,0
1711005251491,1711005241775,2030051,0
1711005251491,1711005241815,2031689,0
1711005251491,1711005241855,2033766,0
1711005251491,1711005241896,2035775,0
1711005251491,1711005241935,2037185,0
1711005251491,1711005241975,2034182,0
1711005251491,1711005242015,2029925,0
1711005251491,1711005242056,2026490,0
1711005251491,1711005242096,2023741,0
1711005251491,1711005242136,2021228,0
1711005251491,1711005242176,2019826,0
1711005251491,1711005242216,2019361,0
1711005251491,1711005242256,2018541,0
1711005251491,1711005242297,2017582,0
1711005251491,1711005242336,2017532,0
1711005251491,1711005242376,2018545,0
1711005251491,1711005242416,2020086,0
1711005251491,1711005242456,2021347,0
1711005251491,1711005242497,2022477,0
1711005251491,1711005242537,2023781,0
1711005251491,1711005242577,2025860,0
1711005251491,1711005242617,2028035,0
1711005251491,1711005242657,2030421,0
1711005251491,1711005242698,2032679,0
1711005251491,1711005242737,2034958,0
1711005251491,1711005242777,2037132,0
1711005251491,1711005242817,2037223,0
1711005251491,1711005242857,2033292,0
1711005251491,1711005242898,2029832,0
1711005251491,1711005242938,2027171,0
1711005251491,1711005242978,2024944,0
1711005251491,1711005243018,2023240,0
1711005251491,1711005243058,2022899,0
1711005251491,1711005243099,2022405,0
1711005251491,1711005243138,2021817,0
1711005251491,1711005243178,2021292,0
1711005251491,1711005243218,2021523,0
1711005251491,1711005243259,2021963,0
1711005251491,1711005243299,2022837,0
1711005251491,1711005243339,2023987,0
1711005251491,1711005243379,2025095,0
1711005251491,1711005243419,2026373,0
1711005251491,1711005243459,2027769,0
1711005251491,1711005243500,2029597,0
1711005251491,1711005243539,2031676,0
1711005251491,1711005243580,2032773,0
1711005251491,1711005243620,2030432,0
1711005251491,1711005243660,2026670,0
1711005251491,1711005243701,2023360,0
1711005251491,1711005243740,2020893,0
1711005251491,1711005243780,2019845,0
1711005251491,1711005243820,2020737,0
1711005251491,1711005243861,2022863,0
1711005251491,1711005243901,2024307,0
1711005251491,1711005243941,2024280,0
1711005251491,1711005243981,2024229,0
1711005251491,1711005244021,2024832,0
1711005251491,1711005244061,2026237,0
1711005251491,1711005244102,2028585,0
1711005251491,1711005244141,2031979,0
1711005251491,1711005244182,2036032,0
1711005251491,1711005244222,2039880,0
1711005251491,1711005244262,2042788,0
1711005251491,1711005244303,2045138,0
1711005251491,1711005244342,2047027,0
1711005251491,1711005244382,2045447,0
1711005251491,1711005244422,2040456,0
1711005251491,1711005244463,2036295,0
1711005251491,1711005244503,2032682,0
1711005251491,1711005244543,2029562,0
1711005251491,1711005244583,2026753,0
1711005251491,1711005244623,2025005,0
1711005251491,1711005244663,2023743,0
1711005251491,1711005244704,2022162,0
1711005251491,1711005244743,2020894,0
1711005251491,1711005244784,2020170,0
1711005251491,1711005244824,2019909,0
1711005251491,1711005244864,2020219,0
1711005251491,1711005244905,2020615,0
1711005251491,1711005244944,2021485,0
1711005251491,1711005244984,2022408,0
1711005251491,1711005245025,2023391,0
1711005251491,1711005245065,2024675,0
1711005251491,1711005245106,2025976,0
1711005251491,1711005245145,2027635,0
1711005251491,1711005245185,2029658,0
1711005251491,1711005245225,2031436,0
1711005251491,1711005245265,2029283,0
1711005251491,1711005245306,2025414,0
1711005251491,1711005245346,2022072,0
1711005251491,1711005245386,2019483,0
1711005251491,1711005245426,2017197,0
1711005251491,1711005245466,2015699,0
1711005251491,1711005245507,2015212,0
1711005251491,1711005245547,2014480,0
1711005251491,1711005245587,2013619,0
1711005251491,1711005245627,2013095,0
1711005251491,1711005245667,2013144,0
1711005251491,1711005245708,2013750,0
1711005251491,1711005245747,2014937,0
1711005251491,1711005245788,2016529,0
1711005251491,1711005245828,2018831,0
1711005251491,1711005245868,2021561,0
1711005251491,1711005245909,2024570,0
1711005251491,1711005245948,2027727,0
1711005251491,1711005245988,2030706,0
1711005251491,1711005246028,2033847,0
1711005251491,1711005246068,2037158,0
1711005251491,1711005246109,2037259,0
1711005251491,1711005246149,2034864,0
1711005251491,1711005246189,2031979,0
1711005251491,1711005246229,2029233,0
1711005251491,1711005246269,2027046,0
1711005251491,1711005246310,2026303,0
1711005251491,1711005246349,2027043,0
1711005251491,1711005246390,2028002,0
1711005251491,1711005246432,2029087,0
1711005251491,1711005246470,2029979,0
1711005251491,1711005246511,2031047,0
1711005251491,1711005246550,2032415,0
1711005251491,1711005246590,2033834,0
1711005251491,1711005246631,2035515,0
1711005251491,1711005246671,2037424,0
1711005251491,1711005246712,2039298,0
1711005251491,1711005246751,2042557,0
1711005251491,1711005246791,2043868,0
1711005251491,1711005246831,2045253,0
1711005251491,1711005246871,2044948,0
1711005251491,1711005246912,2040656,0
1711005251491,1711005246951,2035791,0
1711005251491,1711005246992,2031734,0
1711005251491,1711005247032,2028151,0
1711005251491,1711005247072,2025329,0
1711005251491,1711005247113,2023966,0
1711005251491,1711005247152,2023403,0
1711005251491,1711005247192,2022601,0
1711005251491,1711005247232,2022099,0
1711005251491,1711005247272,2021718,0
1711005251491,1711005247313,2022145,0
1711005251491,1711005247352,2022635,0
1711005251491,1711005247392,2023453,0
1711005251491,1711005247433,2024280,0
1711005251491,1711005247473,2025015,0
1711005251491,1711005247514,2026066,0
1711005251491,1711005247553,2026984,0
1711005251491,1711005247593,2028228,0
1711005251491,1711005247633,2029496,0
1711005251491,1711005247673,2031140,0
1711005251491,1711005247714,2032945,0
1711005251491,1711005247754,2033241,0
1711005251491,1711005247794,2029429,0
1711005251491,1711005247834,2025235,0
1711005251491,1711005247874,2021725,0
1711005251491,1711005247915,2019069,0
1711005251491,1711005247954,2016784,0
1711005251491,1711005247994,2016048,0
1711005251491,1711005248034,2015748,0
1711005251491,1711005248075,2015125,0
1711005251491,1711005248115,2015024,0
1711005251491,1711005248155,2015910,0
1711005251491,1711005248195,2017880,0
1711005251491,1711005248235,2020217,0
1711005251491,1711005248275,2023117,0
1711005251491,1711005248316,2026109,0
1711005251491,1711005248355,2029027,0
1711005251491,1711005248395,2031663,0
1711005251491,1711005248435,2034300,0
1711005251491,1711005248475,2037171,0
1711005251491,1711005248516,2039708,0
1711005251491,1711005248556,2041998,0
1711005251491,1711005248596,2044344,0
1711005251491,1711005248639,2045608,0
1711005251491,1711005248676,2041940,0
1711005251491,1711005248717,2037676,0
1711005251491,1711005248756,2034117,0
1711005251491,1711005248796,2031137,0
1711005251491,1711005248836,2028414,0
1711005251491,1711005248876,2026468,0
1711005251491,1711005248917,2025514,0
1711005251491,1711005248957,2024597,0
1711005251491,1711005248997,2023672,0
1711005251491,1711005249037,2023053,0
1711005251491,1711005249077,2022928,0
1711005251491,1711005249118,2023631,0
1711005251491,1711005249157,2024344,0
1711005251491,1711005249197,2025608,0
1711005251491,1711005249237,2027080,0
1711005251491,1711005249278,2028760,0
1711005251491,1711005249318,2030529,0
1711005251491,1711005249358,2032372,0
1711005251491,1711005249398,2034466,0
1711005251491,1711005249438,2036155,0
1711005251491,1711005249478,2037907,0
1711005251491,1711005249519,2039809,0
1711005251491,1711005249558,2041241,0
1711005251491,1711005249598,2038510,0
1711005251491,1711005249638,2034036,0
1711005251491,1711005249678,2030197,0
1711005251491,1711005249719,2027431,0
1711005251491,1711005249759,2025121,0
1711005251491,1711005249799,2023889,0
1711005251491,1711005249839,2023666,0
1711005251491,1711005249879,2023530,0
1711005251491,1711005249920,2023018,0
1711005251491,1711005249959,2022643,0
1711005251491,1711005250000,2022915,0
1711005251491,1711005250040,2023466,0
1711005251491,1711005250080,2024462,0
1711005251491,1711005250121,2025592,0
1711005251491,1711005250160,2027143,0
1711005251491,1711005250200,2028812,0
1711005251491,1711005250240,2030798,0
1711005251491,1711005250280,2032790,0
1711005251491,1711005250321,2035034,0
1711005251491,1711005250361,2037507,0
1711005251491,1711005250401,2039900,0
1711005251491,1711005250441,2040005,0
1711005251491,1711005250481,2035980,0
1711005251491,1711005250522,2032055,0
1711005251491,1711005250561,2029072,0
1711005251491,1711005250601,2026909,0
1711005251491,1711005250642,2025511,0
1711005251491,1711005250682,2025381,0
1711005251491,1711005250723,2025172,0
1711005251491,1711005250762,2024625,0
1711005251491,1711005250802,2024364,0
1711005251491,1711005250845,2024640,0
1711005251491,1711005250882,2025350,0
1711005251491,1711005250923,2026428,0
1711005251491,1711005250963,2027407,0
1711005251491,1711005251003,2028587,0
1711005251491,1711005251043,2029938,0
1711005251491,1711005251083,2031140,0
1711005251491,1711005251124,2032611,0
1711005251491,1711005251163,2034001,0
1711005251491,1711005251203,2035427,0
1711005251491,1711005251243,2036035,0
1711005251491,1711005251284,2032586,0
1711005251491,1711005251324,2028080,0
1711005251491,1711005251364,2024101,0
1711005251491,1711005251404,2020675,0
1711005263541,1711005251444,2017952,0
1711005263541,1711005251484,2016457,0
1711005263541,1711005251525,2016018,0
1711005263541,1711005251565,2016015,0
1711005263541,1711005251605,2018526,0
1711005263541,1711005251645,2020909,0
1711005263541,1711005251685,2022983,0
1711005263541,1711005251726,2027464,0
1711005263541,1711005251765,2035984,0
1711005263541,1711005251805,2047169,0
1711005263541,1711005251845,2061649,0
1711005263541,1711005251886,2078582,0
1711005263541,1711005251927,2095848,0
1711005263541,1711005251966,2112652,0
1711005263541,1711005252006,2130223,0
1711005263541,1711005252046,2146173,0
1711005263541,1711005252086,2153601,0
1711005263541,1711005252127,2150559,0
1711005263541,1711005252167,2146958,0
1711005263541,1711005252207,2144362,0
1711005263541,1711005252247,2134918,0
1711005263541,1711005252287,2122263,0
1711005263541,1711005252328,2113433,0
1711005263541,1711005252367,2106215,0
1711005263541,1711005252407,2100137,0
1711005263541,1711005252447,2095273,0
1711005263541,1711005252487,2092217,0
1711005263541,1711005252528,2090196,0
1711005263541,1711005252568,2089048,0
1711005263541,1711005252608,2088446,0
1711005263541,1711005252648,2088257,0
1711005263541,1711005252688,2088495,0
1711005263541,1711005252729,2088577,0
1711005263541,1711005252769,2088985,0
1711005263541,1711005252809,2089432,0
1711005263541,1711005252849,2088905,0
1711005263541,1711005252889,2083558,0
1711005263541,1711005252930,2077864,0
1711005263541,1711005252969,2072906,0
1711005263541,1711005253010,2068954,0
1711005263541,1711005253050,2065640,0
1711005263541,1711005253090,2064070,0
1711005263541,1711005253131,2062747,0
1711005263541,1711005253170,2061332,0
1711005263541,1711005253210,2059793,0
1711005263541,1711005253250,2058596,0
1711005263541,1711005253290,2057993,0
1711005263541,1711005253331,2057944,0
1711005263541,1711005253370,2057974,0
1711005263541,1711005253410,2058300,0
1711005263541,1711005253450,2058670,0
1711005263541,1711005253491,2059192,0
1711005263541,1711005253531,2059847,0
1711005263541,1711005253571,2058525,0
1711005263541,1711005253611,2053674,0
1711005263541,1711005253651,2048758,0
1711005263541,1711005253691,2044666,0
1711005263541,1711005253732,2041624,0
1711005263541,1711005253771,2039741,0
1711005263541,1711005253812,2039059,0
1711005263541,1711005253852,2038105,0
1711005263541,1711005253892,2036960,0
1711005263541,1711005253932,2035694,0
1711005263541,1711005253972,2034997,0
1711005263541,1711005254012,2034817,0
1711005263541,1711005254052,2035022,0
1711005263541,1711005254092,2035399,0
1711005263541,1711005254133,2035931,0
1711005263541,1711005254173,2036514,0
1711005263541,1711005254213,2036110,0
1711005263541,1711005254253,2031504,0
1711005263541,1711005254293,2025254,0
1711005263541,1711005254334,2019278,0
1711005263541,1711005254373,2014194,0
1711005263541,1711005254413,2010280,0
1711005263541,1711005254453,2008050,0
1711005263541,1711005254493,2006759,0
1711005263541,1711005254534,2005378,0
1711005263541,1711005254574,2003938,0
1711005263541,1711005254614,2002823,0
1711005263541,1711005254654,2002298,0
1711005263541,1711005254694,2002351,0
1711005263541,1711005254735,2002823,0
1711005263541,1711005254774,2003279,0
1711005263541,1711005254814,2003803,0
1711005263541,1711005254854,2004655,0
1711005263541,1711005254894,2005639,0
1711005263541,1711005254935,2003747,0
1711005263541,1711005254975,1997138,0
1711005263541,1711005255015,1990236,0
1711005263541,1711005255055,1983932,0
1711005263541,1711005255095,1978419,0
1711005263541,1711005255136,1974112,0
1711005263541,1711005255175,1971468,0
1711005263541,1711005255215,1969641,0
1711005263541,1711005255255,1967941,0
1711005263541,1711005255296,1966268,0
1711005263541,1711005255336,1965405,0
1711005263541,1711005255376,1964842,0
1711005263541,1711005255416,1965014,0
1711005263541,1711005255456,1965517,0
1711005263541,1711005255496,1966485,0
1711005263541,1711005255537,1967539,0
1711005263541,1711005255576,1968751,0
1711005263541,1711005255616,1969896,0
1711005263541,1711005255657,1971565,0
1711005263541,1711005255697,1973474,0
1711005263541,1711005255737,1973837,0
1711005263541,1711005255777,1968239,0
1711005263541,1711005255817,1961276,0
1711005263541,1711005255857,1954589,0
1711005263541,1711005255897,1948790,0
1711005263541,1711005255938,1943732,0
1711005263541,1711005255977,1940586,0
1711005263541,1711005256018,1939016,0
1711005263541,1711005256058,1937852,0
1711005263541,1711005256098,1936659,0
1711005263541,1711005256139,1936009,0
1711005263541,1711005256178,1935901,0
1711005263541,1711005256218,1936596,0
1711005263541,1711005256258,1937794,0
1711005263541,1711005256298,1939153,0
1711005263541,1711005256339,1940917,0
1711005263541,1711005256379,1942791,0
1711005263541,1711005256418,1944858,0
1711005263541,1711005256459,1947031,0
1711005263541,1711005256499,1949325,0
1711005263541,1711005256539,1951726,0
1711005263541,1711005256579,1954382,0
1711005263541,1711005256619,1956521,0
1711005263541,1711005256659,1953458,0
1711005263541,1711005256699,1947534,0
1711005263541,1711005256740,1941849,0
1711005263541,1711005256779,1937108,0
1711005263541,1711005256820,1933375,0
1711005263541,1711005256860,1930849,0
1711005263541,1711005256900,1930381,0
1711005263541,1711005256941,1930284,0
1711005263541,1711005256980,1930104,0
1711005263541,1711005257020,1930253,0
1711005263541,1711005257060,1930965,0
1711005263541,1711005257101,1932223,0
1711005263541,1711005257141,1933862,0
1711005263541,1711005257181,1935737,0
1711005263541,1711005257221,1937971,0
1711005263541,1711005257261,1940128,0
1711005263541,1711005257301,1942145,0
1711005263541,1711005257342,1944279,0
1711005263541,1711005257381,1946580,0
1711005263541,1711005257422,1949166,0
1711005263541,1711005257462,1952011,0
1711005263541,1711005257502,1954879,0
1711005263541,1711005257543,1957561,0
1711005263541,1711005257582,1955869,0
1711005263541,1711005257622,1951372,0
1711005263541,1711005257662,1946851,0
1711005263541,1711005257703,1943367,0
1711005263541,1711005257743,1940937,0
1711005263541,1711005257783,1939600,0
1711005263541,1711005257823,1940054,0
1711005263541,1711005257863,1940718,0
1711005263541,1711005257903,1941284,0
1711005263541,1711005257944,1942124,0
1711005263541,1711005257984,1943224,0
1711005263541,1711005258024,1945041,0
1711005263541,1711005258064,1947214,0
1711005263541,1711005258104,1949612,0
1711005263541,1711005258145,1952127,0
1711005263541,1711005258185,1954878,0
1711005263541,1711005258225,1957801,0
1711005263541,1711005258265,1960459,0
1711005263541,1711005258305,1963594,0
1711005263541,1711005258346,1966540,0
1711005263541,1711005258385,1969609,0
1711005263541,1711005258425,1972752,0
1711005263541,1711005258465,1975360,0
1711005263541,1711005258506,1973551,0
1711005263541,1711005258547,1970050,0
1711005263541,1711005258586,1966842,0
1711005263541,1711005258626,1964592,0
1711005263541,1711005258666,1963240,0
1711005263541,1711005258706,1963059,0
1711005263541,1711005258747,1963946,0
1711005263541,1711005258787,1964775,0
1711005263541,1711005258827,1965497,0
1711005263541,1711005258867,1966340,0
1711005263541,1711005258907,1967768,0
1711005263541,1711005258948,1969424,0
1711005263541,1711005258987,1971648,0
1711005263541,1711005259028,1973994,0
1711005263541,1711005259068,1976434,0
1711005263541,1711005259108,1979005,0
1711005263541,1711005259149,1981486,0
1711005263541,1711005259188,1984110,0
1711005263541,1711005259228,1986891,0
1711005263541,1711005259268,1989652,0
1711005263541,1711005259308,1995703,0
1711005263541,1711005259349,1996591,0
1711005263541,1711005259389,1993933,0
1711005263541,1711005259429,1991145,0
1711005263541,1711005259469,1989133,0
1711005263541,1711005259509,1988228,0
1711005263541,1711005259549,1988051,0
1711005263541,1711005259589,1988907,0
1711005263541,1711005259629,1990075,0
1711005263541,1711005259669,1990835,0
1711005263541,1711005259709,1991684,0
1711005263541,1711005259750,1992731,0
1711005263541,1711005259789,1994366,0
1711005263541,1711005259829,1996258,0
1711005263541,1711005259870,1998292,0
1711005263541,1711005259910,2000526,0
1711005263541,1711005259950,2002696,0
1711005263541,1711005259990,2004977,0
1711005263541,1711005260030,2007252,0
1711005263541,1711005260070,2009569,0
1711005263541,1711005260110,2012107,0
1711005263541,1711005260151,2014544,0
1711005263541,1711005260190,2017139,0
1711005263541,1711005260231,2017272,0
1711005263541,1711005260271,2014355,0
1711005263541,1711005260311,2012010,0
1711005263541,1711005260352,2010401,0
1711005263541,1711005260391,2009725,0
1711005263541,1711005260431,2009879,0
1711005263541,1711005260471,2011040,0
1711005263541,1711005260511,2012162,0
1711005263541,1711005260552,2012796,0
1711005263541,1711005260592,2013599,0
1711005263541,1711005260631,2014652,0
1711005263541,1711005260672,2016270,0
1711005263541,1711005260712,2018102,0
1711005263541,1711005260753,2020038,0
1711005263541,1711005260792,2022034,0
1711005263541,1711005260832,2024036,0
1711005263541,1711005260872,2026187,0
1711005263541,1711005260912,2028152,0
1711005263541,1711005260953,2030393,0
1711005263541,1711005260992,2032505,0
1711005263541,1711005261033,2034858,0
1711005263541,1711005261073,2037266,0
1711005263541,1711005261113,2039418,0
1711005263541,1711005261154,2038132,0
1711005263541,1711005261193,2034758,0
1711005263541,1711005261233,2032040,0
1711005263541,1711005261273,2030428,0
1711005263541,1711005261313,2029419,0
1711005263541,1711005261354,2029281,0
1711005263541,1711005261394,2029948,0
1711005263541,1711005261434,2030482,0
1711005263541,1711005261474,2030994,0
1711005263541,1711005261514,2031177,0
1711005263541,1711005261555,2031959,0
1711005263541,1711005261594,2033151,0
1711005263541,1711005261634,2034609,0
1711005263541,1711005261674,2036209,0
1711005263541,1711005261714,2037886,0
1711005263541,1711005261755,2039599,0
1711005263541,1711005261795,2041265,0
1711005263541,1711005261835,2043097,0
1711005263541,1711005261875,2044887,0
1711005263541,1711005261915,2046886,0
1711005263541,1711005261956,2048865,0
1711005263541,1711005261995,2051018,0
1711005263541,1711005262036,2053099,0
1711005263541,1711005262076,2052430,0
1711005263541,1711005262116,2048695,0
1711005263541,1711005262157,2045180,0
1711005263541,1711005262196,2043007,0
1711005263541,1711005262236,2041340,0
1711005263541,1711005262276,2040575,0
1711005263541,1711005262316,2040767,0
1711005263541,1711005262357,2040806,0
1711005263541,1711005262397,2040773,0
1711005263541,1711005262437,2040493,0
1711005263541,1711005262477,2040691,0
1711005263541,1711005262517,2041193,0
1711005263541,1711005262558,2042064,0
1711005263541,1711005262597,2043259,0
1711005263541,1711005262637,2044462,0
1711005263541,1711005262677,2045664,0
1711005263541,1711005262717,2046964,0
1711005263541,1711005262758,2048376,0
1711005263541,1711005262798,2049684,0
1711005263541,1711005262838,2051213,0
1711005263541,1711005262878,2052862,0
1711005263541,1711005262918,2054644,0
1711005263541,1711005262959,2054476,0
1711005263541,1711005262999,2050357,0
1711005263541,1711005263039,2046139,0
1711005263541,1711005263079,2042968,0
1711005263541,1711005263119,2040838,0
1711005263541,1711005263160,2039267,0
1711005263541,1711005263199,2038883,0
1711005263541,1711005263239,2038369,0
1711005263541,1711005263279,2037523,0
1711005263541,1711005263320,2036726,0
1711005263541,1711005263361,2036240,0
1711005263541,1711005263400,2036415,0
1711005263541,1711005263440,2036917,0
1711005275550,1711005263479,2037606,0
1711005275550,1711005263519,2038563,0
1711005275550,1711005263560,2039341,0
1711005275550,1711005263600,2040301,0
1711005275550,1711005263640,2041359,0
1711005275550,1711005263680,2042587,0
1711005275550,1711005263720,2043809,0
1711005275550,1711005263761,2045148,0
1711005275550,1711005263800,2046770,0
1711005275550,1711005263841,2045341,0
1711005275550,1711005263881,2039805,0
1711005275550,1711005263921,2034156,0
1711005275550,1711005263962,2029218,0
1711005275550,1711005264001,2025237,0
1711005275550,1711005264041,2021863,0
1711005275550,1711005264082,2019732,0
1711005275550,1711005264122,2018206,0
1711005275550,1711005264163,2016284,0
1711005275550,1711005264202,2014439,0
1711005275550,1711005264242,2013184,0
1711005275550,1711005264282,2012451,0
1711005275550,1711005264323,2012137,0
1711005275550,1711005264363,2012318,0
1711005275550,1711005264403,2012827,0
1711005275550,1711005264443,2013315,0
1711005275550,1711005264483,2013901,0
1711005275550,1711005264523,2014727,0
1711005275550,1711005264564,2015731,0
1711005275550,1711005264604,2016847,0
1711005275550,1711005264644,2018186,0
1711005275550,1711005264684,2019624,0
1711005275550,1711005264724,2021168,0
1711005275550,1711005264765,2018827,0
1711005275550,1711005264805,2012273,0
1711005275550,1711005264845,2005690,0
1711005275550,1711005264885,2000297,0
1711005275550,1711005264925,1995553,0
1711005275550,1711005264966,1991639,0
1711005275550,1711005265006,1989460,0
1711005275550,1711005265046,1987693,0
1711005275550,1711005265086,1985883,0
1711005275550,1711005265126,1984090,0
1711005275550,1711005265167,1982932,0
1711005275550,1711005265206,1982532,0
1711005275550,1711005265246,1982691,0
1711005275550,1711005265287,1983018,0
1711005275550,1711005265327,1983822,0
1711005275550,1711005265367,1984728,0
1711005275550,1711005265407,1985790,0
1711005275550,1711005265447,1986894,0
1711005275550,1711005265487,1988440,0
1711005275550,1711005265527,1989865,0
1711005275550,1711005265568,1991593,0
1711005275550,1711005265607,1993651,0
1711005275550,1711005265648,1995511,0
1711005275550,1711005265688,1993088,0
1711005275550,1711005265728,1986939,0
1711005275550,1711005265769,1980881,0
1711005275550,1711005265808,1976191,0
1711005275550,1711005265848,1972299,0
1711005275550,1711005265888,1969425,0
1711005275550,1711005265928,1968023,0
1711005275550,1711005265969,1966966,0
1711005275550,1711005266009,1965759,0
1711005275550,1711005266049,1964751,0
1711005275550,1711005266089,1964282,0
1711005275550,1711005266129,1964627,0
1711005275550,1711005266170,1965512,0
1711005275550,1711005266209,1966612,0
1711005275550,1711005266249,1968044,0
1711005275550,1711005266289,1969590,0
1711005275550,1711005266330,1971178,0
1711005275550,1711005266370,1972966,0
1711005275550,1711005266410,1974858,0
1711005275550,1711005266450,1976948,0
1711005275550,1711005266490,1979137,0
1711005275550,1711005266530,1981401,0
1711005275550,1711005266571,1983759,0
1711005275550,1711005266611,1981942,0
1711005275550,1711005266651,1976420,0
1711005275550,1711005266691,1971158,0
1711005275550,1711005266731,1967408,0
1711005275550,1711005266772,1964394,0
1711005275550,1711005266811,1962216,0
1711005275550,1711005266851,1961535,0
1711005275550,1711005266891,1960988,0
1711005275550,1711005266931,1960263,0
1711005275550,1711005266972,1959515,0
1711005275550,1711005267012,1959602,0
1711005275550,1711005267052,1960320,0
1711005275550,1711005267092,1961385,0
1711005275550,1711005267132,1962752,0
1711005275550,1711005267173,1964278,0
1711005275550,1711005267212,1965893,0
1711005275550,1711005267252,1967639,0
1711005275550,1711005267293,1969477,0
1711005275550,1711005267333,1971403,0
1711005275550,1711005267374,1973512,0
1711005275550,1711005267413,1976012,0
1711005275550,1711005267453,1977532,0
1711005275550,1711005267493,1974592,0
1711005275550,1711005267533,1970130,0
1711005275550,1711005267574,1966597,0
1711005275550,1711005267614,1963968,0
1711005275550,1711005267654,1962203,0
1711005275550,1711005267694,1961817,0
1711005275550,1711005267734,1961908,0
1711005275550,1711005267775,1961654,0
1711005275550,1711005267814,1961004,0
1711005275550,1711005267854,1961078,0
1711005275550,1711005267894,1961800,0
1711005275550,1711005267935,1962997,0
1711005275550,1711005267975,1964331,0
1711005275550,1711005268015,1965919,0
1711005275550,1711005268055,1967480,0
1711005275550,1711005268095,1969188,0
1711005275550,1711005268135,1970990,0
1711005275550,1711005268176,1972983,0
1711005275550,1711005268215,1975285,0
1711005275550,1711005268256,1976302,0
1711005275550,1711005268296,1973126,0
1711005275550,1711005268336,1969304,0
1711005275550,1711005268377,1966223,0
1711005275550,1711005268416,1963933,0
1711005275550,1711005268456,1962358,0
1711005275550,1711005268496,1962005,0
1711005275550,1711005268537,1961986,0
1711005275550,1711005268577,1961830,0
1711005275550,1711005268617,1961729,0
1711005275550,1711005268657,1962016,0
1711005275550,1711005268697,1962979,0
1711005275550,1711005268737,1964269,0
1711005275550,1711005268778,1965890,0
1711005275550,1711005268818,1967594,0
1711005275550,1711005268858,1969529,0
1711005275550,1711005268898,1971415,0
1711005275550,1711005268938,1973536,0
1711005275550,1711005268979,1975515,0
1711005275550,1711005269018,1977823,0
1711005275550,1711005269058,1980261,0
1711005275550,1711005269098,1979912,0
1711005275550,1711005269139,1975999,0
1711005275550,1711005269179,1972090,0
1711005275550,1711005269219,1969016,0
1711005275550,1711005269259,1966330,0
1711005275550,1711005269299,1963976,0
1711005275550,1711005269339,1963186,0
1711005275550,1711005269380,1963044,0
1711005275550,1711005269420,1963009,0
1711005275550,1711005269460,1962956,0
1711005275550,1711005269500,1963387,0
1711005275550,1711005269540,1964404,0
1711005275550,1711005269581,1965777,0
1711005275550,1711005269621,1967322,0
1711005275550,1711005269661,1969006,0
1711005275550,1711005269701,1970954,0
1711005275550,1711005269741,1972743,0
1711005275550,1711005269782,1974835,0
1711005275550,1711005269821,1977146,0
1711005275550,1711005269861,1979467,0
1711005275550,1711005269902,1981963,0
1711005275550,1711005269942,1984426,0
1711005275550,1711005269983,1986938,0
1711005275550,1711005270022,1989489,0
1711005275550,1711005270062,1992128,0
1711005275550,1711005270102,1993129,0
1711005275550,1711005270142,1989489,0
1711005275550,1711005270183,1985621,0
1711005275550,1711005270223,1982636,0
1711005275550,1711005270263,1979922,0
1711005275550,1711005270303,1977562,0
1711005275550,1711005270344,1975945,0
1711005275550,1711005270384,1975790,0
1711005275550,1711005270424,1975553,0
1711005275550,1711005270464,1975457,0
1711005275550,1711005270504,1975816,0
1711005275550,1711005270544,1976500,0
1711005275550,1711005270585,1977578,0
1711005275550,1711005270625,1979213,0
1711005275550,1711005270665,1980839,0
1711005275550,1711005270705,1984287,0
1711005275550,1711005270745,1986382,0
1711005275550,1711005270786,1988461,0
1711005275550,1711005270825,1990650,0
1711005275550,1711005270865,1993053,0
1711005275550,1711005270905,1995477,0
1711005275550,1711005270945,1998093,0
1711005275550,1711005270986,2000475,0
1711005275550,1711005271025,2003235,0
1711005275550,1711005271066,2005687,0
1711005275550,1711005271106,2006525,0
1711005275550,1711005271146,2003156,0
1711005275550,1711005271187,2000006,0
1711005275550,1711005271226,1997724,0
1711005275550,1711005271266,1995905,0
1711005275550,1711005271306,1994368,0
1711005275550,1711005271346,1993696,0
1711005275550,1711005271387,1994026,0
1711005275550,1711005271427,1994261,0
1711005275550,1711005271467,1994461,0
1711005275550,1711005271507,1994826,0
1711005275550,1711005271547,1995898,0
1711005275550,1711005271588,1997198,0
1711005275550,1711005271627,1998696,0
1711005275550,1711005271667,2000463,0
1711005275550,1711005271707,2002057,0
1711005275550,1711005271747,2004040,0
1711005275550,1711005271788,2006026,0
1711005275550,1711005271828,2008033,0
1711005275550,1711005271868,2010171,0
1711005275550,1711005271908,2012367,0
1711005275550,1711005271948,2014565,0
1711005275550,1711005271989,2016898,0
1711005275550,1711005272028,2019263,0
1711005275550,1711005272068,2021365,0
1711005275550,1711005272108,2019820,0
1711005275550,1711005272149,2016400,0
1711005275550,1711005272189,2013764,0
1711005275550,1711005272229,2012193,0
1711005275550,1711005272269,2010994,0
1711005275550,1711005272309,2010128,0
1711005275550,1711005272349,2010428,0
1711005275550,1711005272390,2010648,0
1711005275550,1711005272429,2010808,0
1711005275550,1711005272469,2011136,0
1711005275550,1711005272510,2011751,0
1711005275550,1711005272550,2012820,0
1711005275550,1711005272590,2014145,0
1711005275550,1711005272630,2015775,0
1711005275550,1711005272670,2017326,0
1711005275550,1711005272710,2018978,0
1711005275550,1711005272750,2020603,0
1711005275550,1711005272791,2022298,0
1711005275550,1711005272830,2023997,0
1711005275550,1711005272871,2025954,0
1711005275550,1711005272911,2028069,0
1711005275550,1711005272951,2030241,0
1711005275550,1711005272992,2031886,0
1711005275550,1711005273031,2029866,0
1711005275550,1711005273071,2026762,0
1711005275550,1711005273111,2024705,0
1711005275550,1711005273151,2023329,0
1711005275550,1711005273192,2022554,0
1711005275550,1711005273232,2022649,0
1711005275550,1711005273272,2023224,0
1711005275550,1711005273312,2023692,0
1711005275550,1711005273352,2023609,0
1711005275550,1711005273393,2024051,0
1711005275550,1711005273432,2024934,0
1711005275550,1711005273473,2026107,0
1711005275550,1711005273513,2027392,0
1711005275550,1711005273553,2028889,0
1711005275550,1711005273594,2030536,0
1711005275550,1711005273633,2032316,0
1711005275550,1711005273673,2033859,0
1711005275550,1711005273713,2035615,0
1711005275550,1711005273753,2037346,0
1711005275550,1711005273794,2039301,0
1711005275550,1711005273834,2041424,0
1711005275550,1711005273874,2042763,0
1711005275550,1711005273914,2039897,0
1711005275550,1711005273954,2036168,0
1711005275550,1711005273995,2033379,0
1711005275550,1711005274034,2031439,0
1711005275550,1711005274075,2029870,0
1711005275550,1711005274115,2029038,0
1711005275550,1711005274155,2028932,0
1711005275550,1711005274196,2028729,0
1711005275550,1711005274235,2028379,0
1711005275550,1711005274275,2028094,0
1711005275550,1711005274315,2028483,0
1711005275550,1711005274355,2029282,0
1711005275550,1711005274396,2030391,0
1711005275550,1711005274436,2031531,0
1711005275550,1711005274476,2032766,0
1711005275550,1711005274516,2034143,0
1711005275550,1711005274556,2035639,0
1711005275550,1711005274597,2037243,0
1711005275550,1711005274636,2038979,0
1711005275550,1711005274677,2040987,0
1711005275550,1711005274717,2043119,0
1711005275550,1711005274757,2045185,0
1711005275550,1711005274798,2043435,0
1711005275550,1711005274837,2038978,0
1711005275550,1711005274877,2035141,0
1711005275550,1711005274918,2032164,0
1711005275550,1711005274958,2029414,0
1711005275550,1711005274999,2027002,0
1711005275550,1711005275038,2025899,0
1711005275550,1711005275078,2024995,0
1711005275550,1711005275118,2023854,0
1711005275550,1711005275159,2022863,0
1711005275550,1711005275199,2022403,0
1711005275550,1711005275239,2022664,0
1711005275550,1711005275279,2023357,0
1711005275550,1711005275319,2024401,0
1711005275550,1711005275359,2025439,0
1711005275550,1711005275400,2026483,0
1711005275550,1711005275440,2027614,0
1711005275550,1711005275480,2028977,0
1711005287566,1711005275519,2030313,0
1711005287566,1711005275559,2031763,0
1711005287566,1711005275600,2033376,0
1711005287566,1711005275640,2035356,0
1711005287566,1711005275680,2036703,0
1711005287566,1711005275720,2033266,0
1711005287566,1711005275760,2028224,0
1711005287566,1711005275801,2024600,0
1711005287566,1711005275840,2022248,0
1711005287566,1711005275881,2020208,0
1711005287566,1711005275921,2019123,0
1711005287566,1711005275961,2018848,0
1711005287566,1711005276002,2018210,0
1711005287566,1711005276041,2017182,0
1711005287566,1711005276081,2016372,0
1711005287566,1711005276121,2016168,0
1711005287566,1711005276161,2016376,0
1711005287566,1711005276202,2016944,0
1711005287566,1711005276242,2017916,0
1711005287566,1711005276282,2019105,0
1711005287566,1711005276322,2020293,0
1711005287566,1711005276362,2021829,0
1711005287566,1711005276403,2023219,0
1711005287566,1711005276443,2024736,0
1711005287566,1711005276483,2026383,0
1711005287566,1711005276523,2027939,0
1711005287566,1711005276563,2025777,0
1711005287566,1711005276604,2020696,0
1711005287566,1711005276643,2015912,0
1711005287566,1711005276683,2012179,0
1711005287566,1711005276723,2008973,0
1711005287566,1711005276763,2006109,0
1711005287566,1711005276804,2004705,0
1711005287566,1711005276844,2003558,0
1711005287566,1711005276884,2001990,0
1711005287566,1711005276924,2000732,0
1711005287566,1711005276964,2000259,0
1711005287566,1711005277005,2000276,0
1711005287566,1711005277044,2000843,0
1711005287566,1711005277084,2001482,0
1711005287566,1711005277124,2002452,0
1711005287566,1711005277164,2003575,0
1711005287566,1711005277205,2004669,0
1711005287566,1711005277245,2006017,0
1711005287566,1711005277285,2007478,0
1711005287566,1711005277325,2009059,0
1711005287566,1711005277365,2010748,0
1711005287566,1711005277406,2012845,0
1711005287566,1711005277445,2012770,0
1711005287566,1711005277485,2007768,0
1711005287566,1711005277525,2002614,0
1711005287566,1711005277566,1998157,0
1711005287566,1711005277606,1994455,0
1711005287566,1711005277646,1991016,0
1711005287566,1711005277686,1988773,0
1711005287566,1711005277726,1987688,0
1711005287566,1711005277766,1986526,0
1711005287566,1711005277807,1985648,0
1711005287566,1711005277846,1985052,0
1711005287566,1711005277886,1985065,0
1711005287566,1711005277927,1985843,0
1711005287566,1711005277967,1986776,0
1711005287566,1711005278008,1988007,0
1711005287566,1711005278047,1989485,0
1711005287566,1711005278087,1990899,0
1711005287566,1711005278127,1992374,0
1711005287566,1711005278167,1993675,0
1711005287566,1711005278208,1995295,0
1711005287566,1711005278248,1997143,0
1711005287566,1711005278288,1999021,0
1711005287566,1711005278328,2000917,0
1711005287566,1711005278368,2002983,0
1711005287566,1711005278409,2001649,0
1711005287566,1711005278448,1996488,0
1711005287566,1711005278488,1991824,0
1711005287566,1711005278529,1987934,0
1711005287566,1711005278569,1984462,0
1711005287566,1711005278609,1981343,0
1711005287566,1711005278649,1979369,0
1711005287566,1711005278689,1978193,0
1711005287566,1711005278729,1976960,0
1711005287566,1711005278769,1975949,0
1711005287566,1711005278810,1975493,0
1711005287566,1711005278849,1975689,0
1711005287566,1711005278890,1976366,0
1711005287566,1711005278930,1977433,0
1711005287566,1711005278970,1978674,0
1711005287566,1711005279011,1980103,0
1711005287566,1711005279050,1981477,0
1711005287566,1711005279090,1983208,0
1711005287566,1711005279130,1985006,0
1711005287566,1711005279170,1986961,0
1711005287566,1711005279211,1989039,0
1711005287566,1711005279251,1991346,0
1711005287566,1711005279291,1993469,0
1711005287566,1711005279331,1992146,0
1711005287566,1711005279371,1988217,0
1711005287566,1711005279412,1984786,0
1711005287566,1711005279451,1982344,0
1711005287566,1711005279492,1980194,0
1711005287566,1711005279532,1978821,0
1711005287566,1711005279572,1978795,0
1711005287566,1711005279613,1978645,0
1711005287566,1711005279652,1978393,0
1711005287566,1711005279692,1978364,0
1711005287566,1711005279732,1978964,0
1711005287566,1711005279772,1980069,0
1711005287566,1711005279813,1981339,0
1711005287566,1711005279853,1983127,0
1711005287566,1711005279893,1985027,0
1711005287566,1711005279933,1986876,0
1711005287566,1711005279973,1989132,0
1711005287566,1711005280014,1991568,0
1711005287566,1711005280053,1994282,0
1711005287566,1711005280094,1996900,0
1711005287566,1711005280134,1999444,0
1711005287566,1711005280174,1998862,0
1711005287566,1711005280215,1995792,0
1711005287566,1711005280254,1993323,0
1711005287566,1711005280294,1991204,0
1711005287566,1711005280334,1989460,0
1711005287566,1711005280374,1988436,0
1711005287566,1711005280415,1988612,0
1711005287566,1711005280455,1989081,0
1711005287566,1711005280495,1989161,0
1711005287566,1711005280535,1989539,0
1711005287566,1711005280575,1990361,0
1711005287566,1711005280616,1991643,0
1711005287566,1711005280655,1993035,0
1711005287566,1711005280696,1994447,0
1711005287566,1711005280736,1996055,0
1711005287566,1711005280776,1997785,0
1711005287566,1711005280817,1999682,0
1711005287566,1711005280856,2001663,0
1711005287566,1711005280896,2003857,0
1711005287566,1711005280936,2006180,0
1711005287566,1711005280976,2008503,0
1711005287566,1711005281017,2010794,0
1711005287566,1711005281057,2010597,0
1711005287566,1711005281097,2007292,0
1711005287566,1711005281137,2004408,0
1711005287566,1711005281177,2002289,0
1711005287566,1711005281218,2000557,0
1711005287566,1711005281257,1999098,0
1711005287566,1711005281298,1998810,0
1711005287566,1711005281338,1999047,0
1711005287566,1711005281378,1999105,0
1711005287566,1711005281419,1999312,0
1711005287566,1711005281458,1999937,0
1711005287566,1711005281498,2000768,0
1711005287566,1711005281538,2002118,0
1711005287566,1711005281579,2003616,0
1711005287566,1711005281619,2005226,0
1711005287566,1711005281659,2007108,0
1711005287566,1711005281699,2008976,0
1711005287566,1711005281739,2010907,0
1711005287566,1711005281779,2012962,0
1711005287566,1711005281820,2015107,0
1711005287566,1711005281860,2017414,0
1711005287566,1711005281900,2019730,0
1711005287566,1711005281940,2021301,0
1711005287566,1711005281980,2018793,0
1711005287566,1711005282021,2015920,0
1711005287566,1711005282060,2013734,0
1711005287566,1711005282101,2012044,0
1711005287566,1711005282141,2010520,0
1711005287566,1711005282181,2010461,0
1711005287566,1711005282222,2012281,0
1711005287566,1711005282261,2015550,0
1711005287566,1711005282301,2016833,0
1711005287566,1711005282341,2018332,0
1711005287566,1711005282381,2019868,0
1711005287566,1711005282422,2021384,0
1711005287566,1711005282461,2023068,0
1711005287566,1711005282502,2024696,0
1711005287566,1711005282542,2026356,0
1711005287566,1711005282582,2028127,0
1711005287566,1711005282623,2029903,0
1711005287566,1711005282662,2031575,0
1711005287566,1711005282702,2033559,0
1711005287566,1711005282742,2035678,0
1711005287566,1711005282782,2037204,0
1711005287566,1711005282823,2034812,0
1711005287566,1711005282862,2032029,0
1711005287566,1711005282902,2030132,0
1711005287566,1711005282942,2028632,0
1711005287566,1711005282983,2027577,0
1711005287566,1711005283023,2027377,0
1711005287566,1711005283063,2027568,0
1711005287566,1711005283103,2027434,0
1711005287566,1711005283143,2027019,0
1711005287566,1711005283183,2027031,0
1711005287566,1711005283224,2027268,0
1711005287566,1711005283263,2027921,0
1711005287566,1711005283303,2028737,0
1711005287566,1711005283344,2029757,0
1711005287566,1711005283384,2030874,0
1711005287566,1711005283425,2032110,0
1711005287566,1711005283464,2033327,0
1711005287566,1711005283504,2034816,0
1711005287566,1711005283544,2036343,0
1711005287566,1711005283584,2036733,0
1711005287566,1711005283625,2033902,0
1711005287566,1711005283664,2030914,0
1711005287566,1711005283705,2028573,0
1711005287566,1711005283745,2027005,0
1711005287566,1711005283785,2025920,0
1711005287566,1711005283826,2025747,0
1711005287566,1711005283865,2025752,0
1711005287566,1711005283905,2025567,0
1711005287566,1711005283945,2025490,0
1711005287566,1711005283985,2026013,0
1711005287566,1711005284026,2026558,0
1711005287566,1711005284066,2027322,0
1711005287566,1711005284106,2028204,0
1711005287566,1711005284146,2029189,0
1711005287566,1711005284186,2030284,0
1711005287566,1711005284227,2031666,0
1711005287566,1711005284266,2032777,0
1711005287566,1711005284306,2034395,0
1711005287566,1711005284346,2036103,0
1711005287566,1711005284386,2037077,0
1711005287566,1711005284427,2033901,0
1711005287566,1711005284467,2030369,0
1711005287566,1711005284507,2027333,0
1711005287566,1711005284547,2024512,0
1711005287566,1711005284587,2021734,0
1711005287566,1711005284628,2019855,0
1711005287566,1711005284667,2019009,0
1711005287566,1711005284707,2018222,0
1711005287566,1711005284747,2017373,0
1711005287566,1711005284788,2016756,0
1711005287566,1711005284828,2016542,0
1711005287566,1711005284868,2016767,0
1711005287566,1711005284908,2017311,0
1711005287566,1711005284948,2018068,0
1711005287566,1711005284988,2018935,0
1711005287566,1711005285029,2020001,0
1711005287566,1711005285068,2021150,0
1711005287566,1711005285108,2022391,0
1711005287566,1711005285149,2023568,0
1711005287566,1711005285189,2025187,0
1711005287566,1711005285229,2026683,0
1711005287566,1711005285269,2026061,0
1711005287566,1711005285309,2021578,0
1711005287566,1711005285349,2017316,0
1711005287566,1711005285389,2013808,0
1711005287566,1711005285430,2010242,0
1711005287566,1711005285469,2006768,0
1711005287566,1711005285510,2004830,0
1711005287566,1711005285550,2003380,0
1711005287566,1711005285590,2002050,0
1711005287566,1711005285631,2001021,0
1711005287566,1711005285670,2000133,0
1711005287566,1711005285710,1999655,0
1711005287566,1711005285750,1999642,0
1711005287566,1711005285790,1999929,0
1711005287566,1711005285831,2000527,0
1711005287566,1711005285871,2001350,0
1711005287566,1711005285911,2002243,0
1711005287566,1711005285951,2003210,0
1711005287566,1711005285991,2004363,0
1711005287566,1711005286032,2005849,0
1711005287566,1711005286071,2007519,0
1711005287566,1711005286111,2008835,0
1711005287566,1711005286151,2006301,0
1711005287566,1711005286192,2001671,0
1711005287566,1711005286232,1997732,0
1711005287566,1711005286272,1994310,0
1711005287566,1711005286312,1991211,0
1711005287566,1711005286352,1989020,0
1711005287566,1711005286392,1988024,0
1711005287566,1711005286433,1987104,0
1711005287566,1711005286473,1985871,0
1711005287566,1711005286513,1985092,0
1711005287566,1711005286553,1985064,0
1711005287566,1711005286593,1985461,0
1711005287566,1711005286634,1986244,0
1711005287566,1711005286673,1987141,0
1711005287566,1711005286713,1988342,0
1711005287566,1711005286753,1989640,0
1711005287566,1711005286794,1991047,0
1711005287566,1711005286834,1992568,0
1711005287566,1711005286874,1994356,0
1711005287566,1711005286914,1995125,0
1711005287566,1711005286954,1991602,0
1711005287566,1711005286994,1987041,0
1711005287566,1711005287035,1983199,0
1711005287566,1711005287075,1979774,0
1711005287566,1711005287115,1976940,0
1711005287566,1711005287155,1975435,0
1711005287566,1711005287195,1974476,0
1711005287566,1711005287236,1973645,0
1711005287566,1711005287275,1973166,0
1711005287566,1711005287315,1973176,0
1711005287566,1711005287355,1973652,0
1711005287566,1711005287396,1974390,0
1711005287566,1711005287437,1975559,0
1711005287566,1711005287476,1976621,0
1711005287566,1711005287516,1978141,0
1711005299643,1711005287558,1979617,0
1711005299643,1711005287598,1981031,0
1711005299643,1711005287639,1982560,0
1711005299643,1711005287679,1984296,0
1711005299643,1711005287719,1985940,0
1711005299643,1711005287759,1984791,0
1711005299643,1711005287799,1979831,0
1711005299643,1711005287840,1975443,0
1711005299643,1711005287879,1971488,0
1711005299643,1711005287920,1968286,0
1711005299643,1711005287960,1965577,0
1711005299643,1711005288000,1964400,0
1711005299643,1711005288041,1963810,0
1711005299643,1711005288080,1963228,0
1711005299643,1711005288120,1963219,0
1711005299643,1711005288160,1963636,0
1711005299643,1711005288200,1964816,0
1711005299643,1711005288241,1966313,0
1711005299643,1711005288281,1967937,0
1711005299643,1711005288321,1969683,0
1711005299643,1711005288361,1971296,0
1711005299643,1711005288401,1973013,0
1711005299643,1711005288442,1974461,0
1711005299643,1711005288481,1976031,0
1711005299643,1711005288522,1977709,0
1711005299643,1711005288562,1979431,0
1711005299643,1711005288602,1979860,0
1711005299643,1711005288643,1976327,0
1711005299643,1711005288682,1972576,0
1711005299643,1711005288722,1969713,0
1711005299643,1711005288762,1967581,0
1711005299643,1711005288802,1965782,0
1711005299643,1711005288843,1965788,0
1711005299643,1711005288882,1966122,0
1711005299643,1711005288922,1966989,0
1711005299643,1711005288963,1967747,0
1711005299643,1711005289003,1968772,0
1711005299643,1711005289043,1970636,0
1711005299643,1711005289083,1972826,0
1711005299643,1711005289123,1975107,0
1711005299643,1711005289163,1977556,0
1711005299643,1711005289203,1980162,0
1711005299643,1711005289244,1982783,0
1711005299643,1711005289283,1984972,0
1711005299643,1711005289323,1987271,0
1711005299643,1711005289364,1989493,0
1711005299643,1711005289404,1992505,0
1711005299643,1711005289444,1995377,0
1711005299643,1711005289484,1995313,0
1711005299643,1711005289524,1992258,0
1711005299643,1711005289564,1989594,0
1711005299643,1711005289604,1987667,0
1711005299643,1711005289645,1986114,0
1711005299643,1711005289684,1985229,0
1711005299643,1711005289725,1985668,0
1711005299643,1711005289765,1986128,0
1711005299643,1711005289805,1986422,0
1711005299643,1711005289846,1986730,0
1711005299643,1711005289885,1987408,0
1711005299643,1711005289925,1988388,0
1711005299643,1711005289965,1989484,0
1711005299643,1711005290005,1990670,0
1711005299643,1711005290046,1991931,0
1711005299643,1711005290086,1993137,0
1711005299643,1711005290126,1994265,0
1711005299643,1711005290166,1995638,0
1711005299643,1711005290206,1997282,0
1711005299643,1711005290247,1998952,0
1711005299643,1711005290286,1998994,0
1711005299643,1711005290326,1995580,0
1711005299643,1711005290366,1992246,0
1711005299643,1711005290406,1989507,0
1711005299643,1711005290447,1987308,0
1711005299643,1711005290487,1986012,0
1711005299643,1711005290527,1985827,0
1711005299643,1711005290567,1985566,0
1711005299643,1711005290607,1985363,0
1711005299643,1711005290648,1985128,0
1711005299643,1711005290687,1985717,0
1711005299643,1711005290727,1986603,0
1711005299643,1711005290767,1987805,0
1711005299643,1711005290808,1989392,0
1711005299643,1711005290848,1990938,0
1711005299643,1711005290888,1992554,0
1711005299643,1711005290928,1994595,0
1711005299643,1711005290968,1996444,0
1711005299643,1711005291008,1996871,0
1711005299643,1711005291049,1993663,0
1711005299643,1711005291088,1990564,0
1711005299643,1711005291128,1988118,0
1711005299643,1711005291169,1986112,0
1711005299643,1711005291209,1984882,0
1711005299643,1711005291249,1984714,0
1711005299643,1711005291289,1984725,0
1711005299643,1711005291329,1984242,0
1711005299643,1711005291369,1984105,0
1711005299643,1711005291409,1984383,0
1711005299643,1711005291450,1985378,0
1711005299643,1711005291489,1986463,0
1711005299643,1711005291530,1987753,0
1711005299643,1711005291570,1989326,0
1711005299643,1711005291610,1990886,0
1711005299643,1711005291651,1992638,0
1711005299643,1711005291690,1994551,0
1711005299643,1711005291730,1996374,0
1711005299643,1711005291770,1994883,0
1711005299643,1711005291810,1991540,0
1711005299643,1711005291851,1988586,0
1711005299643,1711005291891,1986126,0
1711005299643,1711005291931,1983762,0
1711005299643,1711005291971,1982347,0
1711005299643,1711005292011,1981813,0
1711005299643,1711005292052,1981519,0
1711005299643,1711005292091,1980989,0
1711005299643,1711005292131,1980823,0
1711005299643,1711005292171,1981003,0
1711005299643,1711005292212,1981687,0
1711005299643,1711005292252,1982520,0
1711005299643,1711005292292,1983806,0
1711005299643,1711005292332,1985102,0
1711005299643,1711005292372,1986558,0
1711005299643,1711005292412,1988001,0
1711005299643,1711005292453,1989597,0
1711005299643,1711005292492,1991392,0
1711005299643,1711005292533,1993154,0
1711005299643,1711005292573,1992938,0
1711005299643,1711005292613,1989573,0
1711005299643,1711005292654,1986343,0
1711005299643,1711005292693,1983611,0
1711005299643,1711005292733,1981185,0
1711005299643,1711005292773,1979013,0
1711005299643,1711005292814,1978295,0
1711005299643,1711005292854,1977768,0
1711005299643,1711005292894,1977549,0
1711005299643,1711005292934,1977298,0
1711005299643,1711005292974,1977786,0
1711005299643,1711005293014,1978481,0
1711005299643,1711005293055,1979613,0
1711005299643,1711005293094,1980920,0
1711005299643,1711005293134,1982510,0
1711005299643,1711005293175,1984248,0
1711005299643,1711005293215,1985941,0
1711005299643,1711005293256,1987699,0
1711005299643,1711005293295,1989408,0
1711005299643,1711005293335,1991248,0
1711005299643,1711005293375,1993221,0
1711005299643,1711005293415,1994588,0
1711005299643,1711005293456,1992319,0
1711005299643,1711005293496,1989169,0
1711005299643,1711005293536,1986784,0
1711005299643,1711005293576,1984811,0
1711005299643,1711005293616,1983127,0
1711005299643,1711005293657,1982487,0
1711005299643,1711005293697,1982624,0
1711005299643,1711005293737,1982579,0
1711005299643,1711005293777,1982383,0
1711005299643,1711005293817,1982600,0
1711005299643,1711005293858,1983376,0
1711005299643,1711005293897,1984313,0
1711005299643,1711005293937,1985723,0
1711005299643,1711005293977,1987205,0
1711005299643,1711005294017,1988810,0
1711005299643,1711005294058,1990395,0
1711005299643,1711005294098,1992091,0
1711005299643,1711005294138,1994087,0
1711005299643,1711005294178,1996401,0
1711005299643,1711005294218,1997978,0
1711005299643,1711005294259,1996295,0
1711005299643,1711005294298,1994078,0
1711005299643,1711005294338,1992449,0
1711005299643,1711005294378,1990733,0
1711005299643,1711005294419,1989433,0
1711005299643,1711005294459,1989171,0
1711005299643,1711005294499,1989020,0
1711005299643,1711005294539,1988703,0
1711005299643,1711005294579,1988617,0
1711005299643,1711005294619,1988710,0
1711005299643,1711005294660,1989358,0
1711005299643,1711005294700,1990123,0
1711005299643,1711005294740,1991259,0
1711005299643,1711005294780,1994010,0
1711005299643,1711005294820,1995452,0
1711005299643,1711005294861,1997026,0
1711005299643,1711005294900,1998819,0
1711005299643,1711005294940,2000767,0
1711005299643,1711005294980,2002330,0
1711005299643,1711005295020,2000311,0
1711005299643,1711005295061,1997013,0
1711005299643,1711005295100,1993862,0
1711005299643,1711005295141,1991538,0
1711005299643,1711005295181,1989387,0
1711005299643,1711005295221,1988096,0
1711005299643,1711005295262,1987642,0
1711005299643,1711005295301,1987257,0
1711005299643,1711005295341,1986988,0
1711005299643,1711005295381,1986887,0
1711005299643,1711005295421,1987201,0
1711005299643,1711005295462,1988011,0
1711005299643,1711005295501,1989111,0
1711005299643,1711005295541,1990745,0
1711005299643,1711005295581,1992284,0
1711005299643,1711005295622,1993735,0
1711005299643,1711005295662,1995192,0
1711005299643,1711005295702,1996799,0
1711005299643,1711005295742,1998503,0
1711005299643,1711005295782,2000283,0
1711005299643,1711005295822,2002272,0
1711005299643,1711005295863,2002150,0
1711005299643,1711005295902,1998616,0
1711005299643,1711005295942,1995002,0
1711005299643,1711005295983,1992064,0
1711005299643,1711005296023,1989554,0
1711005299643,1711005296063,1987411,0
1711005299643,1711005296103,1986706,0
1711005299643,1711005296143,1986304,0
1711005299643,1711005296183,1985831,0
1711005299643,1711005296223,1985488,0
1711005299643,1711005296264,1985566,0
1711005299643,1711005296303,1985997,0
1711005299643,1711005296343,1986684,0
1711005299643,1711005296383,1987904,0
1711005299643,1711005296424,1989126,0
1711005299643,1711005296464,1990490,0
1711005299643,1711005296504,1992016,0
1711005299643,1711005296544,1993595,0
1711005299643,1711005296584,1995295,0
1711005299643,1711005296624,1996979,0
1711005299643,1711005296665,1998906,0
1711005299643,1711005296704,2000879,0
1711005299643,1711005296744,2002633,0
1711005299643,1711005296784,2000783,0
1711005299643,1711005296824,1996901,0
1711005299643,1711005296865,1993674,0
1711005299643,1711005296905,1991066,0
1711005299643,1711005296945,1988737,0
1711005299643,1711005296985,1987312,0
1711005299643,1711005297025,1987118,0
1711005299643,1711005297066,1986841,0
1711005299643,1711005297105,1986421,0
1711005299643,1711005297145,1986225,0
1711005299643,1711005297185,1986504,0
1711005299643,1711005297225,1987238,0
1711005299643,1711005297266,1988460,0
1711005299643,1711005297306,1989768,0
1711005299643,1711005297346,1991485,0
1711005299643,1711005297386,1993028,0
1711005299643,1711005297426,1994845,0
1711005299643,1711005297467,1996507,0
1711005299643,1711005297506,1998254,0
1711005299643,1711005297546,2000276,0
1711005299643,1711005297586,2002273,0
1711005299643,1711005297626,2001682,0
1711005299643,1711005297667,1998315,0
1711005299643,1711005297707,1995211,0
1711005299643,1711005297747,1992839,0
1711005299643,1711005297787,1991398,0
1711005299643,1711005297827,1990872,0
1711005299643,1711005297868,1991475,0
1711005299643,1711005297907,1991813,0
1711005299643,1711005297947,1991743,0
1711005299643,1711005297987,1991721,0
1711005299643,1711005298027,1992127,0
1711005299643,1711005298068,1992940,0
1711005299643,1711005298107,1994079,0
1711005299643,1711005298148,1995371,0
1711005299643,1711005298188,1996645,0
1711005299643,1711005298228,1998206,0
1711005299643,1711005298269,1999690,0
1711005299643,1711005298308,2001332,0
1711005299643,1711005298348,2002620,0
1711005299643,1711005298388,2000695,0
1711005299643,1711005298428,1997134,0
1711005299643,1711005298469,1994471,0
1711005299643,1711005298509,1992553,0
1711005299643,1711005298549,1991176,0
1711005299643,1711005298589,1990977,0
1711005299643,1711005298629,1991388,0
1711005299643,1711005298670,1991710,0
1711005299643,1711005298709,1991848,0
1711005299643,1711005298749,1992155,0
1711005299643,1711005298789,1993142,0
1711005299643,1711005298829,1994376,0
1711005299643,1711005298870,1995705,0
1711005299643,1711005298910,1997257,0
1711005299643,1711005298950,1998931,0
1711005299643,1711005298990,2000620,0
1711005299643,1711005299030,2002605,0
1711005299643,1711005299071,2004501,0
1711005299643,1711005299110,2003008,0
1711005299643,1711005299150,1999102,0
1711005299643,1711005299190,1995582,0
1711005299643,1711005299231,1992374,0
1711005299643,1711005299271,1989571,0
1711005299643,1711005299311,1987369,0
1711005299643,1711005299351,1986364,0
1711005299643,1711005299391,1985421,0
1711005299643,1711005299431,1984476,0
1711005299643,1711005299472,1983644,0
1711005299643,1711005299511,1983540,0
1711005299643,1711005299551,1983852,0
1711005311656,1711005299592,1984334,0
1711005311656,1711005299632,1985312,0
1711005311656,1711005299673,1986460,0
1711005311656,1711005299712,1987777,0
1711005311656,1711005299752,1989325,0
1711005311656,1711005299792,1991350,0
1711005311656,1711005299832,1993346,0
1711005311656,1711005299873,1992635,0
1711005311656,1711005299913,1989134,0
1711005311656,1711005299953,1985971,0
1711005311656,1711005299993,1983384,0
1711005311656,1711005300033,1981154,0
1711005311656,1711005300074,1979915,0
1711005311656,1711005300113,1979954,0
1711005311656,1711005300153,1980545,0
1711005311656,1711005300194,1980902,0
1711005311656,1711005300233,1981440,0
1711005311656,1711005300274,1982290,0
1711005311656,1711005300314,1983278,0
1711005311656,1711005300354,1984395,0
1711005311656,1711005300394,1985434,0
1711005311656,1711005300434,1986509,0
1711005311656,1711005300475,1987362,0
1711005311656,1711005300514,1988379,0
1711005311656,1711005300555,1989362,0
1711005311656,1711005300595,1990514,0
1711005311656,1711005300635,1991697,0
1711005311656,1711005300676,1992510,0
1711005311656,1711005300715,1989251,0
1711005311656,1711005300755,1984694,0
1711005311656,1711005300795,1980706,0
1711005311656,1711005300835,1977388,0
1711005311656,1711005300876,1974758,0
1711005311656,1711005300916,1973143,0
1711005311656,1711005300956,1972439,0
1711005311656,1711005300996,1971628,0
1711005311656,1711005301036,1970837,0
1711005311656,1711005301077,1970513,0
1711005311656,1711005301116,1970712,0
1711005311656,1711005301157,1971388,0
1711005311656,1711005301197,1972387,0
1711005311656,1711005301237,1973327,0
1711005311656,1711005301278,1974573,0
1711005311656,1711005301317,1975922,0
1711005311656,1711005301357,1977291,0
1711005311656,1711005301397,1979174,0
1711005311656,1711005301437,1980803,0
1711005311656,1711005301478,1979837,0
1711005311656,1711005301518,1976281,0
1711005311656,1711005301558,1972865,0
1711005311656,1711005301598,1970194,0
1711005311656,1711005301638,1967991,0
1711005311656,1711005301679,1967064,0
1711005311656,1711005301718,1966918,0
1711005311656,1711005301758,1966631,0
1711005311656,1711005301798,1966152,0
1711005311656,1711005301838,1965981,0
1711005311656,1711005301879,1966227,0
1711005311656,1711005301919,1966854,0
1711005311656,1711005301959,1967725,0
1711005311656,1711005301999,1968950,0
1711005311656,1711005302039,1970264,0
1711005311656,1711005302080,1971536,0
1711005311656,1711005302119,1972993,0
1711005311656,1711005302159,1974612,0
1711005311656,1711005302199,1976472,0
1711005311656,1711005302239,1977103,0
1711005311656,1711005302280,1973733,0
1711005311656,1711005302319,1970066,0
1711005311656,1711005302360,1966974,0
1711005311656,1711005302400,1964334,0
1711005311656,1711005302440,1961964,0
1711005311656,1711005302481,1961169,0
1711005311656,1711005302520,1960844,0
1711005311656,1711005302560,1960396,0
1711005311656,1711005302600,1960137,0
1711005311656,1711005302640,1960458,0
1711005311656,1711005302681,1961312,0
1711005311656,1711005302720,1962554,0
1711005311656,1711005302760,1964143,0
1711005311656,1711005302801,1965977,0
1711005311656,1711005302841,1967597,0
1711005311656,1711005302881,1969588,0
1711005311656,1711005302921,1971561,0
1711005311656,1711005302961,1973625,0
1711005311656,1711005303001,1975964,0
1711005311656,1711005303041,1978253,0
1711005311656,1711005303082,1980341,0
1711005311656,1711005303121,1978789,0
1711005311656,1711005303161,1975073,0
1711005311656,1711005303202,1971732,0
1711005311656,1711005303242,1968956,0
1711005311656,1711005303282,1966560,0
1711005311656,1711005303322,1964787,0
1711005311656,1711005303362,1964479,0
1711005311656,1711005303402,1964237,0
1711005311656,1711005303442,1964006,0
1711005311656,1711005303483,1963984,0
1711005311656,1711005303522,1964509,0
1711005311656,1711005303562,1965473,0
1711005311656,1711005303602,1966652,0
1711005311656,1711005303643,1968207,0
1711005311656,1711005303683,1969955,0
1711005311656,1711005303723,1971859,0
1711005311656,1711005303763,1973405,0
1711005311656,1711005303803,1975378,0
1711005311656,1711005303843,1977545,0
1711005311656,1711005303884,1979650,0
1711005311656,1711005303923,1981874,0
1711005311656,1711005303963,1982972,0
1711005311656,1711005304003,1980410,0
1711005311656,1711005304044,1977378,0
1711005311656,1711005304084,1974824,0
1711005311656,1711005304124,1972895,0
1711005311656,1711005304164,1971231,0
1711005311656,1711005304204,1970892,0
1711005311656,1711005304244,1971068,0
1711005311656,1711005304285,1970888,0
1711005311656,1711005304324,1970806,0
1711005311656,1711005304364,1971185,0
1711005311656,1711005304404,1972101,0
1711005311656,1711005304444,1973150,0
1711005311656,1711005304485,1974368,0
1711005311656,1711005304525,1975809,0
1711005311656,1711005304565,1977501,0
1711005311656,1711005304605,1979237,0
1711005311656,1711005304645,1981031,0
1711005311656,1711005304686,1982932,0
1711005311656,1711005304725,1984829,0
1711005311656,1711005304765,1984402,0
1711005311656,1711005304805,1981146,0
1711005311656,1711005304845,1977988,0
1711005311656,1711005304886,1975576,0
1711005311656,1711005304926,1973724,0
1711005311656,1711005304966,1972504,0
1711005311656,1711005305006,1972427,0
1711005311656,1711005305046,1972572,0
1711005311656,1711005305087,1972572,0
1711005311656,1711005305126,1972865,0
1711005311656,1711005305166,1973478,0
1711005311656,1711005305206,1974434,0
1711005311656,1711005305246,1975940,0
1711005311656,1711005305287,1977517,0
1711005311656,1711005305327,1979287,0
1711005311656,1711005305367,1981142,0
1711005311656,1711005305407,1983021,0
1711005311656,1711005305447,1984998,0
1711005311656,1711005305488,1987113,0
1711005311656,1711005305527,1989137,0
1711005311656,1711005305567,1991289,0
1711005311656,1711005305607,1991613,0
1711005311656,1711005305647,1988222,0
1711005311656,1711005305688,1985117,0
1711005311656,1711005305728,1982659,0
1711005311656,1711005305768,1980541,0
1711005311656,1711005305808,1978956,0
1711005311656,1711005305848,1978549,0
1711005311656,1711005305889,1978716,0
1711005311656,1711005305928,1978714,0
1711005311656,1711005305968,1978685,0
1711005311656,1711005306008,1979298,0
1711005311656,1711005306048,1980188,0
1711005311656,1711005306089,1981325,0
1711005311656,1711005306129,1982794,0
1711005311656,1711005306169,1984571,0
1711005311656,1711005306209,1986508,0
1711005311656,1711005306249,1988466,0
1711005311656,1711005306290,1990469,0
1711005311656,1711005306329,1992434,0
1711005311656,1711005306369,1994513,0
1711005311656,1711005306409,1996539,0
1711005311656,1711005306450,1998880,0
1711005311656,1711005306490,2000914,0
1711005311656,1711005306530,1998926,0
1711005311656,1711005306570,1995602,0
1711005311656,1711005306613,1992931,0
1711005311656,1711005306650,1990788,0
1711005311656,1711005306691,1988951,0
1711005311656,1711005306730,1988104,0
1711005311656,1711005306771,1988151,0
1711005311656,1711005306811,1988131,0
1711005311656,1711005306851,1987946,0
1711005311656,1711005306892,1987917,0
1711005311656,1711005306931,1988496,0
1711005311656,1711005306971,1989400,0
1711005311656,1711005307011,1990578,0
1711005311656,1711005307052,1991950,0
1711005311656,1711005307092,1993423,0
1711005311656,1711005307132,1995043,0
1711005311656,1711005307172,1996622,0
1711005311656,1711005307212,1998368,0
1711005311656,1711005307252,2000025,0
1711005311656,1711005307293,2002027,0
1711005311656,1711005307332,2004022,0
1711005311656,1711005307373,2004736,0
1711005311656,1711005307413,2001598,0
1711005311656,1711005307453,1998709,0
1711005311656,1711005307494,1996403,0
1711005311656,1711005307533,1994877,0
1711005311656,1711005307573,1993860,0
1711005311656,1711005307613,1993888,0
1711005311656,1711005307653,1994133,0
1711005311656,1711005307694,1994182,0
1711005311656,1711005307734,1994066,0
1711005311656,1711005307774,1994599,0
1711005311656,1711005307814,1995313,0
1711005311656,1711005307854,1996468,0
1711005311656,1711005307895,1997814,0
1711005311656,1711005307934,1999481,0
1711005311656,1711005307974,2000944,0
1711005311656,1711005308015,2002637,0
1711005311656,1711005308055,2004402,0
1711005311656,1711005308096,2006154,0
1711005311656,1711005308135,2008050,0
1711005311656,1711005308175,2010123,0
1711005311656,1711005308215,2009369,0
1711005311656,1711005308255,2005421,0
1711005311656,1711005308296,2002409,0
1711005311656,1711005308336,1999877,0
1711005311656,1711005308376,1997880,0
1711005311656,1711005308416,1996291,0
1711005311656,1711005308456,1995931,0
1711005311656,1711005308497,1995745,0
1711005311656,1711005308536,1995132,0
1711005311656,1711005308576,1995302,0
1711005311656,1711005308617,1995843,0
1711005311656,1711005308656,1997103,0
1711005311656,1711005308697,1997777,0
1711005311656,1711005308737,1998959,0
1711005311656,1711005308777,2000241,0
1711005311656,1711005308820,2001565,0
1711005311656,1711005308857,2002916,0
1711005311656,1711005308898,2004449,0
1711005311656,1711005308937,2005955,0
1711005311656,1711005308977,2007578,0
1711005311656,1711005309017,2008835,0
1711005311656,1711005309057,2005635,0
1711005311656,1711005309098,2001372,0
1711005311656,1711005309138,1997761,0
1711005311656,1711005309178,1994587,0
1711005311656,1711005309218,1991978,0
1711005311656,1711005309258,1990150,0
1711005311656,1711005309299,1989309,0
1711005311656,1711005309338,1988430,0
1711005311656,1711005309378,1987526,0
1711005311656,1711005309418,1986948,0
1711005311656,1711005309459,1986776,0
1711005311656,1711005309499,1987184,0
1711005311656,1711005309539,1987761,0
1711005311656,1711005309579,1988461,0
1711005311656,1711005309619,1989774,0
1711005311656,1711005309659,1991222,0
1711005311656,1711005309700,1992600,0
1711005311656,1711005309739,1994187,0
1711005311656,1711005309779,1995758,0
1711005311656,1711005309819,1997580,0
1711005311656,1711005309859,1999570,0
1711005311656,1711005309900,1999880,0
1711005311656,1711005309940,1996060,0
1711005311656,1711005309980,1992035,0
1711005311656,1711005310020,1988734,0
1711005311656,1711005310060,1986063,0
1711005311656,1711005310101,1983671,0
1711005311656,1711005310140,1982331,0
1711005311656,1711005310180,1981740,0
1711005311656,1711005310220,1981087,0
1711005311656,1711005310261,1980361,0
1711005311656,1711005310301,1980051,0
1711005311656,1711005310341,1980271,0
1711005311656,1711005310381,1981069,0
1711005311656,1711005310421,1981967,0
1711005311656,1711005310461,1983034,0
1711005311656,1711005310502,1984173,0
1711005311656,1711005310541,1985427,0
1711005311656,1711005310581,1986602,0
1711005311656,1711005310622,1988089,0
1711005311656,1711005310662,1989636,0
1711005311656,1711005310702,1989814,0
1711005311656,1711005310742,1986107,0
1711005311656,1711005310782,1982328,0
1711005311656,1711005310822,1979251,0
1711005311656,1711005310862,1976650,0
1711005311656,1711005310903,1974750,0
1711005311656,1711005310942,1973998,0
1711005311656,1711005310983,1973228,0
1711005311656,1711005311026,1972533,0
1711005311656,1711005311063,1971856,0
1711005311656,1711005311104,1971729,0
1711005311656,1711005311143,1972038,0
1711005311656,1711005311183,1972705,0
1711005311656,1711005311223,1973882,0
1711005311656,1711005311264,1975083,0
1711005311656,1711005311304,1976194,0
1711005311656,1711005311344,1977712,0
1711005311656,1711005311384,1979281,0
1711005311656,1711005311424,1980614,0
1711005311656,1711005311464,1978311,0
1711005311656,1711005311505,1973988,0
1711005311656,1711005311544,1970369,0
1711005311656,1711005311584,1967153,0
1711005323679,1711005311625,1964658,0
1711005323679,1711005311664,1963182,0
1711005323679,1711005311705,1962716,0
1711005323679,1711005311745,1961878,0
1711005323679,1711005311785,1961042,0
1711005323679,1711005311825,1960526,0
1711005323679,1711005311865,1960649,0
1711005323679,1711005311906,1961034,0
1711005323679,1711005311945,1962017,0
1711005323679,1711005311986,1963100,0
1711005323679,1711005312026,1964274,0
1711005323679,1711005312066,1965540,0
1711005323679,1711005312107,1966897,0
1711005323679,1711005312146,1968284,0
1711005323679,1711005312186,1969950,0
1711005323679,1711005312226,1970049,0
1711005323679,1711005312266,1965912,0
1711005323679,1711005312307,1961351,0
1711005323679,1711005312347,1957275,0
1711005323679,1711005312387,1953436,0
1711005323679,1711005312427,1950033,0
1711005323679,1711005312467,1948004,0
1711005323679,1711005312508,1946880,0
1711005323679,1711005312547,1945414,0
1711005323679,1711005312588,1945774,0
1711005323679,1711005312628,1947360,0
1711005323679,1711005312668,1949518,0
1711005323679,1711005312709,1952483,0
1711005323679,1711005312748,1955987,0
1711005323679,1711005312788,1959719,0
1711005323679,1711005312829,1963937,0
1711005323679,1711005312869,1967895,0
1711005323679,1711005312909,1971481,0
1711005323679,1711005312949,1974547,0
1711005323679,1711005312989,1977058,0
1711005323679,1711005313029,1979123,0
1711005323679,1711005313069,1978750,0
1711005323679,1711005313110,1973889,0
1711005323679,1711005313150,1969100,0
1711005323679,1711005313190,1965200,0
1711005323679,1711005313230,1961449,0
1711005323679,1711005313270,1958104,0
1711005323679,1711005313311,1956410,0
1711005323679,1711005313350,1955104,0
1711005323679,1711005313390,1953964,0
1711005323679,1711005313431,1952866,0
1711005323679,1711005313471,1952620,0
1711005323679,1711005313511,1952357,0
1711005323679,1711005313551,1952909,0
1711005323679,1711005313591,1953636,0
1711005323679,1711005313631,1954804,0
1711005323679,1711005313671,1956296,0
1711005323679,1711005313712,1958371,0
1711005323679,1711005313752,1960860,0
1711005323679,1711005313792,1963111,0
1711005323679,1711005313832,1965149,0
1711005323679,1711005313872,1967165,0
1711005323679,1711005313913,1968979,0
1711005323679,1711005313952,1967106,0
1711005323679,1711005313993,1962687,0
1711005323679,1711005314033,1958783,0
1711005323679,1711005314073,1955527,0
1711005323679,1711005314114,1952391,0
1711005323679,1711005314153,1950559,0
1711005323679,1711005314193,1950120,0
1711005323679,1711005314234,1949946,0
1711005323679,1711005314274,1949933,0
1711005323679,1711005314315,1950252,0
1711005323679,1711005314354,1951171,0
1711005323679,1711005314394,1952834,0
1711005323679,1711005314434,1954476,0
1711005323679,1711005314474,1956216,0
1711005323679,1711005314515,1958127,0
1711005323679,1711005314555,1959836,0
1711005323679,1711005314595,1961841,0
1711005323679,1711005314635,1963811,0
1711005323679,1711005314675,1965717,0
1711005323679,1711005314716,1968007,0
1711005323679,1711005314755,1970391,0
1711005323679,1711005314795,1972516,0
1711005323679,1711005314835,1971612,0
1711005323679,1711005314876,1968480,0
1711005323679,1711005314916,1965925,0
1711005323679,1711005314956,1964139,0
1711005323679,1711005314996,1962883,0
1711005323679,1711005315036,1962526,0
1711005323679,1711005315076,1962967,0
1711005323679,1711005315117,1963267,0
1711005323679,1711005315156,1963037,0
1711005323679,1711005315196,1963286,0
1711005323679,1711005315236,1964203,0
1711005323679,1711005315276,1965267,0
1711005323679,1711005315317,1966826,0
1711005323679,1711005315357,1968418,0
1711005323679,1711005315397,1970185,0
1711005323679,1711005315437,1972098,0
1711005323679,1711005315477,1974098,0
1711005323679,1711005315518,1976152,0
1711005323679,1711005315557,1976907,0
1711005323679,1711005315597,1974588,0
1711005323679,1711005315637,1972198,0
1711005323679,1711005315677,1970678,0
1711005323679,1711005315718,1969566,0
1711005323679,1711005315758,1969248,0
1711005323679,1711005315798,1970041,0
1711005323679,1711005315838,1970585,0
1711005323679,1711005315878,1970873,0
1711005323679,1711005315919,1971539,0
1711005323679,1711005315958,1972526,0
1711005323679,1711005315998,1973843,0
1711005323679,1711005316038,1975509,0
1711005323679,1711005316079,1977285,0
1711005323679,1711005316119,1979229,0
1711005323679,1711005316159,1981083,0
1711005323679,1711005316199,1983204,0
1711005323679,1711005316239,1985264,0
1711005323679,1711005316279,1986557,0
1711005323679,1711005316320,1983909,0
1711005323679,1711005316359,1980862,0
1711005323679,1711005316399,1978586,0
1711005323679,1711005316440,1976742,0
1711005323679,1711005316480,1975243,0
1711005323679,1711005316520,1974926,0
1711005323679,1711005316560,1975001,0
1711005323679,1711005316600,1975070,0
1711005323679,1711005316640,1975164,0
1711005323679,1711005316680,1975641,0
1711005323679,1711005316721,1976543,0
1711005323679,1711005316760,1977805,0
1711005323679,1711005316801,1979493,0
1711005323679,1711005316840,1981110,0
1711005323679,1711005316881,1982916,0
1711005323679,1711005316922,1984611,0
1711005323679,1711005316961,1986448,0
1711005323679,1711005317001,1988396,0
1711005323679,1711005317041,1990508,0
1711005323679,1711005317081,1990500,0
1711005323679,1711005317122,1987264,0
1711005323679,1711005317162,1984217,0
1711005323679,1711005317202,1981952,0
1711005323679,1711005317242,1980161,0
1711005323679,1711005317282,1978720,0
1711005323679,1711005317323,1978552,0
1711005323679,1711005317362,1978495,0
1711005323679,1711005317402,1978430,0
1711005323679,1711005317442,1978467,0
1711005323679,1711005317482,1978844,0
1711005323679,1711005317523,1979696,0
1711005323679,1711005317563,1980944,0
1711005323679,1711005317603,1982236,0
1711005323679,1711005317643,1983708,0
1711005323679,1711005317683,1985285,0
1711005323679,1711005317724,1986727,0
1711005323679,1711005317763,1988359,0
1711005323679,1711005317803,1989956,0
1711005323679,1711005317843,1991756,0
1711005323679,1711005317884,1993750,0
