dataReceived,timestamp,ppg,status
1712190149040,1712190136968,1970976,0
1712190149040,1712190137005,1968007,0
1712190149040,1712190137045,1965839,0
1712190149040,1712190137086,1964899,0
1712190149040,1712190137127,1964816,0
1712190149040,1712190137166,1964715,0
1712190149040,1712190137206,1964303,0
1712190149040,1712190137246,1963588,0
1712190149040,1712190137286,1963277,0
1712190149040,1712190137327,1963507,0
1712190149040,1712190137366,1964230,0
1712190149040,1712190137406,1965588,0
1712190149040,1712190137447,1966950,0
1712190149040,1712190137487,1968218,0
1712190149040,1712190137528,1969642,0
1712190149040,1712190137567,1969498,0
1712190149040,1712190137607,1966266,0
1712190149040,1712190137647,1962181,0
1712190149040,1712190137687,1959220,0
1712190149040,1712190137729,1957295,0
1712190149040,1712190137768,1955897,0
1712190149040,1712190137808,1955166,0
1712190149040,1712190137848,1954040,0
1712190149040,1712190137888,1952524,0
1712190149040,1712190137929,1951132,0
1712190149040,1712190137969,1950791,0
1712190149040,1712190138009,1950790,0
1712190149040,1712190138049,1951524,0
1712190149040,1712190138089,1952378,0
1712190149040,1712190138130,1953562,0
1712190149040,1712190138169,1955395,0
1712190149040,1712190138209,1957691,0
1712190149040,1712190138249,1957439,0
1712190149040,1712190138290,1950438,0
1712190149040,1712190138331,1940594,0
1712190149040,1712190138370,1928855,0
1712190149040,1712190138410,1915371,0
1712190149040,1712190138450,1903970,0
1712190149040,1712190138490,1894233,0
1712190149040,1712190138532,1884282,0
1712190149040,1712190138571,1874809,0
1712190149040,1712190138611,1867716,0
1712190149040,1712190138651,1864788,0
1712190149040,1712190138691,1865733,0
1712190149040,1712190138732,1868103,0
1712190149040,1712190138773,1871158,0
1712190149040,1712190138812,1874835,0
1712190149040,1712190138852,1882059,0
1712190149040,1712190138892,1882672,0
1712190149040,1712190138933,1877133,0
1712190149040,1712190138972,1869507,0
1712190149040,1712190139012,1863035,0
1712190149040,1712190139052,1857014,0
1712190149040,1712190139092,1851411,0
1712190149040,1712190139133,1845533,0
1712190149040,1712190139175,1838981,0
1712190149040,1712190139213,1830005,0
1712190149040,1712190139253,1822761,0
1712190149040,1712190139293,1813651,0
1712190149040,1712190139334,1806651,0
1712190149040,1712190139373,1801515,0
1712190149040,1712190139413,1797757,0
1712190149040,1712190139453,1795120,0
1712190149040,1712190139493,1793863,0
1712190149040,1712190139535,1793261,0
1712190149040,1712190139573,1788730,0
1712190149040,1712190139614,1777659,0
1712190149040,1712190139654,1765716,0
1712190149040,1712190139694,1756649,0
1712190149040,1712190139735,1749306,0
1712190149040,1712190139774,1744269,0
1712190149040,1712190139814,1740421,0
1712190149040,1712190139854,1735735,0
1712190149040,1712190139894,1730589,0
1712190149040,1712190139935,1726790,0
1712190149040,1712190139975,1725105,0
1712190149040,1712190140015,1725502,0
1712190149040,1712190140055,1727191,0
1712190149040,1712190140095,1729689,0
1712190149040,1712190140136,1732686,0
1712190149040,1712190140175,1735601,0
1712190149040,1712190140215,1737797,0
1712190149040,1712190140255,1732656,0
1712190149040,1712190140295,1722555,0
1712190149040,1712190140336,1714366,0
1712190149040,1712190140376,1708818,0
1712190149040,1712190140416,1705088,0
1712190149040,1712190140456,1703966,0
1712190149040,1712190140496,1703066,0
1712190149040,1712190140537,1701125,0
1712190149040,1712190140576,1698326,0
1712190149040,1712190140616,1696623,0
1712190149040,1712190140656,1696378,0
1712190149040,1712190140696,1697571,0
1712190149040,1712190140737,1699185,0
1712190149040,1712190140776,1701615,0
1712190149040,1712190140817,1704456,0
1712190149040,1712190140857,1707381,0
1712190149040,1712190140897,1708161,0
1712190149040,1712190140938,1700691,0
1712190149040,1712190140977,1690818,0
1712190149040,1712190141017,1683244,0
1712190149040,1712190141057,1678165,0
1712190149040,1712190141097,1674991,0
1712190149040,1712190141138,1673620,0
1712190149040,1712190141178,1672398,0
1712190149040,1712190141218,1670191,0
1712190149040,1712190141258,1668402,0
1712190149040,1712190141298,1668085,0
1712190149040,1712190141339,1669231,0
1712190149040,1712190141381,1671198,0
1712190149040,1712190141418,1673769,0
1712190149040,1712190141459,1676685,0
1712190149040,1712190141499,1679888,0
1712190149040,1712190141540,1683316,0
1712190149040,1712190141579,1685045,0
1712190149040,1712190141619,1678902,0
1712190149040,1712190141659,1669376,0
1712190149040,1712190141699,1662637,0
1712190149040,1712190141740,1658889,0
1712190149040,1712190141781,1656888,0
1712190149040,1712190141820,1656981,0
1712190149040,1712190141860,1656817,0
1712190149040,1712190141900,1655892,0
1712190149040,1712190141941,1655420,0
1712190149040,1712190141980,1656386,0
1712190149040,1712190142020,1658639,0
1712190149040,1712190142060,1661998,0
1712190149040,1712190142100,1665644,0
1712190149040,1712190142142,1669392,0
1712190149040,1712190142181,1673203,0
1712190149040,1712190142221,1677328,0
1712190149040,1712190142261,1680768,0
1712190149040,1712190142301,1677808,0
1712190149040,1712190142342,1669491,0
1712190149040,1712190142381,1662699,0
1712190149040,1712190142422,1659226,0
1712190149040,1712190142462,1657819,0
1712190149040,1712190142502,1658363,0
1712190149040,1712190142543,1659266,0
1712190149040,1712190142582,1659630,0
1712190149040,1712190142622,1660032,0
1712190149040,1712190142662,1661776,0
1712190149040,1712190142702,1664910,0
1712190149040,1712190142743,1669295,0
1712190149040,1712190142783,1674234,0
1712190149040,1712190142823,1679277,0
1712190149040,1712190142863,1684521,0
1712190149040,1712190142903,1690006,0
1712190149040,1712190142944,1695895,0
1712190149040,1712190142983,1699529,0
1712190149040,1712190143024,1696573,0
1712190149040,1712190143063,1692306,0
1712190149040,1712190143104,1690529,0
1712190149040,1712190143145,1690562,0
1712190149040,1712190143184,1691853,0
1712190149040,1712190143224,1694205,0
1712190149040,1712190143264,1695569,0
1712190149040,1712190143304,1695845,0
1712190149040,1712190143345,1696495,0
1712190149040,1712190143385,1697761,0
1712190149040,1712190143425,1699748,0
1712190149040,1712190143465,1702064,0
1712190149040,1712190143505,1704703,0
1712190149040,1712190143546,1707504,0
1712190149040,1712190143585,1710640,0
1712190149040,1712190143625,1713992,0
1712190149040,1712190143665,1715474,0
1712190149040,1712190143705,1710899,0
1712190149040,1712190143747,1704717,0
1712190149040,1712190143786,1701382,0
1712190149040,1712190143826,1700593,0
1712190149040,1712190143866,1701748,0
1712190149040,1712190143906,1703777,0
1712190149040,1712190143947,1705221,0
1712190149040,1712190143987,1706039,0
1712190149040,1712190144027,1707371,0
1712190149040,1712190144067,1710063,0
1712190149040,1712190144107,1713505,0
1712190149040,1712190144148,1717768,0
1712190149040,1712190144187,1722304,0
1712190149040,1712190144227,1727244,0
1712190149040,1712190144267,1732107,0
1712190149040,1712190144307,1737090,0
1712190149040,1712190144349,1738543,0
1712190149040,1712190144388,1734440,0
1712190149040,1712190144428,1730155,0
1712190149040,1712190144468,1728014,0
1712190149040,1712190144508,1726414,0
1712190149040,1712190144549,1724259,0
1712190149040,1712190144589,1721661,0
1712190149040,1712190144629,1722663,0
1712190149040,1712190144669,1726084,0
1712190149040,1712190144709,1730541,0
1712190149040,1712190144750,1737239,0
1712190149040,1712190144791,1744608,0
1712190149040,1712190144829,1752175,0
1712190149040,1712190144870,1759611,0
1712190149040,1712190144910,1766757,0
1712190149040,1712190144951,1773798,0
1712190149040,1712190144990,1780819,0
1712190149040,1712190145030,1784799,0
1712190149040,1712190145070,1783785,0
1712190149040,1712190145110,1782939,0
1712190149040,1712190145151,1783923,0
1712190149040,1712190145190,1785669,0
1712190149040,1712190145230,1788365,0
1712190149040,1712190145270,1791449,0
1712190149040,1712190145311,1794053,0
1712190149040,1712190145351,1796194,0
1712190149040,1712190145391,1798802,0
1712190149040,1712190145431,1802327,0
1712190149040,1712190145471,1805892,0
1712190149040,1712190145511,1809196,0
1712190149040,1712190145552,1812188,0
1712190149040,1712190145591,1814801,0
1712190149040,1712190145631,1817241,0
1712190149040,1712190145672,1819799,0
1712190149040,1712190145711,1819855,0
1712190149040,1712190145753,1815474,0
1712190149040,1712190145792,1811200,0
1712190149040,1712190145832,1809413,0
1712190149040,1712190145872,1809261,0
1712190149040,1712190145912,1809479,0
1712190149040,1712190145953,1810158,0
1712190149040,1712190145992,1810125,0
1712190149040,1712190146032,1809450,0
1712190149040,1712190146072,1808935,0
1712190149040,1712190146113,1810161,0
1712190149040,1712190146154,1812081,0
1712190149040,1712190146193,1814697,0
1712190149040,1712190146233,1817213,0
1712190149040,1712190146273,1819614,0
1712190149040,1712190146313,1821927,0
1712190149040,1712190146354,1823931,0
1712190149040,1712190146393,1822523,0
1712190149040,1712190146433,1816569,0
1712190149040,1712190146473,1811350,0
1712190149040,1712190146514,1808765,0
1712190149040,1712190146554,1807126,0
1712190149040,1712190146594,1806408,0
1712190149040,1712190146634,1805804,0
1712190149040,1712190146674,1804858,0
1712190149040,1712190146714,1804185,0
1712190149040,1712190146755,1804343,0
1712190149040,1712190146794,1805587,0
1712190149040,1712190146834,1807643,0
1712190149040,1712190146875,1810653,0
1712190149040,1712190146915,1814317,0
1712190149040,1712190146956,1818619,0
1712190149040,1712190146995,1822421,0
1712190149040,1712190147035,1824481,0
1712190149040,1712190147075,1821820,0
1712190149040,1712190147115,1818572,0
1712190149040,1712190147156,1817819,0
1712190149040,1712190147195,1818977,0
1712190149040,1712190147236,1821528,0
1712190149040,1712190147276,1824539,0
1712190149040,1712190147316,1826670,0
1712190149040,1712190147357,1827165,0
1712190149040,1712190147396,1827593,0
1712190149040,1712190147436,1828541,0
1712190149040,1712190147476,1829820,0
1712190149040,1712190147516,1831787,0
1712190149040,1712190147557,1833942,0
1712190149040,1712190147597,1836129,0
1712190149040,1712190147637,1838277,0
1712190149040,1712190147677,1839191,0
1712190149040,1712190147717,1834745,0
1712190149040,1712190147758,1828954,0
1712190149040,1712190147799,1825545,0
1712190149040,1712190147837,1824191,0
1712190149040,1712190147877,1823887,0
1712190149040,1712190147917,1823984,0
1712190149040,1712190147959,1823433,0
1712190149040,1712190147998,1821724,0
1712190149040,1712190148038,1820747,0
1712190149040,1712190148078,1820563,0
1712190149040,1712190148118,1820757,0
1712190149040,1712190148159,1821392,0
1712190149040,1712190148198,1822373,0
1712190149040,1712190148238,1823239,0
1712190149040,1712190148278,1824423,0
1712190149040,1712190148319,1824921,0
1712190149040,1712190148360,1820788,0
1712190149040,1712190148399,1813123,0
1712190149040,1712190148439,1807271,0
1712190149040,1712190148479,1803390,0
1712190149040,1712190148519,1801135,0
1712190149040,1712190148560,1799852,0
1712190149040,1712190148599,1798332,0
1712190149040,1712190148640,1795663,0
1712190149040,1712190148680,1793782,0
1712190149040,1712190148720,1792854,0
1712190149040,1712190148761,1792962,0
1712190149040,1712190148800,1793888,0
1712190149040,1712190148840,1795122,0
1712190149040,1712190148880,1796379,0
1712190149040,1712190148921,1797948,0
1712190149040,1712190148962,1798731,0
1712190161130,1712190149002,1796735,0
1712190161130,1712190149042,1789240,0
1712190161130,1712190149082,1783460,0
1712190161130,1712190149122,1780448,0
1712190161130,1712190149162,1779645,0
1712190161130,1712190149202,1780392,0
1712190161130,1712190149242,1781451,0
1712190161130,1712190149282,1780916,0
1712190161130,1712190149322,1780148,0
1712190161130,1712190149362,1780052,0
1712190161130,1712190149402,1781269,0
1712190161130,1712190149442,1783303,0
1712190161130,1712190149482,1785473,0
1712190161130,1712190149522,1787291,0
1712190161130,1712190149562,1789131,0
1712190161130,1712190149602,1790602,0
1712190161130,1712190149642,1788554,0
1712190161130,1712190149682,1781562,0
1712190161130,1712190149722,1775260,0
1712190161130,1712190149762,1771997,0
1712190161130,1712190149802,1770541,0
1712190161130,1712190149842,1770308,0
1712190161130,1712190149882,1770058,0
1712190161130,1712190149922,1768741,0
1712190161130,1712190149962,1767266,0
1712190161130,1712190150002,1766615,0
1712190161130,1712190150042,1767369,0
1712190161130,1712190150082,1768515,0
1712190161130,1712190150122,1770246,0
1712190161130,1712190150162,1772163,0
1712190161130,1712190150202,1774128,0
1712190161130,1712190150242,1775580,0
1712190161130,1712190150282,1771876,0
1712190161130,1712190150322,1764559,0
1712190161130,1712190150362,1759111,0
1712190161130,1712190150402,1756382,0
1712190161130,1712190150442,1755405,0
1712190161130,1712190150482,1755212,0
1712190161130,1712190150522,1754737,0
1712190161130,1712190150562,1753384,0
1712190161130,1712190150602,1752076,0
1712190161130,1712190150642,1751898,0
1712190161130,1712190150682,1753109,0
1712190161130,1712190150722,1754687,0
1712190161130,1712190150762,1756620,0
1712190161130,1712190150802,1758957,0
1712190161130,1712190150842,1761390,0
1712190161130,1712190150882,1757499,0
1712190161130,1712190150922,1750279,0
1712190161130,1712190150962,1745396,0
1712190161130,1712190151002,1742560,0
1712190161130,1712190151042,1740984,0
1712190161130,1712190151082,1740317,0
1712190161130,1712190151122,1739339,0
1712190161130,1712190151162,1737710,0
1712190161130,1712190151202,1736446,0
1712190161130,1712190151242,1736259,0
1712190161130,1712190151282,1737160,0
1712190161130,1712190151322,1738592,0
1712190161130,1712190151362,1740434,0
1712190161130,1712190151402,1742444,0
1712190161130,1712190151442,1744765,0
1712190161130,1712190151482,1745927,0
1712190161130,1712190151522,1741281,0
1712190161130,1712190151562,1734215,0
1712190161130,1712190151602,1729299,0
1712190161130,1712190151642,1726589,0
1712190161130,1712190151682,1724721,0
1712190161130,1712190151722,1724180,0
1712190161130,1712190151762,1723331,0
1712190161130,1712190151802,1722042,0
1712190161130,1712190151842,1721100,0
1712190161130,1712190151882,1721422,0
1712190161130,1712190151922,1722640,0
1712190161130,1712190151962,1724455,0
1712190161130,1712190152002,1726363,0
1712190161130,1712190152042,1728711,0
1712190161130,1712190152082,1731354,0
1712190161130,1712190152122,1733670,0
1712190161130,1712190152162,1731847,0
1712190161130,1712190152202,1725734,0
1712190161130,1712190152242,1720712,0
1712190161130,1712190152282,1717939,0
1712190161130,1712190152322,1716301,0
1712190161130,1712190152362,1715927,0
1712190161130,1712190152402,1715844,0
1712190161130,1712190152442,1715221,0
1712190161130,1712190152482,1714569,0
1712190161130,1712190152522,1714992,0
1712190161130,1712190152562,1716549,0
1712190161130,1712190152602,1719011,0
1712190161130,1712190152642,1721516,0
1712190161130,1712190152682,1724076,0
1712190161130,1712190152722,1727025,0
1712190161130,1712190152762,1730050,0
1712190161130,1712190152802,1732165,0
1712190161130,1712190152842,1729333,0
1712190161130,1712190152882,1724371,0
1712190161130,1712190152922,1721133,0
1712190161130,1712190152962,1719693,0
1712190161130,1712190153002,1719114,0
1712190161130,1712190153042,1719635,0
1712190161130,1712190153082,1720002,0
1712190161130,1712190153122,1719740,0
1712190161130,1712190153162,1719793,0
1712190161130,1712190153202,1721165,0
1712190161130,1712190153242,1723094,0
1712190161130,1712190153282,1725696,0
1712190161130,1712190153322,1728282,0
1712190161130,1712190153362,1731171,0
1712190161130,1712190153402,1734197,0
1712190161130,1712190153442,1737393,0
1712190161130,1712190153482,1739889,0
1712190161130,1712190153522,1737683,0
1712190161130,1712190153562,1733461,0
1712190161130,1712190153602,1730925,0
1712190161130,1712190153642,1730366,0
1712190161130,1712190153682,1730638,0
1712190161130,1712190153722,1732210,0
1712190161130,1712190153762,1734093,0
1712190161130,1712190153802,1736440,0
1712190161130,1712190153842,1741145,0
1712190161130,1712190153882,1748350,0
1712190161130,1712190153922,1756661,0
1712190161130,1712190153962,1765613,0
1712190161130,1712190154002,1772984,0
1712190161130,1712190154042,1779874,0
1712190161130,1712190154082,1784195,0
1712190161130,1712190154122,1786736,0
1712190161130,1712190154162,1787285,0
1712190161130,1712190154202,1784287,0
1712190161130,1712190154242,1781296,0
1712190161130,1712190154282,1780078,0
1712190161130,1712190154322,1779824,0
1712190161130,1712190154362,1780125,0
1712190161130,1712190154402,1781096,0
1712190161130,1712190154442,1781745,0
1712190161130,1712190154482,1782116,0
1712190161130,1712190154522,1783020,0
1712190161130,1712190154562,1785188,0
1712190161130,1712190154602,1787564,0
1712190161130,1712190154642,1790583,0
1712190161130,1712190154682,1793289,0
1712190161130,1712190154722,1796009,0
1712190161130,1712190154762,1798972,0
1712190161130,1712190154802,1801857,0
1712190161130,1712190154842,1801648,0
1712190161130,1712190154882,1797996,0
1712190161130,1712190154922,1794899,0
1712190161130,1712190154962,1793617,0
1712190161130,1712190155002,1792923,0
1712190161130,1712190155042,1793011,0
1712190161130,1712190155082,1793381,0
1712190161130,1712190155122,1793266,0
1712190161130,1712190155162,1793299,0
1712190161130,1712190155202,1793835,0
1712190161130,1712190155242,1794519,0
1712190161130,1712190155282,1795638,0
1712190161130,1712190155322,1796895,0
1712190161130,1712190155362,1798679,0
1712190161130,1712190155402,1800722,0
1712190161130,1712190155442,1802910,0
1712190161130,1712190155482,1804966,0
1712190161130,1712190155522,1805387,0
1712190161130,1712190155562,1801519,0
1712190161130,1712190155602,1797117,0
1712190161130,1712190155642,1794472,0
1712190161130,1712190155682,1792877,0
1712190161130,1712190155722,1792177,0
1712190161130,1712190155762,1791988,0
1712190161130,1712190155802,1791410,0
1712190161130,1712190155842,1790564,0
1712190161130,1712190155882,1790295,0
1712190161130,1712190155922,1790993,0
1712190161130,1712190155962,1792093,0
1712190161130,1712190156002,1793640,0
1712190161130,1712190156042,1795171,0
1712190161130,1712190156082,1797062,0
1712190161130,1712190156122,1799010,0
1712190161130,1712190156162,1801172,0
1712190161130,1712190156202,1803758,0
1712190161130,1712190156242,1805657,0
1712190161130,1712190156282,1803620,0
1712190161130,1712190156322,1800169,0
1712190161130,1712190156363,1798243,0
1712190161130,1712190156404,1797708,0
1712190161130,1712190156445,1797728,0
1712190161130,1712190156486,1798286,0
1712190161130,1712190156527,1798612,0
1712190161130,1712190156568,1798388,0
1712190161130,1712190156609,1798471,0
1712190161130,1712190156650,1799032,0
1712190161130,1712190156691,1800420,0
1712190161130,1712190156732,1801808,0
1712190161130,1712190156773,1803502,0
1712190161130,1712190156814,1805110,0
1712190161130,1712190156855,1806682,0
1712190161130,1712190156896,1808588,0
1712190161130,1712190156937,1810588,0
1712190161130,1712190156978,1812322,0
1712190161130,1712190157019,1810137,0
1712190161130,1712190157060,1806119,0
1712190161130,1712190157101,1803423,0
1712190161130,1712190157142,1802256,0
1712190161130,1712190157183,1801900,0
1712190161130,1712190157224,1802131,0
1712190161130,1712190157265,1801909,0
1712190161130,1712190157306,1801092,0
1712190161130,1712190157347,1800557,0
1712190161130,1712190157388,1800655,0
1712190161130,1712190157429,1801385,0
1712190161130,1712190157470,1802763,0
1712190161130,1712190157511,1803955,0
1712190161130,1712190157552,1805373,0
1712190161130,1712190157593,1807046,0
1712190161130,1712190157634,1808802,0
1712190161130,1712190157675,1810636,0
1712190161130,1712190157716,1810457,0
1712190161130,1712190157757,1806469,0
1712190161130,1712190157798,1802116,0
1712190161130,1712190157839,1799769,0
1712190161130,1712190157880,1798544,0
1712190161130,1712190157921,1798339,0
1712190161130,1712190157962,1797997,0
1712190161130,1712190158003,1797214,0
1712190161130,1712190158044,1796271,0
1712190161130,1712190158085,1795690,0
1712190161130,1712190158126,1795986,0
1712190161130,1712190158167,1797062,0
1712190161130,1712190158208,1798499,0
1712190161130,1712190158249,1799871,0
1712190161130,1712190158290,1801362,0
1712190161130,1712190158331,1803026,0
1712190161130,1712190158372,1804854,0
1712190161130,1712190158413,1806403,0
1712190161130,1712190158454,1804348,0
1712190161130,1712190158495,1799054,0
1712190161130,1712190158536,1794390,0
1712190161130,1712190158577,1790971,0
1712190161130,1712190158618,1788754,0
1712190161130,1712190158659,1786698,0
1712190161130,1712190158700,1785389,0
1712190161130,1712190158741,1783455,0
1712190161130,1712190158782,1781785,0
1712190161130,1712190158823,1780436,0
1712190161130,1712190158864,1780102,0
1712190161130,1712190158905,1780013,0
1712190161130,1712190158946,1780596,0
1712190161130,1712190158987,1781538,0
1712190161130,1712190159028,1782799,0
1712190161130,1712190159069,1783594,0
1712190161130,1712190159110,1786659,0
1712190161130,1712190159151,1789933,0
1712190161130,1712190159192,1790090,0
1712190161130,1712190159233,1787378,0
1712190161130,1712190159274,1786329,0
1712190161130,1712190159315,1789776,0
1712190161130,1712190159356,1792507,0
1712190161130,1712190159397,1795285,0
1712190161130,1712190159438,1797917,0
1712190161130,1712190159479,1801234,0
1712190161130,1712190159520,1804409,0
1712190161130,1712190159561,1805996,0
1712190161130,1712190159602,1808990,0
1712190161130,1712190159643,1811091,0
1712190161130,1712190159684,1813277,0
1712190161130,1712190159725,1816835,0
1712190161130,1712190159766,1819383,0
1712190161130,1712190159807,1822061,0
1712190161130,1712190159848,1821240,0
1712190161130,1712190159889,1813968,0
1712190161130,1712190159930,1805721,0
1712190161130,1712190159971,1799388,0
1712190161130,1712190160012,1795090,0
1712190161130,1712190160053,1791462,0
1712190161130,1712190160094,1788130,0
1712190161130,1712190160135,1783943,0
1712190161130,1712190160176,1779473,0
1712190161130,1712190160217,1775956,0
1712190161130,1712190160258,1773304,0
1712190161130,1712190160299,1770544,0
1712190161130,1712190160340,1767284,0
1712190161130,1712190160381,1764565,0
1712190161130,1712190160422,1762019,0
1712190161130,1712190160463,1759445,0
1712190161130,1712190160504,1756626,0
1712190161130,1712190160545,1752571,0
1712190161130,1712190160586,1744038,0
1712190161130,1712190160627,1733962,0
1712190161130,1712190160668,1725758,0
1712190161130,1712190160709,1719482,0
1712190161130,1712190160750,1714553,0
1712190161130,1712190160791,1710811,0
1712190161130,1712190160832,1706739,0
1712190161130,1712190160873,1702024,0
1712190161130,1712190160914,1697665,0
1712190161130,1712190160955,1694374,0
1712190161130,1712190160996,1692052,0
1712190161130,1712190161037,1690164,0
1712190161130,1712190161078,1688808,0
1712190173102,1712190161117,1687968,0
1712190173102,1712190161156,1687533,0
1712190173102,1712190161195,1687089,0
1712190173102,1712190161234,1685107,0
1712190173102,1712190161273,1678406,0
1712190173102,1712190161312,1670083,0
1712190173102,1712190161351,1664894,0
1712190173102,1712190161390,1662612,0
1712190173102,1712190161429,1661746,0
1712190173102,1712190161468,1663273,0
1712190173102,1712190161507,1664094,0
1712190173102,1712190161546,1663751,0
1712190173102,1712190161585,1663617,0
1712190173102,1712190161624,1664872,0
1712190173102,1712190161663,1666594,0
1712190173102,1712190161702,1667597,0
1712190173102,1712190161741,1670108,0
1712190173102,1712190161780,1673218,0
1712190173102,1712190161819,1676092,0
1712190173102,1712190161858,1680301,0
1712190173102,1712190161897,1682478,0
1712190173102,1712190161936,1679445,0
1712190173102,1712190161975,1673519,0
1712190173102,1712190162014,1668074,0
1712190173102,1712190162053,1665299,0
1712190173102,1712190162092,1664048,0
1712190173102,1712190162131,1664324,0
1712190173102,1712190162170,1664244,0
1712190173102,1712190162209,1664070,0
1712190173102,1712190162249,1664286,0
1712190173102,1712190162289,1665053,0
1712190173102,1712190162329,1666740,0
1712190173102,1712190162369,1668527,0
1712190173102,1712190162409,1669839,0
1712190173102,1712190162449,1671106,0
1712190173102,1712190162489,1672403,0
1712190173102,1712190162529,1672442,0
1712190173102,1712190162569,1669174,0
1712190173102,1712190162609,1662695,0
1712190173102,1712190162649,1657741,0
1712190173102,1712190162689,1655192,0
1712190173102,1712190162729,1654080,0
1712190173102,1712190162769,1653703,0
1712190173102,1712190162809,1653302,0
1712190173102,1712190162849,1652597,0
1712190173102,1712190162889,1652453,0
1712190173102,1712190162929,1652840,0
1712190173102,1712190162969,1654097,0
1712190173102,1712190163009,1655864,0
1712190173102,1712190163049,1657743,0
1712190173102,1712190163089,1659980,0
1712190173102,1712190163129,1662420,0
1712190173102,1712190163169,1665035,0
1712190173102,1712190163209,1665920,0
1712190173102,1712190163249,1663939,0
1712190173102,1712190163289,1661685,0
1712190173102,1712190163329,1661745,0
1712190173102,1712190163369,1663177,0
1712190173102,1712190163409,1665827,0
1712190173102,1712190163449,1669793,0
1712190173102,1712190163489,1673046,0
1712190173102,1712190163529,1675075,0
1712190173102,1712190163569,1677419,0
1712190173102,1712190163609,1679896,0
1712190173102,1712190163649,1682714,0
1712190173102,1712190163689,1685596,0
1712190173102,1712190163729,1688662,0
1712190173102,1712190163769,1691921,0
1712190173102,1712190163809,1695147,0
1712190173102,1712190163849,1695536,0
1712190173102,1712190163889,1692978,0
1712190173102,1712190163929,1690640,0
1712190173102,1712190163969,1689827,0
1712190173102,1712190164009,1690012,0
1712190173102,1712190164049,1690865,0
1712190173102,1712190164089,1692066,0
1712190173102,1712190164129,1693270,0
1712190173102,1712190164169,1694207,0
1712190173102,1712190164209,1695611,0
1712190173102,1712190164249,1697468,0
1712190173102,1712190164289,1699614,0
1712190173102,1712190164329,1702122,0
1712190173102,1712190164369,1704863,0
1712190173102,1712190164409,1707452,0
1712190173102,1712190164449,1710092,0
1712190173102,1712190164489,1709345,0
1712190173102,1712190164529,1706419,0
1712190173102,1712190164569,1704808,0
1712190173102,1712190164609,1704714,0
1712190173102,1712190164649,1705376,0
1712190173102,1712190164689,1706781,0
1712190173102,1712190164729,1708026,0
1712190173102,1712190164769,1709084,0
1712190173102,1712190164809,1710049,0
1712190173102,1712190164849,1711429,0
1712190173102,1712190164889,1713298,0
1712190173102,1712190164929,1715462,0
1712190173102,1712190164969,1717947,0
1712190173102,1712190165009,1720422,0
1712190173102,1712190165049,1722975,0
1712190173102,1712190165089,1725326,0
1712190173102,1712190165129,1724648,0
1712190173102,1712190165169,1722004,0
1712190173102,1712190165209,1720194,0
1712190173102,1712190165249,1720283,0
1712190173102,1712190165289,1721119,0
1712190173102,1712190165329,1722390,0
1712190173102,1712190165369,1723612,0
1712190173102,1712190165409,1724426,0
1712190173102,1712190165449,1725043,0
1712190173102,1712190165489,1726092,0
1712190173102,1712190165529,1727751,0
1712190173102,1712190165569,1729736,0
1712190173102,1712190165609,1731561,0
1712190173102,1712190165649,1733665,0
1712190173102,1712190165689,1735651,0
1712190173102,1712190165729,1737652,0
1712190173102,1712190165769,1736754,0
1712190173102,1712190165809,1733878,0
1712190173102,1712190165849,1731839,0
1712190173102,1712190165889,1731551,0
1712190173102,1712190165929,1731948,0
1712190173102,1712190165969,1732865,0
1712190173102,1712190166009,1733584,0
1712190173102,1712190166049,1733482,0
1712190173102,1712190166089,1733497,0
1712190173102,1712190166129,1733716,0
1712190173102,1712190166169,1734717,0
1712190173102,1712190166209,1735928,0
1712190173102,1712190166249,1737195,0
1712190173102,1712190166289,1738511,0
1712190173102,1712190166329,1740019,0
1712190173102,1712190166369,1740961,0
1712190173102,1712190166409,1738636,0
1712190173102,1712190166449,1734842,0
1712190173102,1712190166489,1732574,0
1712190173102,1712190166529,1731725,0
1712190173102,1712190166569,1731801,0
1712190173102,1712190166609,1732137,0
1712190173102,1712190166649,1732195,0
1712190173102,1712190166689,1731428,0
1712190173102,1712190166729,1731108,0
1712190173102,1712190166769,1731113,0
1712190173102,1712190166809,1731563,0
1712190173102,1712190166849,1732301,0
1712190173102,1712190166889,1733100,0
1712190173102,1712190166929,1734247,0
1712190173102,1712190166969,1735125,0
1712190173102,1712190167009,1735074,0
1712190173102,1712190167049,1731399,0
1712190173102,1712190167089,1726818,0
1712190173102,1712190167129,1723653,0
1712190173102,1712190167169,1722180,0
1712190173102,1712190167209,1721626,0
1712190173102,1712190167249,1721150,0
1712190173102,1712190167289,1720430,0
1712190173102,1712190167329,1718832,0
1712190173102,1712190167369,1717790,0
1712190173102,1712190167409,1717310,0
1712190173102,1712190167449,1717257,0
1712190173102,1712190167489,1717590,0
1712190173102,1712190167529,1717788,0
1712190173102,1712190167569,1718254,0
1712190173102,1712190167609,1718669,0
1712190173102,1712190167649,1718033,0
1712190173102,1712190167689,1713185,0
1712190173102,1712190167729,1707932,0
1712190173102,1712190167769,1704493,0
1712190173102,1712190167809,1702506,0
1712190173102,1712190167849,1701490,0
1712190173102,1712190167889,1700663,0
1712190173102,1712190167929,1698987,0
1712190173102,1712190167969,1696885,0
1712190173102,1712190168009,1695340,0
1712190173102,1712190168049,1694513,0
1712190173102,1712190168089,1694032,0
1712190173102,1712190168129,1693835,0
1712190173102,1712190168169,1693766,0
1712190173102,1712190168209,1693858,0
1712190173102,1712190168249,1693902,0
1712190173102,1712190168289,1691498,0
1712190173102,1712190168329,1685502,0
1712190173102,1712190168369,1679559,0
1712190173102,1712190168409,1675973,0
1712190173102,1712190168449,1673807,0
1712190173102,1712190168489,1672564,0
1712190173102,1712190168529,1671071,0
1712190173102,1712190168569,1668769,0
1712190173102,1712190168609,1666345,0
1712190173102,1712190168649,1664746,0
1712190173102,1712190168689,1663804,0
1712190173102,1712190168729,1663437,0
1712190173102,1712190168769,1663057,0
1712190173102,1712190168809,1663071,0
1712190173102,1712190168849,1663178,0
1712190173102,1712190168889,1663015,0
1712190173102,1712190168929,1659164,0
1712190173102,1712190168969,1652588,0
1712190173102,1712190169009,1647326,0
1712190173102,1712190169049,1644458,0
1712190173102,1712190169089,1643010,0
1712190173102,1712190169129,1642181,0
1712190173102,1712190169169,1640634,0
1712190173102,1712190169209,1638063,0
1712190173102,1712190169249,1635754,0
1712190173102,1712190169289,1634381,0
1712190173102,1712190169329,1633810,0
1712190173102,1712190169369,1633623,0
1712190173102,1712190169409,1633615,0
1712190173102,1712190169449,1633666,0
1712190173102,1712190169489,1634006,0
1712190173102,1712190169529,1632154,0
1712190173102,1712190169569,1626249,0
1712190173102,1712190169609,1620277,0
1712190173102,1712190169649,1616937,0
1712190173102,1712190169689,1615308,0
1712190173102,1712190169729,1614749,0
1712190173102,1712190169769,1613755,0
1712190173102,1712190169809,1611708,0
1712190173102,1712190169849,1609545,0
1712190173102,1712190169889,1608133,0
1712190173102,1712190169929,1607755,0
1712190173102,1712190169969,1607845,0
1712190173102,1712190170009,1607980,0
1712190173102,1712190170049,1608497,0
1712190173102,1712190170089,1608764,0
1712190173102,1712190170129,1606904,0
1712190173102,1712190170169,1600707,0
1712190173102,1712190170209,1594785,0
1712190173102,1712190170249,1591600,0
1712190173102,1712190170289,1590024,0
1712190173102,1712190170329,1589689,0
1712190173102,1712190170369,1588881,0
1712190173102,1712190170409,1587332,0
1712190173102,1712190170449,1585488,0
1712190173102,1712190170489,1584521,0
1712190173102,1712190170529,1584640,0
1712190173102,1712190170569,1585542,0
1712190173102,1712190170609,1586762,0
1712190173102,1712190170649,1588250,0
1712190173102,1712190170689,1589863,0
1712190173102,1712190170729,1589070,0
1712190173102,1712190170769,1584415,0
1712190173102,1712190170809,1578985,0
1712190173102,1712190170849,1576210,0
1712190173102,1712190170889,1575587,0
1712190173102,1712190170929,1576496,0
1712190173102,1712190170969,1577141,0
1712190173102,1712190171009,1576999,0
1712190173102,1712190171049,1576239,0
1712190173102,1712190171089,1576119,0
1712190173102,1712190171129,1577176,0
1712190173102,1712190171169,1578506,0
1712190173102,1712190171209,1580215,0
1712190173102,1712190171249,1582187,0
1712190173102,1712190171289,1583990,0
1712190173102,1712190171329,1584406,0
1712190173102,1712190171369,1580721,0
1712190173102,1712190171409,1574858,0
1712190173102,1712190171449,1571051,0
1712190173102,1712190171489,1569841,0
1712190173102,1712190171529,1569712,0
1712190173102,1712190171569,1570451,0
1712190173102,1712190171609,1570512,0
1712190173102,1712190171649,1570334,0
1712190173102,1712190171689,1570506,0
1712190173102,1712190171729,1571344,0
1712190173102,1712190171769,1572904,0
1712190173102,1712190171809,1574765,0
1712190173102,1712190171849,1576678,0
1712190173102,1712190171889,1578656,0
1712190173102,1712190171929,1580640,0
1712190173102,1712190171969,1580906,0
1712190173102,1712190172009,1577313,0
1712190173102,1712190172049,1572680,0
1712190173102,1712190172089,1570068,0
1712190173102,1712190172129,1569297,0
1712190173102,1712190172169,1569823,0
1712190173102,1712190172209,1570830,0
1712190173102,1712190172249,1571325,0
1712190173102,1712190172289,1571527,0
1712190173102,1712190172329,1572176,0
1712190173102,1712190172369,1573361,0
1712190173102,1712190172409,1575338,0
1712190173102,1712190172449,1577350,0
1712190173102,1712190172489,1579425,0
1712190173102,1712190172529,1581702,0
1712190173102,1712190172569,1583714,0
1712190173102,1712190172609,1585012,0
1712190173102,1712190172649,1583105,0
1712190173102,1712190172689,1579366,0
1712190173102,1712190172729,1576459,0
1712190173102,1712190172769,1575676,0
1712190173102,1712190172809,1576297,0
1712190173102,1712190172849,1577458,0
1712190173102,1712190172889,1578535,0
1712190173102,1712190172929,1578974,0
1712190173102,1712190172969,1579786,0
1712190173102,1712190173009,1581055,0
1712190173102,1712190173049,1582880,0
1712190185215,1712190173089,1584834,0
1712190185215,1712190173129,1587117,0
1712190185215,1712190173169,1589297,0
1712190185215,1712190173209,1591263,0
1712190185215,1712190173249,1593305,0
1712190185215,1712190173289,1593609,0
1712190185215,1712190173329,1591164,0
1712190185215,1712190173369,1588354,0
1712190185215,1712190173409,1587278,0
1712190185215,1712190173449,1587884,0
1712190185215,1712190173489,1589423,0
1712190185215,1712190173529,1590944,0
1712190185215,1712190173569,1591891,0
1712190185215,1712190173609,1592601,0
1712190185215,1712190173649,1594117,0
1712190185215,1712190173689,1596037,0
1712190185215,1712190173729,1598460,0
1712190185215,1712190173769,1601169,0
1712190185215,1712190173809,1603676,0
1712190185215,1712190173849,1606571,0
1712190185215,1712190173889,1609451,0
1712190185215,1712190173929,1611490,0
1712190185215,1712190173969,1611088,0
1712190185215,1712190174009,1608690,0
1712190185215,1712190174049,1607000,0
1712190185215,1712190174089,1606966,0
1712190185215,1712190174129,1607972,0
1712190185215,1712190174169,1609189,0
1712190185215,1712190174209,1610085,0
1712190185215,1712190174249,1610615,0
1712190185215,1712190174289,1611317,0
1712190185215,1712190174329,1612558,0
1712190185215,1712190174369,1614171,0
1712190185215,1712190174409,1616232,0
1712190185215,1712190174449,1618116,0
1712190185215,1712190174489,1620095,0
1712190185215,1712190174529,1621935,0
1712190185215,1712190174569,1624020,0
1712190185215,1712190174609,1625825,0
1712190185215,1712190174649,1625589,0
1712190185215,1712190174689,1623042,0
1712190185215,1712190174729,1619964,0
1712190185215,1712190174769,1618834,0
1712190185215,1712190174809,1618877,0
1712190185215,1712190174849,1619652,0
1712190185215,1712190174889,1620524,0
1712190185215,1712190174929,1621058,0
1712190185215,1712190174969,1621387,0
1712190185215,1712190175009,1622251,0
1712190185215,1712190175049,1623534,0
1712190185215,1712190175089,1625230,0
1712190185215,1712190175129,1627035,0
1712190185215,1712190175169,1628703,0
1712190185215,1712190175209,1630295,0
1712190185215,1712190175249,1632022,0
1712190185215,1712190175289,1633753,0
1712190185215,1712190175329,1635573,0
1712190185215,1712190175369,1635401,0
1712190185215,1712190175409,1632780,0
1712190185215,1712190175449,1629424,0
1712190185215,1712190175489,1627853,0
1712190185215,1712190175529,1627314,0
1712190185215,1712190175569,1627652,0
1712190185215,1712190175609,1628215,0
1712190185215,1712190175649,1628321,0
1712190185215,1712190175689,1628336,0
1712190185215,1712190175729,1628693,0
1712190185215,1712190175769,1629567,0
1712190185215,1712190175809,1630968,0
1712190185215,1712190175849,1632494,0
1712190185215,1712190175889,1633905,0
1712190185215,1712190175929,1635105,0
1712190185215,1712190175969,1636356,0
1712190185215,1712190176009,1637777,0
1712190185215,1712190176049,1639403,0
1712190185215,1712190176089,1640560,0
1712190185215,1712190176129,1639276,0
1712190185215,1712190176169,1635569,0
1712190185215,1712190176209,1632137,0
1712190185215,1712190176249,1630592,0
1712190185215,1712190176289,1630053,0
1712190185215,1712190176329,1630054,0
1712190185215,1712190176369,1630141,0
1712190185215,1712190176409,1629582,0
1712190185215,1712190176449,1629192,0
1712190185215,1712190176489,1629172,0
1712190185215,1712190176529,1629818,0
1712190185215,1712190176569,1631005,0
1712190185215,1712190176609,1632158,0
1712190185215,1712190176649,1632994,0
1712190185215,1712190176689,1634048,0
1712190185215,1712190176729,1635036,0
1712190185215,1712190176769,1635998,0
1712190185215,1712190176809,1637446,0
1712190185215,1712190176849,1637925,0
1712190185215,1712190176889,1635315,0
1712190185215,1712190176929,1630646,0
1712190185215,1712190176969,1627089,0
1712190185215,1712190177009,1625453,0
1712190185215,1712190177049,1624967,0
1712190185215,1712190177089,1624852,0
1712190185215,1712190177129,1624481,0
1712190185215,1712190177169,1623456,0
1712190185215,1712190177209,1622872,0
1712190185215,1712190177249,1622722,0
1712190185215,1712190177289,1623302,0
1712190185215,1712190177329,1624163,0
1712190185215,1712190177369,1624950,0
1712190185215,1712190177409,1625533,0
1712190185215,1712190177449,1626143,0
1712190185215,1712190177489,1626900,0
1712190185215,1712190177529,1627842,0
1712190185215,1712190177569,1628743,0
1712190185215,1712190177609,1628122,0
1712190185215,1712190177649,1624007,0
1712190185215,1712190177689,1618611,0
1712190185215,1712190177729,1615455,0
1712190185215,1712190177769,1614292,0
1712190185215,1712190177809,1614191,0
1712190185215,1712190177849,1614067,0
1712190185215,1712190177889,1613419,0
1712190185215,1712190177929,1611932,0
1712190185215,1712190177969,1611111,0
1712190185215,1712190178009,1611108,0
1712190185215,1712190178049,1611667,0
1712190185215,1712190178089,1612493,0
1712190185215,1712190178129,1613213,0
1712190185215,1712190178169,1613853,0
1712190185215,1712190178209,1614454,0
1712190185215,1712190178249,1615425,0
1712190185215,1712190178289,1616541,0
1712190185215,1712190178329,1616649,0
1712190185215,1712190178369,1613341,0
1712190185215,1712190178409,1608174,0
1712190185215,1712190178449,1604766,0
1712190185215,1712190178489,1603821,0
1712190185215,1712190178529,1604264,0
1712190185215,1712190178569,1604784,0
1712190185215,1712190178609,1604802,0
1712190185215,1712190178649,1604333,0
1712190185215,1712190178689,1604049,0
1712190185215,1712190178729,1604963,0
1712190185215,1712190178769,1606821,0
1712190185215,1712190178809,1608990,0
1712190185215,1712190178849,1610990,0
1712190185215,1712190178889,1612908,0
1712190185215,1712190178929,1614519,0
1712190185215,1712190178969,1616459,0
1712190185215,1712190179009,1618475,0
1712190185215,1712190179049,1618322,0
1712190185215,1712190179089,1614354,0
1712190185215,1712190179129,1609143,0
1712190185215,1712190179169,1606119,0
1712190185215,1712190179209,1605025,0
1712190185215,1712190179249,1605037,0
1712190185215,1712190179289,1605235,0
1712190185215,1712190179329,1604760,0
1712190185215,1712190179369,1603781,0
1712190185215,1712190179409,1603200,0
1712190185215,1712190179449,1603740,0
1712190185215,1712190179489,1604961,0
1712190185215,1712190179529,1605670,0
1712190185215,1712190179569,1606501,0
1712190185215,1712190179609,1607494,0
1712190185215,1712190179649,1608383,0
1712190185215,1712190179689,1609055,0
1712190185215,1712190179729,1608609,0
1712190185215,1712190179769,1604670,0
1712190185215,1712190179809,1598055,0
1712190185215,1712190179849,1592423,0
1712190185215,1712190179889,1589843,0
1712190185215,1712190179929,1589022,0
1712190185215,1712190179969,1587907,0
1712190185215,1712190180009,1587810,0
1712190185215,1712190180049,1587741,0
1712190185215,1712190180089,1587151,0
1712190185215,1712190180129,1586809,0
1712190185215,1712190180169,1586704,0
1712190185215,1712190180209,1586645,0
1712190185215,1712190180249,1586794,0
1712190185215,1712190180289,1585680,0
1712190185215,1712190180330,1584649,0
1712190185215,1712190180371,1584136,0
1712190185215,1712190180412,1584020,0
1712190185215,1712190180453,1579300,0
1712190185215,1712190180494,1571928,0
1712190185215,1712190180535,1565820,0
1712190185215,1712190180576,1562030,0
1712190185215,1712190180617,1559301,0
1712190185215,1712190180658,1557811,0
1712190185215,1712190180699,1556239,0
1712190185215,1712190180740,1553770,0
1712190185215,1712190180781,1551442,0
1712190185215,1712190180822,1550492,0
1712190185215,1712190180863,1551954,0
1712190185215,1712190180904,1557064,0
1712190185215,1712190180945,1565380,0
1712190185215,1712190180986,1573720,0
1712190185215,1712190181027,1581623,0
1712190185215,1712190181068,1589538,0
1712190185215,1712190181109,1596530,0
1712190185215,1712190181150,1599743,0
1712190185215,1712190181191,1599743,0
1712190185215,1712190181232,1600474,0
1712190185215,1712190181273,1602691,0
1712190185215,1712190181314,1605653,0
1712190185215,1712190181355,1608790,0
1712190185215,1712190181396,1611036,0
1712190185215,1712190181437,1612011,0
1712190185215,1712190181478,1612536,0
1712190185215,1712190181519,1613628,0
1712190185215,1712190181560,1615065,0
1712190185215,1712190181601,1616908,0
1712190185215,1712190181642,1618719,0
1712190185215,1712190181683,1620634,0
1712190185215,1712190181724,1622749,0
1712190185215,1712190181765,1624436,0
1712190185215,1712190181806,1622344,0
1712190185215,1712190181847,1617402,0
1712190185215,1712190181888,1613790,0
1712190185215,1712190181929,1612080,0
1712190185215,1712190181970,1611454,0
1712190185215,1712190182011,1611321,0
1712190185215,1712190182052,1611146,0
1712190185215,1712190182093,1610420,0
1712190185215,1712190182134,1609238,0
1712190185215,1712190182175,1609157,0
1712190185215,1712190182216,1610010,0
1712190185215,1712190182257,1611292,0
1712190185215,1712190182298,1612704,0
1712190185215,1712190182339,1614055,0
1712190185215,1712190182380,1615729,0
1712190185215,1712190182421,1617241,0
1712190185215,1712190182462,1615842,0
1712190185215,1712190182503,1610349,0
1712190185215,1712190182544,1605596,0
1712190185215,1712190182585,1602989,0
1712190185215,1712190182626,1601528,0
1712190185215,1712190182667,1600730,0
1712190185215,1712190182708,1600384,0
1712190185215,1712190182749,1599721,0
1712190185215,1712190182790,1598831,0
1712190185215,1712190182831,1598641,0
1712190185215,1712190182872,1599153,0
1712190185215,1712190182913,1600171,0
1712190185215,1712190182954,1601232,0
1712190185215,1712190182995,1602378,0
1712190185215,1712190183036,1603238,0
1712190185215,1712190183077,1604311,0
1712190185215,1712190183118,1603614,0
1712190185215,1712190183159,1598423,0
1712190185215,1712190183200,1593103,0
1712190185215,1712190183241,1589875,0
1712190185215,1712190183282,1587912,0
1712190185215,1712190183323,1586423,0
1712190185215,1712190183364,1585430,0
1712190185215,1712190183405,1583620,0
1712190185215,1712190183446,1582565,0
1712190185215,1712190183487,1582283,0
1712190185215,1712190183528,1582769,0
1712190185215,1712190183569,1583837,0
1712190185215,1712190183610,1584897,0
1712190185215,1712190183651,1586340,0
1712190185215,1712190183692,1587857,0
1712190185215,1712190183733,1589483,0
1712190185215,1712190183774,1588995,0
1712190185215,1712190183815,1584353,0
1712190185215,1712190183856,1578886,0
1712190185215,1712190183897,1575366,0
1712190185215,1712190183938,1573329,0
1712190185215,1712190183979,1572245,0
1712190185215,1712190184020,1571815,0
1712190185215,1712190184061,1571281,0
1712190185215,1712190184102,1570411,0
1712190185215,1712190184143,1569987,0
1712190185215,1712190184184,1570512,0
1712190185215,1712190184225,1571685,0
1712190185215,1712190184266,1573300,0
1712190185215,1712190184307,1574934,0
1712190185215,1712190184348,1576604,0
1712190185215,1712190184389,1578365,0
1712190185215,1712190184430,1578984,0
1712190185215,1712190184471,1575507,0
1712190185215,1712190184512,1570096,0
1712190185215,1712190184553,1566050,0
1712190185215,1712190184594,1564258,0
1712190185215,1712190184635,1563432,0
1712190185215,1712190184676,1563472,0
1712190185215,1712190184717,1563672,0
1712190185215,1712190184758,1563675,0
1712190185215,1712190184799,1563683,0
1712190185215,1712190184840,1564364,0
1712190185215,1712190184881,1565620,0
1712190185215,1712190184922,1567476,0
1712190185215,1712190184963,1569195,0
1712190185215,1712190185004,1570983,0
1712190185215,1712190185045,1572881,0
1712190185215,1712190185086,1574844,0
1712190185215,1712190185127,1575546,0
1712190185215,1712190185168,1572383,0
1712190197217,1712190185207,1567269,0
1712190197217,1712190185246,1563663,0
1712190197217,1712190185285,1562106,0
1712190197217,1712190185324,1561555,0
1712190197217,1712190185363,1561978,0
1712190197217,1712190185402,1562203,0
1712190197217,1712190185441,1562131,0
1712190197217,1712190185480,1562134,0
1712190197217,1712190185519,1563034,0
1712190197217,1712190185558,1564356,0
1712190197217,1712190185597,1566242,0
1712190197217,1712190185636,1568089,0
1712190197217,1712190185675,1569797,0
1712190197217,1712190185714,1571520,0
1712190197217,1712190185753,1573552,0
1712190197217,1712190185792,1575323,0
1712190197217,1712190185831,1574526,0
1712190197217,1712190185870,1570125,0
1712190197217,1712190185909,1565259,0
1712190197217,1712190185948,1562933,0
1712190197217,1712190185987,1562014,0
1712190197217,1712190186026,1562073,0
1712190197217,1712190186065,1562579,0
1712190197217,1712190186104,1562711,0
1712190197217,1712190186143,1562679,0
1712190197217,1712190186182,1563067,0
1712190197217,1712190186221,1564255,0
1712190197217,1712190186260,1566045,0
1712190197217,1712190186299,1567703,0
1712190197217,1712190186338,1569463,0
1712190197217,1712190186377,1571062,0
1712190197217,1712190186416,1572879,0
1712190197217,1712190186456,1574780,0
1712190197217,1712190186496,1576941,0
1712190197217,1712190186536,1576506,0
1712190197217,1712190186576,1572321,0
1712190197217,1712190186616,1567498,0
1712190197217,1712190186656,1565153,0
1712190197217,1712190186696,1564417,0
1712190197217,1712190186736,1564832,0
1712190197217,1712190186776,1565325,0
1712190197217,1712190186816,1565531,0
1712190197217,1712190186856,1565284,0
1712190197217,1712190186896,1565635,0
1712190197217,1712190186936,1566719,0
1712190197217,1712190186976,1568278,0
1712190197217,1712190187016,1570092,0
1712190197217,1712190187056,1571809,0
1712190197217,1712190187096,1573489,0
1712190197217,1712190187136,1575148,0
1712190197217,1712190187176,1577190,0
1712190197217,1712190187216,1579265,0
1712190197217,1712190187256,1579613,0
1712190197217,1712190187296,1576233,0
1712190197217,1712190187336,1571468,0
1712190197217,1712190187376,1568774,0
1712190197217,1712190187416,1567950,0
1712190197217,1712190187456,1568317,0
1712190197217,1712190187496,1568852,0
1712190197217,1712190187536,1569113,0
1712190197217,1712190187576,1568748,0
1712190197217,1712190187616,1569912,0
1712190197217,1712190187656,1571440,0
1712190197217,1712190187696,1573186,0
1712190197217,1712190187736,1574890,0
1712190197217,1712190187776,1576571,0
1712190197217,1712190187816,1578113,0
1712190197217,1712190187856,1579870,0
1712190197217,1712190187896,1581858,0
1712190197217,1712190187936,1583358,0
1712190197217,1712190187976,1581695,0
1712190197217,1712190188016,1576755,0
1712190197217,1712190188056,1572973,0
1712190197217,1712190188096,1571436,0
1712190197217,1712190188136,1571234,0
1712190197217,1712190188176,1571587,0
1712190197217,1712190188216,1571695,0
1712190197217,1712190188256,1571150,0
1712190197217,1712190188296,1570530,0
1712190197217,1712190188336,1570523,0
1712190197217,1712190188376,1571503,0
1712190197217,1712190188416,1572729,0
1712190197217,1712190188456,1573944,0
1712190197217,1712190188496,1575017,0
1712190197217,1712190188536,1576188,0
1712190197217,1712190188576,1577209,0
1712190197217,1712190188616,1578437,0
1712190197217,1712190188656,1580360,0
1712190197217,1712190188696,1580852,0
1712190197217,1712190188736,1577506,0
1712190197217,1712190188776,1572602,0
1712190197217,1712190188816,1569715,0
1712190197217,1712190188856,1569418,0
1712190197217,1712190188896,1570179,0
1712190197217,1712190188936,1571241,0
1712190197217,1712190188976,1571756,0
1712190197217,1712190189016,1571522,0
1712190197217,1712190189056,1571614,0
1712190197217,1712190189096,1572596,0
1712190197217,1712190189136,1574033,0
1712190197217,1712190189176,1575870,0
1712190197217,1712190189216,1577703,0
1712190197217,1712190189256,1579465,0
1712190197217,1712190189296,1581183,0
1712190197217,1712190189336,1582984,0
1712190197217,1712190189376,1584804,0
1712190197217,1712190189416,1585808,0
1712190197217,1712190189456,1583120,0
1712190197217,1712190189496,1578005,0
1712190197217,1712190189536,1574324,0
1712190197217,1712190189576,1573297,0
1712190197217,1712190189616,1574048,0
1712190197217,1712190189656,1575136,0
1712190197217,1712190189696,1575620,0
1712190197217,1712190189736,1575116,0
1712190197217,1712190189776,1575106,0
1712190197217,1712190189816,1575863,0
1712190197217,1712190189856,1577740,0
1712190197217,1712190189896,1580005,0
1712190197217,1712190189936,1582014,0
1712190197217,1712190189976,1584066,0
1712190197217,1712190190016,1585788,0
1712190197217,1712190190056,1587896,0
1712190197217,1712190190096,1589373,0
1712190197217,1712190190136,1587520,0
1712190197217,1712190190176,1581771,0
1712190197217,1712190190216,1576228,0
1712190197217,1712190190256,1573365,0
1712190197217,1712190190296,1572146,0
1712190197217,1712190190336,1571988,0
1712190197217,1712190190376,1571734,0
1712190197217,1712190190416,1570782,0
1712190197217,1712190190456,1569553,0
1712190197217,1712190190496,1569126,0
1712190197217,1712190190536,1569682,0
1712190197217,1712190190576,1570895,0
1712190197217,1712190190616,1572228,0
1712190197217,1712190190656,1573292,0
1712190197217,1712190190696,1574368,0
1712190197217,1712190190736,1575687,0
1712190197217,1712190190776,1577167,0
1712190197217,1712190190816,1578258,0
1712190197217,1712190190856,1575147,0
1712190197217,1712190190896,1568492,0
1712190197217,1712190190936,1562847,0
1712190197217,1712190190976,1560048,0
1712190197217,1712190191016,1558742,0
1712190197217,1712190191056,1558395,0
1712190197217,1712190191096,1557947,0
1712190197217,1712190191136,1557149,0
1712190197217,1712190191176,1556078,0
1712190197217,1712190191216,1555875,0
1712190197217,1712190191256,1556614,0
1712190197217,1712190191296,1557974,0
1712190197217,1712190191336,1559281,0
1712190197217,1712190191376,1560501,0
1712190197217,1712190191416,1561553,0
1712190197217,1712190191456,1562838,0
1712190197217,1712190191496,1564313,0
1712190197217,1712190191536,1565920,0
1712190197217,1712190191576,1565050,0
1712190197217,1712190191616,1559708,0
1712190197217,1712190191656,1553130,0
1712190197217,1712190191696,1549224,0
1712190197217,1712190191736,1547703,0
1712190197217,1712190191776,1547340,0
1712190197217,1712190191816,1547214,0
1712190197217,1712190191856,1546944,0
1712190197217,1712190191896,1546270,0
1712190197217,1712190191936,1545927,0
1712190197217,1712190191976,1546597,0
1712190197217,1712190192016,1548091,0
1712190197217,1712190192056,1549825,0
1712190197217,1712190192096,1551452,0
1712190197217,1712190192136,1552890,0
1712190197217,1712190192176,1554310,0
1712190197217,1712190192216,1556025,0
1712190197217,1712190192256,1558047,0
1712190197217,1712190192296,1558737,0
1712190197217,1712190192336,1555120,0
1712190197217,1712190192376,1549255,0
1712190197217,1712190192416,1545414,0
1712190197217,1712190192456,1544168,0
1712190197217,1712190192496,1544179,0
1712190197217,1712190192536,1544921,0
1712190197217,1712190192576,1545452,0
1712190197217,1712190192616,1545364,0
1712190197217,1712190192656,1545492,0
1712190197217,1712190192696,1546534,0
1712190197217,1712190192736,1548410,0
1712190197217,1712190192776,1550611,0
1712190197217,1712190192816,1552648,0
1712190197217,1712190192856,1554592,0
1712190197217,1712190192896,1556430,0
1712190197217,1712190192936,1558579,0
1712190197217,1712190192976,1560594,0
1712190197217,1712190193016,1562506,0
1712190197217,1712190193056,1561020,0
1712190197217,1712190193096,1556323,0
1712190197217,1712190193136,1552372,0
1712190197217,1712190193176,1551268,0
1712190197217,1712190193216,1551830,0
1712190197217,1712190193256,1553255,0
1712190197217,1712190193296,1554299,0
1712190197217,1712190193336,1554474,0
1712190197217,1712190193376,1554629,0
1712190197217,1712190193416,1555642,0
1712190197217,1712190193456,1557818,0
1712190197217,1712190193496,1560314,0
1712190197217,1712190193536,1562831,0
1712190197217,1712190193576,1565219,0
1712190197217,1712190193616,1567406,0
1712190197217,1712190193656,1569663,0
1712190197217,1712190193696,1571993,0
1712190197217,1712190193736,1573227,0
1712190197217,1712190193776,1570493,0
1712190197217,1712190193816,1565494,0
1712190197217,1712190193856,1562102,0
1712190197217,1712190193896,1561167,0
1712190197217,1712190193936,1561374,0
1712190197217,1712190193976,1562124,0
1712190197217,1712190194016,1562662,0
1712190197217,1712190194056,1562419,0
1712190197217,1712190194096,1562407,0
1712190197217,1712190194136,1563383,0
1712190197217,1712190194176,1564924,0
1712190197217,1712190194216,1566869,0
1712190197217,1712190194256,1568799,0
1712190197217,1712190194296,1570446,0
1712190197217,1712190194336,1572209,0
1712190197217,1712190194376,1574025,0
1712190197217,1712190194416,1576059,0
1712190197217,1712190194456,1577752,0
1712190197217,1712190194496,1575899,0
1712190197217,1712190194536,1571127,0
1712190197217,1712190194576,1566747,0
1712190197217,1712190194616,1565068,0
1712190197217,1712190194656,1564814,0
1712190197217,1712190194696,1565321,0
1712190197217,1712190194736,1565955,0
1712190197217,1712190194776,1565942,0
1712190197217,1712190194816,1565778,0
1712190197217,1712190194856,1566347,0
1712190197217,1712190194896,1567606,0
1712190197217,1712190194936,1569336,0
1712190197217,1712190194976,1571207,0
1712190197217,1712190195016,1573016,0
1712190197217,1712190195056,1574569,0
1712190197217,1712190195096,1576205,0
1712190197217,1712190195136,1577980,0
1712190197217,1712190195176,1579962,0
1712190197217,1712190195216,1580252,0
1712190197217,1712190195256,1576668,0
1712190197217,1712190195296,1571787,0
1712190197217,1712190195336,1568917,0
1712190197217,1712190195376,1568371,0
1712190197217,1712190195416,1568446,0
1712190197217,1712190195456,1569174,0
1712190197217,1712190195496,1569406,0
1712190197217,1712190195536,1569186,0
1712190197217,1712190195576,1569454,0
1712190197217,1712190195616,1570264,0
1712190197217,1712190195656,1571776,0
1712190197217,1712190195696,1573635,0
1712190197217,1712190195736,1575214,0
1712190197217,1712190195776,1576881,0
1712190197217,1712190195816,1578353,0
1712190197217,1712190195856,1579953,0
1712190197217,1712190195896,1581768,0
1712190197217,1712190195936,1583611,0
1712190197217,1712190195976,1582656,0
1712190197217,1712190196016,1578355,0
1712190197217,1712190196056,1573920,0
1712190197217,1712190196096,1571895,0
1712190197217,1712190196136,1571527,0
1712190197217,1712190196176,1572001,0
1712190197217,1712190196216,1572336,0
1712190197217,1712190196256,1572226,0
1712190197217,1712190196296,1571928,0
1712190197217,1712190196336,1571973,0
1712190197217,1712190196376,1573017,0
1712190197217,1712190196416,1574374,0
1712190197217,1712190196456,1575976,0
1712190197217,1712190196496,1577323,0
1712190197217,1712190196536,1578584,0
1712190197217,1712190196576,1579935,0
1712190197217,1712190196616,1581416,0
1712190197217,1712190196656,1583192,0
1712190197217,1712190196696,1584784,0
1712190197217,1712190196736,1583443,0
1712190197217,1712190196776,1578867,0
1712190197217,1712190196816,1574673,0
1712190197217,1712190196856,1573073,0
1712190197217,1712190196896,1572993,0
1712190197217,1712190196936,1573682,0
1712190197217,1712190196976,1574273,0
1712190197217,1712190197016,1573999,0
1712190197217,1712190197056,1573565,0
1712190197217,1712190197096,1573590,0
1712190197217,1712190197136,1574623,0
1712190209295,1712190197225,1576202,0
1712190209295,1712190197265,1577721,0
1712190209295,1712190197305,1579118,0
1712190209295,1712190197345,1580386,0
1712190209295,1712190197386,1581768,0
1712190209295,1712190197425,1583657,0
1712190209295,1712190197465,1585305,0
1712190209295,1712190197506,1585360,0
1712190209295,1712190197546,1581663,0
1712190209295,1712190197587,1577178,0
1712190209295,1712190197626,1575169,0
1712190209295,1712190197666,1575136,0
1712190209295,1712190197706,1576469,0
1712190209295,1712190197746,1577435,0
1712190209295,1712190197787,1577509,0
1712190209295,1712190197827,1577123,0
1712190209295,1712190197867,1577240,0
1712190209295,1712190197907,1577978,0
1712190209295,1712190197947,1579494,0
1712190209295,1712190197988,1580815,0
1712190209295,1712190198027,1582349,0
1712190209295,1712190198067,1583515,0
1712190209295,1712190198108,1584659,0
1712190209295,1712190198148,1586134,0
1712190209295,1712190198189,1587593,0
1712190209295,1712190198228,1586767,0
1712190209295,1712190198268,1581591,0
1712190209295,1712190198308,1575387,0
1712190209295,1712190198348,1571872,0
1712190209295,1712190198389,1570286,0
1712190209295,1712190198429,1569799,0
1712190209295,1712190198469,1569596,0
1712190209295,1712190198509,1568913,0
1712190209295,1712190198549,1567619,0
1712190209295,1712190198590,1567084,0
1712190209295,1712190198629,1567172,0
1712190209295,1712190198670,1568214,0
1712190209295,1712190198710,1569532,0
1712190209295,1712190198750,1570694,0
1712190209295,1712190198791,1571718,0
1712190209295,1712190198830,1572902,0
1712190209295,1712190198870,1574197,0
1712190209295,1712190198910,1575557,0
1712190209295,1712190198951,1574417,0
1712190209295,1712190198991,1568825,0
1712190209295,1712190199031,1562091,0
1712190209295,1712190199071,1558092,0
1712190209295,1712190199111,1555761,0
1712190209295,1712190199151,1555458,0
1712190209295,1712190199192,1554744,0
1712190209295,1712190199231,1553643,0
1712190209295,1712190199271,1553000,0
1712190209295,1712190199312,1553164,0
1712190209295,1712190199352,1554103,0
1712190209295,1712190199392,1555658,0
1712190209295,1712190199432,1556853,0
1712190209295,1712190199472,1557883,0
1712190209295,1712190199512,1559154,0
1712190209295,1712190199552,1560644,0
1712190209295,1712190199593,1561858,0
1712190209295,1712190199632,1559787,0
1712190209295,1712190199673,1553515,0
1712190209295,1712190199713,1547160,0
1712190209295,1712190199753,1543855,0
1712190209295,1712190199794,1542784,0
1712190209295,1712190199833,1542758,0
1712190209295,1712190199873,1542581,0
1712190209295,1712190199913,1542033,0
1712190209295,1712190199953,1540794,0
1712190209295,1712190199994,1540452,0
1712190209295,1712190200033,1541108,0
1712190209295,1712190200073,1542416,0
1712190209295,1712190200114,1543953,0
1712190209295,1712190200154,1545397,0
1712190209295,1712190200195,1546590,0
1712190209295,1712190200234,1547977,0
1712190209295,1712190200274,1549601,0
1712190209295,1712190200314,1551436,0
1712190209295,1712190200354,1550509,0
1712190209295,1712190200395,1544813,0
1712190209295,1712190200434,1538215,0
1712190209295,1712190200475,1534909,0
1712190209295,1712190200515,1533959,0
1712190209295,1712190200555,1534406,0
1712190209295,1712190200596,1534637,0
1712190209295,1712190200635,1534114,0
1712190209295,1712190200675,1532858,0
1712190209295,1712190200715,1532224,0
1712190209295,1712190200755,1533128,0
1712190209295,1712190200796,1534578,0
1712190209295,1712190200836,1536365,0
1712190209295,1712190200876,1538038,0
1712190209295,1712190200916,1539368,0
1712190209295,1712190200956,1541046,0
1712190209295,1712190200997,1542927,0
1712190209295,1712190201036,1544720,0
1712190209295,1712190201076,1542763,0
1712190209295,1712190201116,1536723,0
1712190209295,1712190201156,1531396,0
1712190209295,1712190201197,1529592,0
1712190209295,1712190201237,1529780,0
1712190209295,1712190201277,1531101,0
1712190209295,1712190201317,1531930,0
1712190209295,1712190201358,1531638,0
1712190209295,1712190201398,1531049,0
1712190209295,1712190201438,1531488,0
1712190209295,1712190201478,1533029,0
1712190209295,1712190201518,1535051,0
1712190209295,1712190201558,1536846,0
1712190209295,1712190201599,1538519,0
1712190209295,1712190201638,1540050,0
1712190209295,1712190201678,1541801,0
1712190209295,1712190201719,1543605,0
1712190209295,1712190201759,1544560,0
1712190209295,1712190201800,1540638,0
1712190209295,1712190201840,1533023,0
1712190209295,1712190201880,1527319,0
1712190209295,1712190201920,1524933,0
1712190209295,1712190201960,1524241,0
1712190209295,1712190202001,1524333,0
1712190209295,1712190202040,1524282,0
1712190209295,1712190202081,1523621,0
1712190209295,1712190202121,1522900,0
1712190209295,1712190202161,1523081,0
1712190209295,1712190202202,1524409,0
1712190209295,1712190202241,1526208,0
1712190209295,1712190202281,1528133,0
1712190209295,1712190202322,1529708,0
1712190209295,1712190202362,1531268,0
1712190209295,1712190202402,1533056,0
1712190209295,1712190202442,1534891,0
1712190209295,1712190202482,1535682,0
1712190209295,1712190202522,1530960,0
1712190209295,1712190202562,1523603,0
1712190209295,1712190202603,1518467,0
1712190209295,1712190202642,1516665,0
1712190209295,1712190202683,1515954,0
1712190209295,1712190202723,1516295,0
1712190209295,1712190202763,1516374,0
1712190209295,1712190202804,1515836,0
1712190209295,1712190202843,1515540,0
1712190209295,1712190202883,1516170,0
1712190209295,1712190202923,1517829,0
1712190209295,1712190202963,1519738,0
1712190209295,1712190203004,1521685,0
1712190209295,1712190203044,1523270,0
1712190209295,1712190203084,1525010,0
1712190209295,1712190203124,1526800,0
1712190209295,1712190203164,1528938,0
1712190209295,1712190203205,1528999,0
1712190209295,1712190203244,1523759,0
1712190209295,1712190203285,1516704,0
1712190209295,1712190203325,1512657,0
1712190209295,1712190203365,1511456,0
1712190209295,1712190203406,1511512,0
1712190209295,1712190203445,1512101,0
1712190209295,1712190203485,1512250,0
1712190209295,1712190203526,1511944,0
1712190209295,1712190203566,1511744,0
1712190209295,1712190203607,1512859,0
1712190209295,1712190203646,1514625,0
1712190209295,1712190203686,1516766,0
1712190209295,1712190203726,1518641,0
1712190209295,1712190203766,1520388,0
1712190209295,1712190203807,1522169,0
1712190209295,1712190203847,1524048,0
1712190209295,1712190203887,1526059,0
1712190209295,1712190203927,1525761,0
1712190209295,1712190203967,1520325,0
1712190209295,1712190204008,1513842,0
1712190209295,1712190204047,1510853,0
1712190209295,1712190204087,1510435,0
1712190209295,1712190204128,1511122,0
1712190209295,1712190204168,1512107,0
1712190209295,1712190204209,1512170,0
1712190209295,1712190204248,1511631,0
1712190209295,1712190204288,1511801,0
1712190209295,1712190204328,1513180,0
1712190209295,1712190204369,1515254,0
1712190209295,1712190204409,1517318,0
1712190209295,1712190204449,1519176,0
1712190209295,1712190204489,1520952,0
1712190209295,1712190204529,1522808,0
1712190209295,1712190204569,1524941,0
1712190209295,1712190204610,1526717,0
1712190209295,1712190204649,1524333,0
1712190209295,1712190204689,1518259,0
1712190209295,1712190204729,1513535,0
1712190209295,1712190204770,1512168,0
1712190209295,1712190204811,1512690,0
1712190209295,1712190204850,1514348,0
1712190209295,1712190204890,1515148,0
1712190209295,1712190204930,1515017,0
1712190209295,1712190204970,1514803,0
1712190209295,1712190205011,1516011,0
1712190209295,1712190205050,1517919,0
1712190209295,1712190205091,1520342,0
1712190209295,1712190205131,1522828,0
1712190209295,1712190205171,1525001,0
1712190209295,1712190205212,1527295,0
1712190209295,1712190205251,1529917,0
1712190209295,1712190205291,1532244,0
1712190209295,1712190205331,1530254,0
1712190209295,1712190205371,1524194,0
1712190209295,1712190205412,1519019,0
1712190209295,1712190205452,1517259,0
1712190209295,1712190205492,1517185,0
1712190209295,1712190205532,1518149,0
1712190209295,1712190205572,1518728,0
1712190209295,1712190205613,1518295,0
1712190209295,1712190205652,1517864,0
1712190209295,1712190205692,1518460,0
1712190209295,1712190205732,1520018,0
1712190209295,1712190205772,1522112,0
1712190209295,1712190205813,1524194,0
1712190209295,1712190205853,1525877,0
1712190209295,1712190205893,1527632,0
1712190209295,1712190205933,1529553,0
1712190209295,1712190205973,1531688,0
1712190209295,1712190206014,1531677,0
1712190209295,1712190206053,1526007,0
1712190209295,1712190206093,1518727,0
1712190209295,1712190206133,1514281,0
1712190209295,1712190206173,1512789,0
1712190209295,1712190206214,1512344,0
1712190209295,1712190206253,1512828,0
1712190209295,1712190206294,1512742,0
1712190209295,1712190206334,1512301,0
1712190209295,1712190206374,1512089,0
1712190209295,1712190206415,1513113,0
1712190209295,1712190206454,1514824,0
1712190209295,1712190206494,1516914,0
1712190209295,1712190206534,1518834,0
1712190209295,1712190206574,1520398,0
1712190209295,1712190206615,1522077,0
1712190209295,1712190206655,1524110,0
1712190209295,1712190206695,1526133,0
1712190209295,1712190206735,1525257,0
1712190209295,1712190206775,1518965,0
1712190209295,1712190206816,1511839,0
1712190209295,1712190206855,1508397,0
1712190209295,1712190206895,1507258,0
1712190209295,1712190206935,1507133,0
1712190209295,1712190206975,1507609,0
1712190209295,1712190207016,1507449,0
1712190209295,1712190207056,1506961,0
1712190209295,1712190207096,1507121,0
1712190209295,1712190207136,1508270,0
1712190209295,1712190207176,1510173,0
1712190209295,1712190207217,1512275,0
1712190209295,1712190207256,1514181,0
1712190209295,1712190207296,1515850,0
1712190209295,1712190207337,1517687,0
1712190209295,1712190207377,1519607,0
1712190209295,1712190207417,1521855,0
1712190209295,1712190207457,1520309,0
1712190209295,1712190207497,1513780,0
1712190209295,1712190207537,1507190,0
1712190209295,1712190207577,1504255,0
1712190209295,1712190207618,1503634,0
1712190209295,1712190207658,1504121,0
1712190209295,1712190207698,1504797,0
1712190209295,1712190207738,1504853,0
1712190209295,1712190207778,1504308,0
1712190209295,1712190207819,1504914,0
1712190209295,1712190207858,1506390,0
1712190209295,1712190207898,1508346,0
1712190209295,1712190207938,1510445,0
1712190209295,1712190207979,1512171,0
1712190209295,1712190208019,1513776,0
1712190209295,1712190208059,1515664,0
1712190209295,1712190208099,1517861,0
1712190209295,1712190208139,1519962,0
1712190209295,1712190208179,1519402,0
1712190209295,1712190208220,1513282,0
1712190209295,1712190208260,1506660,0
1712190209295,1712190208300,1503779,0
1712190209295,1712190208340,1503418,0
1712190209295,1712190208380,1504335,0
1712190209295,1712190208421,1505011,0
1712190209295,1712190208460,1505035,0
1712190209295,1712190208500,1504605,0
1712190209295,1712190208540,1504856,0
1712190209295,1712190208581,1506234,0
1712190209295,1712190208621,1508463,0
1712190209295,1712190208661,1510691,0
1712190209295,1712190208701,1512500,0
1712190209295,1712190208741,1514311,0
1712190209295,1712190208781,1516129,0
1712190209295,1712190208822,1518466,0
1712190209295,1712190208862,1520262,0
1712190209295,1712190208902,1517390,0
1712190209295,1712190208942,1510991,0
1712190209295,1712190208982,1506443,0
1712190209295,1712190209023,1505401,0
1712190209295,1712190209062,1506289,0
1712190209295,1712190209103,1508083,0
1712190209295,1712190209143,1509037,0
1712190209295,1712190209183,1508863,0
1712190209295,1712190209224,1508870,0
1712190221292,1712190209263,1510210,0
1712190221292,1712190209302,1512430,0
1712190221292,1712190209341,1515164,0
1712190221292,1712190209380,1517709,0
1712190221292,1712190209419,1520215,0
1712190221292,1712190209458,1522755,0
1712190221292,1712190209497,1525502,0
1712190221292,1712190209536,1527915,0
1712190221292,1712190209575,1526111,0
1712190221292,1712190209614,1519790,0
1712190221292,1712190209653,1514196,0
1712190221292,1712190209692,1511997,0
1712190221292,1712190209732,1511843,0
1712190221292,1712190209772,1512625,0
1712190221292,1712190209812,1513282,0
1712190221292,1712190209852,1513017,0
1712190221292,1712190209892,1512442,0
1712190221292,1712190209932,1512952,0
1712190221292,1712190209972,1514201,0
1712190221292,1712190210012,1516377,0
1712190221292,1712190210052,1518385,0
1712190221292,1712190210092,1521823,0
1712190221292,1712190210132,1523629,0
1712190221292,1712190210172,1525806,0
1712190221292,1712190210212,1525341,0
1712190221292,1712190210252,1519286,0
1712190221292,1712190210292,1512072,0
1712190221292,1712190210332,1508169,0
1712190221292,1712190210372,1507069,0
1712190221292,1712190210412,1506951,0
1712190221292,1712190210452,1507362,0
1712190221292,1712190210492,1507537,0
1712190221292,1712190210532,1507014,0
1712190221292,1712190210572,1507118,0
1712190221292,1712190210612,1508163,0
1712190221292,1712190210652,1510189,0
1712190221292,1712190210692,1512319,0
1712190221292,1712190210732,1514114,0
1712190221292,1712190210772,1515838,0
1712190221292,1712190210812,1517688,0
1712190221292,1712190210852,1519790,0
1712190221292,1712190210892,1521467,0
1712190221292,1712190210932,1518514,0
1712190221292,1712190210972,1511299,0
1712190221292,1712190211012,1505434,0
1712190221292,1712190211052,1503293,0
1712190221292,1712190211092,1502572,0
1712190221292,1712190211132,1503062,0
1712190221292,1712190211172,1503497,0
1712190221292,1712190211212,1503433,0
1712190221292,1712190211252,1503262,0
1712190221292,1712190211292,1504030,0
1712190221292,1712190211332,1505481,0
1712190221292,1712190211372,1507726,0
1712190221292,1712190211412,1509888,0
1712190221292,1712190211452,1511701,0
1712190221292,1712190211492,1513570,0
1712190221292,1712190211532,1515368,0
1712190221292,1712190211572,1517612,0
1712190221292,1712190211612,1517722,0
1712190221292,1712190211652,1512436,0
1712190221292,1712190211692,1505503,0
1712190221292,1712190211732,1501692,0
1712190221292,1712190211772,1500863,0
1712190221292,1712190211812,1501282,0
1712190221292,1712190211852,1502105,0
1712190221292,1712190211892,1502381,0
1712190221292,1712190211932,1501927,0
1712190221292,1712190211972,1502327,0
1712190221292,1712190212012,1503710,0
1712190221292,1712190212052,1505944,0
1712190221292,1712190212092,1508277,0
1712190221292,1712190212132,1510301,0
1712190221292,1712190212172,1512321,0
1712190221292,1712190212212,1514355,0
1712190221292,1712190212252,1516650,0
1712190221292,1712190212292,1518272,0
1712190221292,1712190212332,1515335,0
1712190221292,1712190212372,1508880,0
1712190221292,1712190212412,1504295,0
1712190221292,1712190212452,1503226,0
1712190221292,1712190212492,1503756,0
1712190221292,1712190212532,1505271,0
1712190221292,1712190212572,1505921,0
1712190221292,1712190212612,1505591,0
1712190221292,1712190212652,1505637,0
1712190221292,1712190212692,1506721,0
1712190221292,1712190212732,1508899,0
1712190221292,1712190212772,1511285,0
1712190221292,1712190212812,1513586,0
1712190221292,1712190212852,1515664,0
1712190221292,1712190212892,1518005,0
1712190221292,1712190212932,1520419,0
1712190221292,1712190212972,1521543,0
1712190221292,1712190213012,1517450,0
1712190221292,1712190213052,1511275,0
1712190221292,1712190213092,1507944,0
1712190221292,1712190213132,1507588,0
1712190221292,1712190213172,1508673,0
1712190221292,1712190213212,1510153,0
1712190221292,1712190213252,1510701,0
1712190221292,1712190213292,1510616,0
1712190221292,1712190213332,1510933,0
1712190221292,1712190213372,1512536,0
1712190221292,1712190213412,1514737,0
1712190221292,1712190213452,1516822,0
1712190221292,1712190213492,1519027,0
1712190221292,1712190213532,1520968,0
1712190221292,1712190213572,1522982,0
1712190221292,1712190213612,1525204,0
1712190221292,1712190213652,1524112,0
1712190221292,1712190213692,1517967,0
1712190221292,1712190213732,1511393,0
1712190221292,1712190213772,1508092,0
1712190221292,1712190213812,1507244,0
1712190221292,1712190213852,1507392,0
1712190221292,1712190213892,1507794,0
1712190221292,1712190213932,1507682,0
1712190221292,1712190213972,1507332,0
1712190221292,1712190214012,1507659,0
1712190221292,1712190214052,1508981,0
1712190221292,1712190214092,1510895,0
1712190221292,1712190214132,1513009,0
1712190221292,1712190214172,1515017,0
1712190221292,1712190214212,1516794,0
1712190221292,1712190214252,1518855,0
1712190221292,1712190214292,1520673,0
1712190221292,1712190214332,1518444,0
1712190221292,1712190214372,1511662,0
1712190221292,1712190214412,1505703,0
1712190221292,1712190214452,1503259,0
1712190221292,1712190214492,1502494,0
1712190221292,1712190214532,1503098,0
1712190221292,1712190214572,1503639,0
1712190221292,1712190214612,1503620,0
1712190221292,1712190214652,1503669,0
1712190221292,1712190214692,1504257,0
1712190221292,1712190214732,1505917,0
1712190221292,1712190214772,1508226,0
1712190221292,1712190214812,1510170,0
1712190221292,1712190214852,1512237,0
1712190221292,1712190214892,1513998,0
1712190221292,1712190214932,1516132,0
1712190221292,1712190214972,1518122,0
1712190221292,1712190215012,1515733,0
1712190221292,1712190215052,1509300,0
1712190221292,1712190215092,1504257,0
1712190221292,1712190215132,1502539,0
1712190221292,1712190215172,1502697,0
1712190221292,1712190215212,1503692,0
1712190221292,1712190215252,1504498,0
1712190221292,1712190215292,1504689,0
1712190221292,1712190215332,1504650,0
1712190221292,1712190215372,1505591,0
1712190221292,1712190215412,1507540,0
1712190221292,1712190215452,1509808,0
1712190221292,1712190215492,1512018,0
1712190221292,1712190215532,1514183,0
1712190221292,1712190215572,1516342,0
1712190221292,1712190215612,1518669,0
1712190221292,1712190215652,1520031,0
1712190221292,1712190215692,1516709,0
1712190221292,1712190215732,1510593,0
1712190221292,1712190215772,1507041,0
1712190221292,1712190215812,1506760,0
1712190221292,1712190215852,1507702,0
1712190221292,1712190215892,1509294,0
1712190221292,1712190215932,1510139,0
1712190221292,1712190215972,1510292,0
1712190221292,1712190216012,1511041,0
1712190221292,1712190216052,1512661,0
1712190221292,1712190216092,1515232,0
1712190221292,1712190216132,1517978,0
1712190221292,1712190216172,1520516,0
1712190221292,1712190216212,1522903,0
1712190221292,1712190216252,1525336,0
1712190221292,1712190216292,1527634,0
1712190221292,1712190216332,1526465,0
1712190221292,1712190216372,1520537,0
1712190221292,1712190216412,1514828,0
1712190221292,1712190216452,1512607,0
1712190221292,1712190216492,1512274,0
1712190221292,1712190216532,1513162,0
1712190221292,1712190216572,1514012,0
1712190221292,1712190216612,1514026,0
1712190221292,1712190216652,1513833,0
1712190221292,1712190216692,1514521,0
1712190221292,1712190216732,1516181,0
1712190221292,1712190216772,1518351,0
1712190221292,1712190216812,1520469,0
1712190221292,1712190216852,1522343,0
1712190221292,1712190216892,1524258,0
1712190221292,1712190216932,1526330,0
1712190221292,1712190216972,1528433,0
1712190221292,1712190217012,1526481,0
1712190221292,1712190217052,1520135,0
1712190221292,1712190217092,1514168,0
1712190221292,1712190217132,1511763,0
1712190221292,1712190217172,1511219,0
1712190221292,1712190217212,1511791,0
1712190221292,1712190217252,1512557,0
1712190221292,1712190217292,1512695,0
1712190221292,1712190217332,1512627,0
1712190221292,1712190217372,1513234,0
1712190221292,1712190217412,1514899,0
1712190221292,1712190217452,1517065,0
1712190221292,1712190217492,1519247,0
1712190221292,1712190217532,1521135,0
1712190221292,1712190217572,1523042,0
1712190221292,1712190217612,1525105,0
1712190221292,1712190217652,1527395,0
1712190221292,1712190217692,1526974,0
1712190221292,1712190217732,1521432,0
1712190221292,1712190217772,1515307,0
1712190221292,1712190217812,1512314,0
1712190221292,1712190217852,1511662,0
1712190221292,1712190217892,1512025,0
1712190221292,1712190217932,1512964,0
1712190221292,1712190217972,1513212,0
1712190221292,1712190218012,1513099,0
1712190221292,1712190218052,1513476,0
1712190221292,1712190218092,1514940,0
1712190221292,1712190218132,1516925,0
1712190221292,1712190218172,1519184,0
1712190221292,1712190218212,1521250,0
1712190221292,1712190218252,1523324,0
1712190221292,1712190218292,1525338,0
1712190221292,1712190218332,1527673,0
1712190221292,1712190218372,1528631,0
1712190221292,1712190218412,1524610,0
1712190221292,1712190218452,1518638,0
1712190221292,1712190218492,1515125,0
1712190221292,1712190218532,1514712,0
1712190221292,1712190218572,1515476,0
1712190221292,1712190218612,1516698,0
1712190221292,1712190218652,1517295,0
1712190221292,1712190218692,1517170,0
1712190221292,1712190218732,1517373,0
1712190221292,1712190218772,1518663,0
1712190221292,1712190218812,1520637,0
1712190221292,1712190218852,1522833,0
1712190221292,1712190218892,1524869,0
1712190221292,1712190218932,1526746,0
1712190221292,1712190218972,1529016,0
1712190221292,1712190219012,1531311,0
1712190221292,1712190219052,1532063,0
1712190221292,1712190219092,1528170,0
1712190221292,1712190219132,1522603,0
1712190221292,1712190219172,1519753,0
1712190221292,1712190219212,1519897,0
1712190221292,1712190219252,1521472,0
1712190221292,1712190219292,1523384,0
1712190221292,1712190219332,1524238,0
1712190221292,1712190219372,1524217,0
1712190221292,1712190219412,1524994,0
1712190221292,1712190219452,1526715,0
1712190221292,1712190219492,1528972,0
1712190221292,1712190219532,1531280,0
1712190221292,1712190219572,1533368,0
1712190221292,1712190219612,1535257,0
1712190221292,1712190219652,1537260,0
1712190221292,1712190219692,1539121,0
1712190221292,1712190219732,1538180,0
1712190221292,1712190219772,1532203,0
1712190221292,1712190219812,1525972,0
1712190221292,1712190219852,1523175,0
1712190221292,1712190219892,1522482,0
1712190221292,1712190219932,1523008,0
1712190221292,1712190219972,1523486,0
1712190221292,1712190220012,1523341,0
1712190221292,1712190220052,1522863,0
1712190221292,1712190220092,1523311,0
1712190221292,1712190220132,1524514,0
1712190221292,1712190220172,1526461,0
1712190221292,1712190220212,1528334,0
1712190221292,1712190220252,1530090,0
1712190221292,1712190220292,1531938,0
1712190221292,1712190220332,1533738,0
1712190221292,1712190220372,1535655,0
1712190221292,1712190220412,1535179,0
1712190221292,1712190220452,1529673,0
1712190221292,1712190220492,1522786,0
1712190221292,1712190220532,1519387,0
1712190221292,1712190220572,1518371,0
1712190221292,1712190220612,1518367,0
1712190221292,1712190220652,1518986,0
1712190221292,1712190220692,1518907,0
1712190221292,1712190220732,1518544,0
1712190221292,1712190220772,1518581,0
1712190221292,1712190220812,1519699,0
1712190221292,1712190220852,1521562,0
1712190221292,1712190220892,1523664,0
1712190221292,1712190220932,1525440,0
1712190221292,1712190220972,1527203,0
1712190221292,1712190221012,1529031,0
1712190221292,1712190221052,1531048,0
1712190221292,1712190221092,1531638,0
1712190221292,1712190221132,1526843,0
1712190221292,1712190221172,1520152,0
1712190221292,1712190221212,1516180,0
1712190233308,1712190221250,1515075,0
1712190233308,1712190221290,1515217,0
1712190233308,1712190221330,1515820,0
1712190233308,1712190221370,1516179,0
1712190233308,1712190221411,1515746,0
1712190233308,1712190221451,1515658,0
1712190233308,1712190221491,1516774,0
1712190233308,1712190221531,1518430,0
1712190233308,1712190221571,1520537,0
1712190233308,1712190221612,1522636,0
1712190233308,1712190221651,1524474,0
1712190233308,1712190221691,1528909,0
1712190233308,1712190221731,1530350,0
1712190233308,1712190221771,1527244,0
1712190233308,1712190221812,1521162,0
1712190233308,1712190221851,1516772,0
1712190233308,1712190221892,1515883,0
1712190233308,1712190221932,1516456,0
1712190233308,1712190221972,1517724,0
1712190233308,1712190222013,1518228,0
1712190233308,1712190222052,1517886,0
1712190233308,1712190222092,1517785,0
1712190233308,1712190222132,1518657,0
1712190233308,1712190222172,1520493,0
1712190233308,1712190222213,1522674,0
1712190233308,1712190222252,1524527,0
1712190233308,1712190222292,1526415,0
1712190233308,1712190222333,1528433,0
1712190233308,1712190222373,1530744,0
1712190233308,1712190222413,1531003,0
1712190233308,1712190222453,1526645,0
1712190233308,1712190222493,1521157,0
1712190233308,1712190222533,1518825,0
1712190233308,1712190222573,1519173,0
1712190233308,1712190222614,1520995,0
1712190233308,1712190222653,1522585,0
1712190233308,1712190222693,1523290,0
1712190233308,1712190222734,1523359,0
1712190233308,1712190222774,1524044,0
1712190233308,1712190222814,1525908,0
1712190233308,1712190222854,1528326,0
1712190233308,1712190222894,1530535,0
1712190233308,1712190222934,1532627,0
1712190233308,1712190222974,1534579,0
1712190233308,1712190223015,1536806,0
1712190233308,1712190223054,1538202,0
1712190233308,1712190223095,1534785,0
1712190233308,1712190223135,1528184,0
1712190233308,1712190223175,1523255,0
1712190233308,1712190223216,1521437,0
1712190233308,1712190223255,1521159,0
1712190233308,1712190223295,1521774,0
1712190233308,1712190223335,1521908,0
1712190233308,1712190223375,1521363,0
1712190233308,1712190223416,1521037,0
1712190233308,1712190223456,1521567,0
1712190233308,1712190223495,1523044,0
1712190233308,1712190223536,1524865,0
1712190233308,1712190223576,1526651,0
1712190233308,1712190223617,1528309,0
1712190233308,1712190223656,1530117,0
1712190233308,1712190223696,1532103,0
1712190233308,1712190223736,1532518,0
1712190233308,1712190223776,1527937,0
1712190233308,1712190223817,1521160,0
1712190233308,1712190223857,1516974,0
1712190233308,1712190223897,1515616,0
1712190233308,1712190223937,1515365,0
1712190233308,1712190223977,1515649,0
1712190233308,1712190224018,1515828,0
1712190233308,1712190224057,1515298,0
1712190233308,1712190224097,1515143,0
1712190233308,1712190224137,1516019,0
1712190233308,1712190224177,1517633,0
1712190233308,1712190224218,1519575,0
1712190233308,1712190224257,1521388,0
1712190233308,1712190224298,1522956,0
1712190233308,1712190224338,1524475,0
1712190233308,1712190224378,1526400,0
1712190233308,1712190224419,1526175,0
1712190233308,1712190224458,1520867,0
1712190233308,1712190224498,1514265,0
1712190233308,1712190224538,1510760,0
1712190233308,1712190224578,1509709,0
1712190233308,1712190224619,1509896,0
1712190233308,1712190224659,1510611,0
1712190233308,1712190224699,1510874,0
1712190233308,1712190224739,1510435,0
1712190233308,1712190224779,1510936,0
1712190233308,1712190224820,1512194,0
1712190233308,1712190224859,1514146,0
1712190233308,1712190224899,1516199,0
1712190233308,1712190224939,1518219,0
1712190233308,1712190224979,1520143,0
1712190233308,1712190225020,1522294,0
1712190233308,1712190225060,1524392,0
1712190233308,1712190225100,1524633,0
1712190233308,1712190225140,1520205,0
1712190233308,1712190225180,1514432,0
1712190233308,1712190225221,1511775,0
1712190233308,1712190225260,1511652,0
1712190233308,1712190225300,1512626,0
1712190233308,1712190225340,1513758,0
1712190233308,1712190225381,1514144,0
1712190233308,1712190225421,1513832,0
1712190233308,1712190225461,1514187,0
1712190233308,1712190225501,1515746,0
1712190233308,1712190225541,1517861,0
1712190233308,1712190225581,1520025,0
1712190233308,1712190225622,1522105,0
1712190233308,1712190225661,1524274,0
1712190233308,1712190225701,1526623,0
1712190233308,1712190225742,1528904,0
1712190233308,1712190225782,1528319,0
1712190233308,1712190225822,1523426,0
1712190233308,1712190225862,1518769,0
1712190233308,1712190225902,1517533,0
1712190233308,1712190225942,1518322,0
1712190233308,1712190225982,1520146,0
1712190233308,1712190226023,1521484,0
1712190233308,1712190226062,1521960,0
1712190233308,1712190226103,1522108,0
1712190233308,1712190226143,1522990,0
1712190233308,1712190226183,1524939,0
1712190233308,1712190226224,1527015,0
1712190233308,1712190226263,1529051,0
1712190233308,1712190226303,1530894,0
1712190233308,1712190226343,1532940,0
1712190233308,1712190226383,1535128,0
1712190233308,1712190226424,1536828,0
1712190233308,1712190226464,1534541,0
1712190233308,1712190226504,1528343,0
1712190233308,1712190226544,1523487,0
1712190233308,1712190226584,1521735,0
1712190233308,1712190226625,1521410,0
1712190233308,1712190226664,1522146,0
1712190233308,1712190226704,1522807,0
1712190233308,1712190226744,1522899,0
1712190233308,1712190226785,1522852,0
1712190233308,1712190226825,1523733,0
1712190233308,1712190226865,1525389,0
1712190233308,1712190226905,1527482,0
1712190233308,1712190226945,1529601,0
1712190233308,1712190226985,1531531,0
1712190233308,1712190227026,1533479,0
1712190233308,1712190227066,1535594,0
1712190233308,1712190227106,1537308,0
1712190233308,1712190227146,1534695,0
1712190233308,1712190227186,1528726,0
1712190233308,1712190227227,1524012,0
1712190233308,1712190227266,1522513,0
1712190233308,1712190227306,1522025,0
1712190233308,1712190227347,1522621,0
1712190233308,1712190227387,1523291,0
1712190233308,1712190227428,1523586,0
1712190233308,1712190227467,1523632,0
1712190233308,1712190227507,1524476,0
1712190233308,1712190227547,1526174,0
1712190233308,1712190227587,1528221,0
1712190233308,1712190227628,1530110,0
1712190233308,1712190227668,1531821,0
1712190233308,1712190227708,1533578,0
1712190233308,1712190227748,1535494,0
1712190233308,1712190227788,1537556,0
1712190233308,1712190227829,1537326,0
1712190233308,1712190227868,1532382,0
1712190233308,1712190227908,1526484,0
1712190233308,1712190227948,1523926,0
1712190233308,1712190227988,1523465,0
1712190233308,1712190228029,1523976,0
1712190233308,1712190228068,1524903,0
1712190233308,1712190228109,1525305,0
1712190233308,1712190228149,1525361,0
1712190233308,1712190228189,1525762,0
1712190233308,1712190228229,1527242,0
1712190233308,1712190228269,1529411,0
1712190233308,1712190228309,1531667,0
1712190233308,1712190228349,1533617,0
1712190233308,1712190228389,1535655,0
1712190233308,1712190228430,1537741,0
1712190233308,1712190228469,1539880,0
1712190233308,1712190228510,1541439,0
1712190233308,1712190228550,1538408,0
1712190233308,1712190228590,1532906,0
1712190233308,1712190228631,1529343,0
1712190233308,1712190228670,1528864,0
1712190233308,1712190228710,1529640,0
1712190233308,1712190228750,1530768,0
1712190233308,1712190228790,1531555,0
1712190233308,1712190228831,1531264,0
1712190233308,1712190228870,1531369,0
1712190233308,1712190228910,1532506,0
1712190233308,1712190228950,1534421,0
1712190233308,1712190228991,1536482,0
1712190233308,1712190229031,1538549,0
1712190233308,1712190229071,1540576,0
1712190233308,1712190229111,1542684,0
1712190233308,1712190229151,1544982,0
1712190233308,1712190229191,1545530,0
1712190233308,1712190229232,1541916,0
1712190233308,1712190229271,1536515,0
1712190233308,1712190229311,1533834,0
1712190233308,1712190229351,1534060,0
1712190233308,1712190229391,1535295,0
1712190233308,1712190229432,1536617,0
1712190233308,1712190229472,1537107,0
1712190233308,1712190229512,1536906,0
1712190233308,1712190229552,1537239,0
1712190233308,1712190229592,1538669,0
1712190233308,1712190229633,1540576,0
1712190233308,1712190229672,1542709,0
1712190233308,1712190229712,1544524,0
1712190233308,1712190229752,1546271,0
1712190233308,1712190229792,1548182,0
1712190233308,1712190229833,1550020,0
1712190233308,1712190229873,1549547,0
1712190233308,1712190229913,1543950,0
1712190233308,1712190229953,1537725,0
1712190233308,1712190229993,1534420,0
1712190233308,1712190230034,1533401,0
1712190233308,1712190230073,1533415,0
1712190233308,1712190230113,1533729,0
1712190233308,1712190230153,1533664,0
1712190233308,1712190230194,1533382,0
1712190233308,1712190230234,1533443,0
1712190233308,1712190230274,1534554,0
1712190233308,1712190230314,1536226,0
1712190233308,1712190230354,1538219,0
1712190233308,1712190230394,1539959,0
1712190233308,1712190230435,1541524,0
1712190233308,1712190230474,1543226,0
1712190233308,1712190230514,1545250,0
1712190233308,1712190230555,1545118,0
1712190233308,1712190230594,1539915,0
1712190233308,1712190230635,1533365,0
1712190233308,1712190230675,1529699,0
1712190233308,1712190230715,1528543,0
1712190233308,1712190230755,1528221,0
1712190233308,1712190230795,1528707,0
1712190233308,1712190230836,1528808,0
1712190233308,1712190230875,1528182,0
1712190233308,1712190230916,1528246,0
1712190233308,1712190230956,1529254,0
1712190233308,1712190230996,1530952,0
1712190233308,1712190231037,1532744,0
1712190233308,1712190231076,1534394,0
1712190233308,1712190231116,1536130,0
1712190233308,1712190231156,1537884,0
1712190233308,1712190231196,1539788,0
1712190233308,1712190231237,1540575,0
1712190233308,1712190231277,1536279,0
1712190233308,1712190231317,1529791,0
1712190233308,1712190231357,1525569,0
1712190233308,1712190231397,1524523,0
1712190233308,1712190231437,1524221,0
1712190233308,1712190231477,1524953,0
1712190233308,1712190231517,1525179,0
1712190233308,1712190231557,1524820,0
1712190233308,1712190231597,1524740,0
1712190233308,1712190231638,1525527,0
1712190233308,1712190231678,1527133,0
1712190233308,1712190231718,1528879,0
1712190233308,1712190231758,1530478,0
1712190233308,1712190231798,1532081,0
1712190233308,1712190231839,1533632,0
1712190233308,1712190231878,1535541,0
1712190233308,1712190231918,1537394,0
1712190233308,1712190231958,1535853,0
1712190233308,1712190231999,1530024,0
1712190233308,1712190232039,1524609,0
1712190233308,1712190232079,1522544,0
1712190233308,1712190232119,1522391,0
1712190233308,1712190232159,1523295,0
1712190233308,1712190232199,1524022,0
1712190233308,1712190232240,1524012,0
1712190233308,1712190232279,1523677,0
1712190233308,1712190232320,1524390,0
1712190233308,1712190232360,1525910,0
1712190233308,1712190232400,1528044,0
1712190233308,1712190232441,1530001,0
1712190233308,1712190232480,1531862,0
1712190233308,1712190232520,1533711,0
1712190233308,1712190232560,1535642,0
1712190233308,1712190232601,1537791,0
1712190233308,1712190232641,1538238,0
1712190233308,1712190232681,1533961,0
1712190233308,1712190232721,1528168,0
1712190233308,1712190232761,1525587,0
1712190233308,1712190232801,1525617,0
1712190233308,1712190232842,1526886,0
1712190233308,1712190232881,1528124,0
1712190233308,1712190232921,1528406,0
1712190233308,1712190232962,1528051,0
1712190233308,1712190233002,1528415,0
1712190233308,1712190233042,1529906,0
1712190233308,1712190233082,1532181,0
1712190233308,1712190233122,1534447,0
1712190233308,1712190233162,1536658,0
1712190233308,1712190233202,1538670,0
1712190233308,1712190233243,1541068,0
1712190245368,1712190233283,1543447,0
1712190245368,1712190233324,1543516,0
1712190245368,1712190233364,1538957,0
1712190245368,1712190233404,1534119,0
1712190245368,1712190233445,1532516,0
1712190245368,1712190233484,1533030,0
1712190245368,1712190233524,1534504,0
1712190245368,1712190233565,1535531,0
1712190245368,1712190233605,1535671,0
1712190245368,1712190233645,1535394,0
1712190245368,1712190233685,1535839,0
1712190245368,1712190233725,1537250,0
1712190245368,1712190233765,1539451,0
1712190245368,1712190233806,1541394,0
1712190245368,1712190233846,1543253,0
1712190245368,1712190233886,1544982,0
1712190245368,1712190233926,1547008,0
1712190245368,1712190233966,1548960,0
1712190245368,1712190234006,1547593,0
1712190245368,1712190234047,1541709,0
1712190245368,1712190234086,1533499,0
1712190245368,1712190234126,1532975,0
1712190245368,1712190234166,1533318,0
1712190245368,1712190234206,1533802,0
1712190245368,1712190234247,1533761,0
1712190245368,1712190234287,1533504,0
1712190245368,1712190234327,1534011,0
1712190245368,1712190234367,1535164,0
1712190245368,1712190234407,1537405,0
1712190245368,1712190234448,1539282,0
1712190245368,1712190234487,1541214,0
1712190245368,1712190234527,1543023,0
1712190245368,1712190234567,1544996,0
1712190245368,1712190234607,1546865,0
1712190245368,1712190234648,1546261,0
1712190245368,1712190234688,1540953,0
1712190245368,1712190234728,1535197,0
1712190245368,1712190234768,1532414,0
1712190245368,1712190234808,1531659,0
1712190245368,1712190234849,1531992,0
1712190245368,1712190234888,1532564,0
1712190245368,1712190234928,1532817,0
1712190245368,1712190234968,1532431,0
1712190245368,1712190235008,1532775,0
1712190245368,1712190235049,1534006,0
1712190245368,1712190235088,1535740,0
1712190245368,1712190235129,1537733,0
1712190245368,1712190235169,1539460,0
1712190245368,1712190235209,1540939,0
1712190245368,1712190235250,1542588,0
1712190245368,1712190235289,1544670,0
1712190245368,1712190235329,1545055,0
1712190245368,1712190235369,1541012,0
1712190245368,1712190235409,1535146,0
1712190245368,1712190235450,1531864,0
1712190245368,1712190235490,1531210,0
1712190245368,1712190235530,1531665,0
1712190245368,1712190235570,1532538,0
1712190245368,1712190235610,1533032,0
1712190245368,1712190235650,1532873,0
1712190245368,1712190235690,1533112,0
1712190245368,1712190235730,1534300,0
1712190245368,1712190235770,1536190,0
1712190245368,1712190235810,1538147,0
1712190245368,1712190235851,1539977,0
1712190245368,1712190235891,1541728,0
1712190245368,1712190235931,1543671,0
1712190245368,1712190235971,1545632,0
1712190245368,1712190236011,1546370,0
1712190245368,1712190236052,1542740,0
1712190245368,1712190236091,1537464,0
1712190245368,1712190236131,1534650,0
1712190245368,1712190236171,1534282,0
1712190245368,1712190236212,1535445,0
1712190245368,1712190236252,1536615,0
1712190245368,1712190236292,1537089,0
1712190245368,1712190236332,1536832,0
1712190245368,1712190236372,1537174,0
1712190245368,1712190236412,1538564,0
1712190245368,1712190236453,1540711,0
1712190245368,1712190236492,1543062,0
1712190245368,1712190236532,1545074,0
1712190245368,1712190236572,1547268,0
1712190245368,1712190236612,1549683,0
1712190245368,1712190236653,1552129,0
1712190245368,1712190236693,1551413,0
1712190245368,1712190236733,1546632,0
1712190245368,1712190236773,1541815,0
1712190245368,1712190236813,1540184,0
1712190245368,1712190236854,1540072,0
1712190245368,1712190236893,1540916,0
1712190245368,1712190236933,1541497,0
1712190245368,1712190236973,1541104,0
1712190245368,1712190237014,1540793,0
1712190245368,1712190237054,1541281,0
1712190245368,1712190237094,1542668,0
1712190245368,1712190237134,1544577,0
1712190245368,1712190237174,1546320,0
1712190245368,1712190237214,1548009,0
1712190245368,1712190237255,1549561,0
1712190245368,1712190237295,1551405,0
1712190245368,1712190237335,1553036,0
1712190245368,1712190237375,1550780,0
1712190245368,1712190237415,1544952,0
1712190245368,1712190237456,1539607,0
1712190245368,1712190237495,1537586,0
1712190245368,1712190237535,1536945,0
1712190245368,1712190237575,1537311,0
1712190245368,1712190237615,1537676,0
1712190245368,1712190237656,1537588,0
1712190245368,1712190237696,1537343,0
1712190245368,1712190237736,1537888,0
1712190245368,1712190237776,1539295,0
1712190245368,1712190237816,1541283,0
1712190245368,1712190237857,1543006,0
1712190245368,1712190237896,1544657,0
1712190245368,1712190237936,1546326,0
1712190245368,1712190237976,1548149,0
1712190245368,1712190238017,1549982,0
1712190245368,1712190238057,1549969,0
1712190245368,1712190238097,1545344,0
1712190245368,1712190238137,1539136,0
1712190245368,1712190238177,1536014,0
1712190245368,1712190238217,1535277,0
1712190245368,1712190238258,1535555,0
1712190245368,1712190238298,1536086,0
1712190245368,1712190238338,1536509,0
1712190245368,1712190238378,1536095,0
1712190245368,1712190238418,1536307,0
1712190245368,1712190238459,1537280,0
1712190245368,1712190238498,1539116,0
1712190245368,1712190238538,1540984,0
1712190245368,1712190238578,1542764,0
1712190245368,1712190238619,1544423,0
1712190245368,1712190238659,1546427,0
1712190245368,1712190238699,1548516,0
1712190245368,1712190238739,1550150,0
1712190245368,1712190238779,1547786,0
1712190245368,1712190238819,1542093,0
1712190245368,1712190238860,1537685,0
1712190245368,1712190238900,1536676,0
1712190245368,1712190238940,1536985,0
1712190245368,1712190238980,1538153,0
1712190245368,1712190239020,1538750,0
1712190245368,1712190239061,1538630,0
1712190245368,1712190239100,1538419,0
1712190245368,1712190239140,1539166,0
1712190245368,1712190239180,1540618,0
1712190245368,1712190239221,1542682,0
1712190245368,1712190239261,1544481,0
1712190245368,1712190239301,1546264,0
1712190245368,1712190239341,1548024,0
1712190245368,1712190239381,1549928,0
1712190245368,1712190239421,1551861,0
1712190245368,1712190239462,1551311,0
1712190245368,1712190239502,1546516,0
1712190245368,1712190239542,1541577,0
1712190245368,1712190239582,1539957,0
1712190245368,1712190239622,1540485,0
1712190245368,1712190239663,1542037,0
1712190245368,1712190239702,1543016,0
1712190245368,1712190239742,1543257,0
1712190245368,1712190239782,1543168,0
1712190245368,1712190239823,1543986,0
1712190245368,1712190239863,1545828,0
1712190245368,1712190239903,1548096,0
1712190245368,1712190239943,1550289,0
1712190245368,1712190239983,1552527,0
1712190245368,1712190240023,1554648,0
1712190245368,1712190240064,1556959,0
1712190245368,1712190240103,1559222,0
1712190245368,1712190240143,1558375,0
1712190245368,1712190240184,1553407,0
1712190245368,1712190240224,1548454,0
1712190245368,1712190240264,1546669,0
1712190245368,1712190240304,1546903,0
1712190245368,1712190240344,1547982,0
1712190245368,1712190240384,1548789,0
1712190245368,1712190240424,1548869,0
1712190245368,1712190240465,1548613,0
1712190245368,1712190240504,1549129,0
1712190245368,1712190240544,1550556,0
1712190245368,1712190240584,1552435,0
1712190245368,1712190240625,1554364,0
1712190245368,1712190240665,1556153,0
1712190245368,1712190240705,1557923,0
1712190245368,1712190240745,1559648,0
1712190245368,1712190240785,1561676,0
1712190245368,1712190240825,1561208,0
1712190245368,1712190240866,1555820,0
1712190245368,1712190240905,1549808,0
1712190245368,1712190240945,1546684,0
1712190245368,1712190240985,1545882,0
1712190245368,1712190241026,1546082,0
1712190245368,1712190241066,1546446,0
1712190245368,1712190241106,1546396,0
1712190245368,1712190241146,1545892,0
1712190245368,1712190241186,1545964,0
1712190245368,1712190241226,1546929,0
1712190245368,1712190241267,1548624,0
1712190245368,1712190241306,1550533,0
1712190245368,1712190241346,1552266,0
1712190245368,1712190241386,1553838,0
1712190245368,1712190241426,1555512,0
1712190245368,1712190241467,1557509,0
1712190245368,1712190241507,1558042,0
1712190245368,1712190241547,1553897,0
1712190245368,1712190241587,1547389,0
1712190245368,1712190241627,1543436,0
1712190245368,1712190241668,1541955,0
1712190245368,1712190241707,1541810,0
1712190245368,1712190241747,1542212,0
1712190245368,1712190241787,1542367,0
1712190245368,1712190241827,1541752,0
1712190245368,1712190241868,1541642,0
1712190245368,1712190241908,1542463,0
1712190245368,1712190241948,1543910,0
1712190245368,1712190241988,1545767,0
1712190245368,1712190242028,1547559,0
1712190245368,1712190242069,1549096,0
1712190245368,1712190242108,1550567,0
1712190245368,1712190242148,1552331,0
1712190245368,1712190242188,1553817,0
1712190245368,1712190242228,1551651,0
1712190245368,1712190242269,1545657,0
1712190245368,1712190242308,1540392,0
1712190245368,1712190242349,1538511,0
1712190245368,1712190242389,1538298,0
1712190245368,1712190242429,1538935,0
1712190245368,1712190242470,1539362,0
1712190245368,1712190242509,1538905,0
1712190245368,1712190242549,1538411,0
1712190245368,1712190242589,1538680,0
1712190245368,1712190242629,1540024,0
1712190245368,1712190242670,1541823,0
1712190245368,1712190242710,1543676,0
1712190245368,1712190242750,1545111,0
1712190245368,1712190242790,1546704,0
1712190245368,1712190242830,1548621,0
1712190245368,1712190242871,1550491,0
1712190245368,1712190242910,1550585,0
1712190245368,1712190242950,1546146,0
1712190245368,1712190242990,1540325,0
1712190245368,1712190243030,1537369,0
1712190245368,1712190243071,1537124,0
1712190245368,1712190243111,1538049,0
1712190245368,1712190243151,1538788,0
1712190245368,1712190243191,1538660,0
1712190245368,1712190243231,1538141,0
1712190245368,1712190243272,1538097,0
1712190245368,1712190243311,1539231,0
1712190245368,1712190243351,1540920,0
1712190245368,1712190243391,1542991,0
1712190245368,1712190243432,1544888,0
1712190245368,1712190243472,1546532,0
1712190245368,1712190243512,1548497,0
1712190245368,1712190243552,1550700,0
1712190245368,1712190243592,1551135,0
1712190245368,1712190243632,1547033,0
1712190245368,1712190243673,1541142,0
1712190245368,1712190243712,1537901,0
1712190245368,1712190243752,1537472,0
1712190245368,1712190243793,1538366,0
1712190245368,1712190243833,1539288,0
1712190245368,1712190243873,1539358,0
1712190245368,1712190243913,1538837,0
1712190245368,1712190243953,1538794,0
1712190245368,1712190243993,1539825,0
1712190245368,1712190244033,1541624,0
1712190245368,1712190244074,1543539,0
1712190245368,1712190244113,1545296,0
1712190245368,1712190244154,1546811,0
1712190245368,1712190244194,1548489,0
1712190245368,1712190244234,1550466,0
1712190245368,1712190244275,1551228,0
1712190245368,1712190244314,1546970,0
1712190245368,1712190244354,1540089,0
1712190245368,1712190244394,1535420,0
1712190245368,1712190244434,1533720,0
1712190245368,1712190244475,1533275,0
1712190245368,1712190244515,1533517,0
1712190245368,1712190244555,1533424,0
1712190245368,1712190244595,1532723,0
1712190245368,1712190244635,1532230,0
1712190245368,1712190244676,1532551,0
1712190245368,1712190244715,1533981,0
1712190245368,1712190244756,1535769,0
1712190245368,1712190244796,1537556,0
1712190245368,1712190244836,1539040,0
1712190245368,1712190244877,1540688,0
1712190245368,1712190244916,1542500,0
1712190245368,1712190244956,1543616,0
1712190245368,1712190244996,1539994,0
1712190245368,1712190245036,1533074,0
1712190245368,1712190245077,1527768,0
1712190245368,1712190245117,1525688,0
1712190245368,1712190245157,1524861,0
1712190245368,1712190245197,1525061,0
1712190245368,1712190245237,1525093,0
1712190245368,1712190245278,1524272,0
1712190257356,1712190245315,1523663,0
1712190257356,1712190245356,1524134,0
1712190257356,1712190245396,1525494,0
1712190257356,1712190245436,1527158,0
1712190257356,1712190245477,1528840,0
1712190257356,1712190245516,1530420,0
1712190257356,1712190245556,1531832,0
1712190257356,1712190245596,1533733,0
1712190257356,1712190245636,1535369,0
1712190257356,1712190245677,1532739,0
1712190257356,1712190245717,1526036,0
1712190257356,1712190245757,1520034,0
1712190257356,1712190245797,1517698,0
1712190257356,1712190245837,1516938,0
1712190257356,1712190245878,1517358,0
1712190257356,1712190245917,1517556,0
1712190257356,1712190245958,1517177,0
1712190257356,1712190245998,1516674,0
1712190257356,1712190246038,1517233,0
1712190257356,1712190246079,1518530,0
1712190257356,1712190246118,1520547,0
1712190257356,1712190246158,1522462,0
1712190257356,1712190246198,1524273,0
1712190257356,1712190246239,1528062,0
1712190257356,1712190246279,1529902,0
1712190257356,1712190246319,1528532,0
1712190257356,1712190246359,1522734,0
1712190257356,1712190246399,1516906,0
1712190257356,1712190246439,1514619,0
1712190257356,1712190246480,1514564,0
1712190257356,1712190246519,1515517,0
1712190257356,1712190246559,1516117,0
1712190257356,1712190246599,1515777,0
1712190257356,1712190246639,1514960,0
1712190257356,1712190246680,1515255,0
1712190257356,1712190246719,1516826,0
1712190257356,1712190246759,1518881,0
1712190257356,1712190246800,1520889,0
1712190257356,1712190246840,1522815,0
1712190257356,1712190246880,1524672,0
1712190257356,1712190246920,1527037,0
1712190257356,1712190246960,1528763,0
1712190257356,1712190247000,1526145,0
1712190257356,1712190247040,1520161,0
1712190257356,1712190247081,1515689,0
1712190257356,1712190247120,1514720,0
1712190257356,1712190247161,1515370,0
1712190257356,1712190247200,1516707,0
1712190257356,1712190247241,1517527,0
1712190257356,1712190247281,1517418,0
1712190257356,1712190247321,1517496,0
1712190257356,1712190247361,1518750,0
1712190257356,1712190247401,1520883,0
1712190257356,1712190247441,1523387,0
1712190257356,1712190247482,1525570,0
1712190257356,1712190247522,1527768,0
1712190257356,1712190247561,1529882,0
1712190257356,1712190247601,1532170,0
1712190257356,1712190247642,1533019,0
1712190257356,1712190247682,1528616,0
1712190257356,1712190247722,1521802,0
1712190257356,1712190247762,1517644,0
1712190257356,1712190247802,1516668,0
1712190257356,1712190247842,1516697,0
1712190257356,1712190247883,1517219,0
1712190257356,1712190247922,1517384,0
1712190257356,1712190247962,1517074,0
1712190257356,1712190248003,1517246,0
1712190257356,1712190248043,1518369,0
1712190257356,1712190248083,1520354,0
1712190257356,1712190248123,1522550,0
1712190257356,1712190248163,1524615,0
1712190257356,1712190248203,1526479,0
1712190257356,1712190248243,1528350,0
1712190257356,1712190248284,1530587,0
1712190257356,1712190248323,1530951,0
1712190257356,1712190248363,1526404,0
1712190257356,1712190248403,1519760,0
1712190257356,1712190248444,1516137,0
1712190257356,1712190248484,1515172,0
1712190257356,1712190248524,1515073,0
1712190257356,1712190248564,1515817,0
1712190257356,1712190248604,1516200,0
1712190257356,1712190248644,1515973,0
1712190257356,1712190248685,1516403,0
1712190257356,1712190248724,1517721,0
1712190257356,1712190248764,1519675,0
1712190257356,1712190248805,1522021,0
1712190257356,1712190248845,1524058,0
1712190257356,1712190248885,1525923,0
1712190257356,1712190248925,1527893,0
1712190257356,1712190248965,1530075,0
1712190257356,1712190249005,1531196,0
1712190257356,1712190249045,1527055,0
1712190257356,1712190249086,1520807,0
1712190257356,1712190249125,1517013,0
1712190257356,1712190249166,1516289,0
1712190257356,1712190249206,1516343,0
1712190257356,1712190249246,1517302,0
1712190257356,1712190249287,1517837,0
1712190257356,1712190249326,1517937,0
1712190257356,1712190249366,1518322,0
1712190257356,1712190249406,1519619,0
1712190257356,1712190249446,1521814,0
1712190257356,1712190249487,1524103,0
1712190257356,1712190249526,1526146,0
1712190257356,1712190249567,1528265,0
1712190257356,1712190249607,1530192,0
1712190257356,1712190249647,1532590,0
1712190257356,1712190249688,1534254,0
1712190257356,1712190249727,1531505,0
1712190257356,1712190249767,1525953,0
1712190257356,1712190249808,1522158,0
1712190257356,1712190249847,1521208,0
1712190257356,1712190249888,1521673,0
1712190257356,1712190249928,1522687,0
1712190257356,1712190249968,1523165,0
1712190257356,1712190250008,1522989,0
1712190257356,1712190250048,1522939,0
1712190257356,1712190250089,1524097,0
1712190257356,1712190250128,1525987,0
1712190257356,1712190250169,1527997,0
1712190257356,1712190250209,1529923,0
1712190257356,1712190250249,1531819,0
1712190257356,1712190250290,1534015,0
1712190257356,1712190250329,1536332,0
1712190257356,1712190250369,1537292,0
1712190257356,1712190250409,1533800,0
1712190257356,1712190250449,1528435,0
1712190257356,1712190250490,1525536,0
1712190257356,1712190250530,1525347,0
1712190257356,1712190250570,1526265,0
1712190257356,1712190250610,1527558,0
1712190257356,1712190250650,1528354,0
1712190257356,1712190250691,1528575,0
1712190257356,1712190250730,1529214,0
1712190257356,1712190250770,1530878,0
1712190257356,1712190250810,1533222,0
1712190257356,1712190250850,1535614,0
1712190257356,1712190250891,1537814,0
1712190257356,1712190250931,1539894,0
1712190257356,1712190250971,1542306,0
1712190257356,1712190251011,1544732,0
1712190257356,1712190251051,1544662,0
1712190257356,1712190251092,1539915,0
1712190257356,1712190251132,1534322,0
1712190257356,1712190251171,1531350,0
1712190257356,1712190251212,1530529,0
1712190257356,1712190251252,1530395,0
1712190257356,1712190251293,1530942,0
1712190257356,1712190251332,1531062,0
1712190257356,1712190251372,1530822,0
1712190257356,1712190251412,1531223,0
1712190257356,1712190251452,1532369,0
1712190257356,1712190251493,1534316,0
1712190257356,1712190251533,1536179,0
1712190257356,1712190251573,1538011,0
1712190257356,1712190251613,1539859,0
1712190257356,1712190251653,1541735,0
1712190257356,1712190251694,1543901,0
1712190257356,1712190251733,1544993,0
1712190257356,1712190251774,1541317,0
1712190257356,1712190251814,1535166,0
1712190257356,1712190251854,1530811,0
1712190257356,1712190251895,1529303,0
1712190257356,1712190251934,1528798,0
1712190257356,1712190251974,1529223,0
1712190257356,1712190252014,1529486,0
1712190257356,1712190252054,1529494,0
1712190257356,1712190252095,1529633,0
1712190257356,1712190252135,1530628,0
1712190257356,1712190252175,1532262,0
1712190257356,1712190252215,1534395,0
1712190257356,1712190252255,1536329,0
1712190257356,1712190252296,1538092,0
1712190257356,1712190252338,1539982,0
1712190257356,1712190252375,1541941,0
1712190257356,1712190252415,1544112,0
1712190257356,1712190252456,1544363,0
1712190257356,1712190252496,1539735,0
1712190257356,1712190252536,1533789,0
1712190257356,1712190252576,1530665,0
1712190257356,1712190252616,1529758,0
1712190257356,1712190252656,1529978,0
1712190257356,1712190252697,1530624,0
1712190257356,1712190252736,1531051,0
1712190257356,1712190252776,1530894,0
1712190257356,1712190252816,1531243,0
1712190257356,1712190252856,1532494,0
1712190257356,1712190252897,1534539,0
1712190257356,1712190252937,1536497,0
1712190257356,1712190252977,1538284,0
1712190257356,1712190253017,1540019,0
1712190257356,1712190253057,1541737,0
1712190257356,1712190253098,1544013,0
1712190257356,1712190253137,1545866,0
1712190257356,1712190253177,1544776,0
1712190257356,1712190253217,1539563,0
1712190257356,1712190253257,1534333,0
1712190257356,1712190253298,1532267,0
1712190257356,1712190253337,1532356,0
1712190257356,1712190253378,1532905,0
1712190257356,1712190253418,1533664,0
1712190257356,1712190253458,1533870,0
1712190257356,1712190253499,1533708,0
1712190257356,1712190253538,1534329,0
1712190257356,1712190253578,1535810,0
1712190257356,1712190253618,1538038,0
1712190257356,1712190253658,1539957,0
1712190257356,1712190253699,1541885,0
1712190257356,1712190253739,1543643,0
1712190257356,1712190253779,1545907,0
1712190257356,1712190253819,1548026,0
1712190257356,1712190253859,1549008,0
1712190257356,1712190253900,1545591,0
1712190257356,1712190253939,1540128,0
1712190257356,1712190253979,1536772,0
1712190257356,1712190254019,1536289,0
1712190257356,1712190254059,1537338,0
1712190257356,1712190254100,1538381,0
1712190257356,1712190254140,1538794,0
1712190257356,1712190254180,1538385,0
1712190257356,1712190254220,1538472,0
1712190257356,1712190254260,1539654,0
1712190257356,1712190254301,1541500,0
1712190257356,1712190254340,1543568,0
1712190257356,1712190254380,1545452,0
1712190257356,1712190254420,1547173,0
1712190257356,1712190254460,1549077,0
1712190257356,1712190254501,1551375,0
1712190257356,1712190254543,1552632,0
1712190257356,1712190254581,1549192,0
1712190257356,1712190254621,1543308,0
1712190257356,1712190254661,1539554,0
1712190257356,1712190254702,1539003,0
1712190257356,1712190254741,1539574,0
1712190257356,1712190254781,1540758,0
1712190257356,1712190254821,1541226,0
1712190257356,1712190254862,1541020,0
1712190257356,1712190254902,1541208,0
1712190257356,1712190254941,1542356,0
1712190257356,1712190254982,1544246,0
1712190257356,1712190255022,1546612,0
1712190257356,1712190255062,1548598,0
1712190257356,1712190255103,1550491,0
1712190257356,1712190255142,1552332,0
1712190257356,1712190255182,1554372,0
1712190257356,1712190255222,1555557,0
1712190257356,1712190255262,1551860,0
1712190257356,1712190255303,1544995,0
1712190257356,1712190255343,1540123,0
1712190257356,1712190255383,1538399,0
1712190257356,1712190255423,1537844,0
1712190257356,1712190255463,1537931,0
1712190257356,1712190255504,1537800,0
1712190257356,1712190255543,1537267,0
1712190257356,1712190255583,1536730,0
1712190257356,1712190255623,1537225,0
1712190257356,1712190255663,1538656,0
1712190257356,1712190255704,1540427,0
1712190257356,1712190255744,1542094,0
1712190257356,1712190255784,1543685,0
1712190257356,1712190255824,1545287,0
1712190257356,1712190255864,1547107,0
1712190257356,1712190255905,1548563,0
1712190257356,1712190255944,1545564,0
1712190257356,1712190255984,1538633,0
1712190257356,1712190256024,1533313,0
1712190257356,1712190256065,1531086,0
1712190257356,1712190256105,1530276,0
1712190257356,1712190256145,1530305,0
1712190257356,1712190256185,1530452,0
1712190257356,1712190256225,1530166,0
1712190257356,1712190256265,1529814,0
1712190257356,1712190256306,1530354,0
1712190257356,1712190256345,1531949,0
1712190257356,1712190256385,1533594,0
1712190257356,1712190256426,1535388,0
1712190257356,1712190256466,1537090,0
1712190257356,1712190256506,1538807,0
1712190257356,1712190256546,1540554,0
1712190257356,1712190256586,1542404,0
1712190257356,1712190256626,1541129,0
1712190257356,1712190256666,1535174,0
1712190257356,1712190256707,1529182,0
1712190257356,1712190256749,1526412,0
1712190257356,1712190256787,1525715,0
1712190257356,1712190256827,1526036,0
1712190257356,1712190256867,1526428,0
1712190257356,1712190256908,1526493,0
1712190257356,1712190256947,1526219,0
1712190257356,1712190256987,1526776,0
1712190257356,1712190257027,1528113,0
1712190257356,1712190257067,1530133,0
1712190257356,1712190257108,1532099,0
1712190257356,1712190257148,1533890,0
1712190257356,1712190257188,1535820,0
1712190257356,1712190257228,1537961,0
1712190257356,1712190257268,1540087,0
1712190257356,1712190257309,1539778,0
1712190269408,1712190257351,1534940,0
1712190269408,1712190257391,1529349,0
1712190269408,1712190257431,1526796,0
1712190269408,1712190257472,1526549,0
1712190269408,1712190257513,1527431,0
1712190269408,1712190257552,1528326,0
1712190269408,1712190257592,1528312,0
1712190269408,1712190257632,1527852,0
1712190269408,1712190257672,1528390,0
1712190269408,1712190257713,1529802,0
1712190269408,1712190257753,1531926,0
1712190269408,1712190257793,1533885,0
1712190269408,1712190257833,1535911,0
1712190269408,1712190257873,1537885,0
1712190269408,1712190257914,1540049,0
1712190269408,1712190257953,1542169,0
1712190269408,1712190257994,1540626,0
1712190269408,1712190258034,1535455,0
1712190269408,1712190258074,1530927,0
1712190269408,1712190258115,1529789,0
1712190269408,1712190258154,1530306,0
1712190269408,1712190258194,1531782,0
1712190269408,1712190258235,1532963,0
1712190269408,1712190258275,1533360,0
1712190269408,1712190258315,1533606,0
1712190269408,1712190258355,1534658,0
1712190269408,1712190258395,1536582,0
1712190269408,1712190258435,1538974,0
1712190269408,1712190258475,1541036,0
1712190269408,1712190258516,1543020,0
1712190269408,1712190258556,1547340,0
1712190269408,1712190258596,1548878,0
1712190269408,1712190258636,1545808,0
1712190269408,1712190258676,1539497,0
1712190269408,1712190258717,1535109,0
1712190269408,1712190258756,1533508,0
1712190269408,1712190258796,1533012,0
1712190269408,1712190258836,1533412,0
1712190269408,1712190258876,1533765,0
1712190269408,1712190258917,1533570,0
1712190269408,1712190258957,1533651,0
1712190269408,1712190258996,1534320,0
1712190269408,1712190259037,1535928,0
1712190269408,1712190259077,1537907,0
1712190269408,1712190259117,1539932,0
1712190269408,1712190259157,1541518,0
1712190269408,1712190259197,1543428,0
1712190269408,1712190259237,1545303,0
1712190269408,1712190259277,1547066,0
1712190269408,1712190259318,1544851,0
1712190269408,1712190259357,1538948,0
1712190269408,1712190259398,1534055,0
1712190269408,1712190259438,1532107,0
1712190269408,1712190259478,1531467,0
1712190269408,1712190259518,1531616,0
1712190269408,1712190259558,1532135,0
1712190269408,1712190259598,1532126,0
1712190269408,1712190259638,1532226,0
1712190269408,1712190259678,1533007,0
1712190269408,1712190259719,1534625,0
1712190269408,1712190259758,1536498,0
1712190269408,1712190259799,1538508,0
1712190269408,1712190259838,1540166,0
1712190269408,1712190259879,1542005,0
1712190269408,1712190259920,1543998,0
1712190269408,1712190259959,1545980,0
1712190269408,1712190259999,1545043,0
1712190269408,1712190260039,1539738,0
1712190269408,1712190260079,1534431,0
1712190269408,1712190260120,1532231,0
1712190269408,1712190260160,1531485,0
1712190269408,1712190260199,1531790,0
1712190269408,1712190260240,1532387,0
1712190269408,1712190260280,1532449,0
1712190269408,1712190260321,1532294,0
1712190269408,1712190260360,1532863,0
1712190269408,1712190260400,1534495,0
1712190269408,1712190260440,1536274,0
1712190269408,1712190260480,1538434,0
1712190269408,1712190260521,1540389,0
1712190269408,1712190260561,1542239,0
1712190269408,1712190260601,1544366,0
1712190269408,1712190260641,1546548,0
1712190269408,1712190260681,1547665,0
1712190269408,1712190260722,1544364,0
1712190269408,1712190260761,1538913,0
1712190269408,1712190260801,1535875,0
1712190269408,1712190260841,1535262,0
1712190269408,1712190260882,1535803,0
1712190269408,1712190260922,1536796,0
1712190269408,1712190260962,1537357,0
1712190269408,1712190261002,1537098,0
1712190269408,1712190261042,1537314,0
1712190269408,1712190261082,1538514,0
1712190269408,1712190261123,1540343,0
1712190269408,1712190261162,1542343,0
1712190269408,1712190261202,1544111,0
1712190269408,1712190261243,1545867,0
1712190269408,1712190261283,1547781,0
1712190269408,1712190261323,1550030,0
1712190269408,1712190261363,1550964,0
1712190269408,1712190261403,1547907,0
1712190269408,1712190261443,1542928,0
1712190269408,1712190261483,1540329,0
1712190269408,1712190261524,1539957,0
1712190269408,1712190261563,1541115,0
1712190269408,1712190261603,1542546,0
1712190269408,1712190261643,1543241,0
1712190269408,1712190261684,1543475,0
1712190269408,1712190261724,1544163,0
1712190269408,1712190261764,1546114,0
1712190269408,1712190261804,1548632,0
1712190269408,1712190261844,1551040,0
1712190269408,1712190261884,1553462,0
1712190269408,1712190261925,1555669,0
1712190269408,1712190261964,1557962,0
1712190269408,1712190262004,1560156,0
1712190269408,1712190262044,1560251,0
1712190269408,1712190262085,1556020,0
1712190269408,1712190262125,1550467,0
1712190269408,1712190262165,1547639,0
1712190269408,1712190262205,1546933,0
1712190269408,1712190262245,1547105,0
1712190269408,1712190262285,1547446,0
1712190269408,1712190262326,1547603,0
1712190269408,1712190262365,1547121,0
1712190269408,1712190262406,1547480,0
1712190269408,1712190262446,1548726,0
1712190269408,1712190262486,1550580,0
1712190269408,1712190262527,1552272,0
1712190269408,1712190262566,1553833,0
1712190269408,1712190262606,1555562,0
1712190269408,1712190262646,1557313,0
1712190269408,1712190262687,1559225,0
1712190269408,1712190262727,1558778,0
1712190269408,1712190262767,1553940,0
1712190269408,1712190262807,1548364,0
1712190269408,1712190262847,1545708,0
1712190269408,1712190262887,1544592,0
1712190269408,1712190262928,1544706,0
1712190269408,1712190262967,1545073,0
1712190269408,1712190263007,1545289,0
1712190269408,1712190263048,1544920,0
1712190269408,1712190263088,1545235,0
1712190269408,1712190263129,1546404,0
1712190269408,1712190263168,1548131,0
1712190269408,1712190263208,1549855,0
1712190269408,1712190263248,1551527,0
1712190269408,1712190263289,1553292,0
1712190269408,1712190263329,1555065,0
1712190269408,1712190263369,1556997,0
1712190269408,1712190263409,1556134,0
1712190269408,1712190263449,1550771,0
1712190269408,1712190263489,1545281,0
1712190269408,1712190263530,1542575,0
1712190269408,1712190263569,1541916,0
1712190269408,1712190263609,1541907,0
