dataReceived,timestamp,ppg,status
1712226201044,1712226188896,2097152,0
1712226201044,1712226188939,2081853,0
1712226201044,1712226188977,2075758,0
1712226201044,1712226189016,2075943,0
1712226201044,1712226189056,2077598,0
1712226201044,1712226189097,2078205,0
1712226201044,1712226189137,2079850,0
1712226201044,1712226189178,2082117,0
1712226201044,1712226189217,2083344,0
1712226201044,1712226189257,2084425,0
1712226201044,1712226189297,2073973,0
1712226201044,1712226189337,2075967,0
1712226201044,1712226189378,2075671,0
1712226201044,1712226189417,2075087,0
1712226201044,1712226189457,2073879,0
1712226201044,1712226189498,2076146,0
1712226201044,1712226189538,2074724,0
1712226201044,1712226189579,2073608,0
1712226201044,1712226189618,2073292,0
1712226201044,1712226189658,2072835,0
1712226201044,1712226189698,2081179,0
1712226201044,1712226189738,2081202,0
1712226201044,1712226189779,2081041,0
1712226201044,1712226189818,2081074,0
1712226201044,1712226189858,2080600,0
1712226201044,1712226189898,2079854,0
1712226201044,1712226189938,2080025,0
1712226201044,1712226189979,2080151,0
1712226201044,1712226190019,2079916,0
1712226201044,1712226190059,2079994,0
1712226201044,1712226190099,2080344,0
1712226201044,1712226190139,2080015,0
1712226201044,1712226190180,2080018,0
1712226201044,1712226190219,2079866,0
1712226201044,1712226190259,2080087,0
1712226201044,1712226190299,2080867,0
1712226201044,1712226190339,2082566,0
1712226201044,1712226190380,2083939,0
1712226201044,1712226190420,2084348,0
1712226201044,1712226190459,2084964,0
1712226201044,1712226190499,2089514,0
1712226201044,1712226190540,2110481,0
1712226201044,1712226190581,2197754,0
1712226201044,1712226190620,2325063,0
1712226201044,1712226190660,2405965,0
1712226201044,1712226190700,2409471,0
1712226201044,1712226190740,2751098,0
1712226201044,1712226190781,2910926,0
1712226201044,1712226190820,2756211,0
1712226201044,1712226190860,2725268,0
1712226201044,1712226190901,2716453,0
1712226201044,1712226190941,2678327,0
1712226201044,1712226190982,2626272,0
1712226201044,1712226191021,3022500,0
1712226201044,1712226191061,3832645,0
1712226201044,1712226191101,3455909,0
1712226201044,1712226191144,2970733,0
1712226201044,1712226191182,3190017,0
1712226201044,1712226191221,2992933,0
1712226201044,1712226191261,2997445,0
1712226201044,1712226191301,3409222,0
1712226201044,1712226191341,3370410,0
1712226201044,1712226191382,4183331,0
1712226201044,1712226191422,4181844,0
1712226201044,1712226191462,4182551,0
1712226201044,1712226191502,4182274,0
1712226201044,1712226191542,4180599,0
1712226201044,1712226191583,4181552,0
1712226201044,1712226191622,4179633,0
1712226201044,1712226191662,4182747,0
1712226201044,1712226191702,4194465,0
1712226201044,1712226191743,4194735,0
1712226201044,1712226191783,4181337,0
1712226201044,1712226191823,4173907,0
1712226201044,1712226191863,4158407,0
1712226201044,1712226191903,4166302,0
1712226201044,1712226191943,4171027,0
1712226201044,1712226191984,4165868,0
1712226201044,1712226192023,4164666,0
1712226201044,1712226192063,4163363,0
1712226201044,1712226192104,4163583,0
1712226201044,1712226192144,4165279,0
1712226201044,1712226192184,4164778,0
1712226201044,1712226192224,4166664,0
1712226201044,1712226192264,4172198,0
1712226201044,1712226192304,4172641,0
1712226201044,1712226192344,4173592,0
1712226201044,1712226192385,4175578,0
1712226201044,1712226192424,4171044,0
1712226201044,1712226192465,4167385,0
1712226201044,1712226192505,4166056,0
1712226201044,1712226192545,4165250,0
1712226201044,1712226192586,4018275,0
1712226201044,1712226192625,3676046,0
1712226201044,1712226192665,3636649,0
1712226201044,1712226192705,4190539,0
1712226201044,1712226192745,4168094,0
1712226201044,1712226192786,4172735,0
1712226201044,1712226192825,4175605,0
1712226201044,1712226192865,4176148,0
1712226201044,1712226192906,4176154,0
1712226201044,1712226192946,4175794,0
1712226201044,1712226192986,4175438,0
1712226201044,1712226193026,4174931,0
1712226201044,1712226193066,4173622,0
1712226201044,1712226193106,4172407,0
1712226201044,1712226193146,4174800,0
1712226201044,1712226193187,4174957,0
1712226201044,1712226193226,4173893,0
1712226201044,1712226193266,4179257,0
1712226201044,1712226193307,4176012,0
1712226201044,1712226193349,4172438,0
1712226201044,1712226193387,4179432,0
1712226201044,1712226193427,4171810,0
1712226201044,1712226193467,4172003,0
1712226201044,1712226193507,4167666,0
1712226201044,1712226193547,4176446,0
1712226201044,1712226193588,4180366,0
1712226201044,1712226193628,4177548,0
1712226201044,1712226193668,4170971,0
1712226201044,1712226193708,4189184,0
1712226201044,1712226193748,4126355,0
1712226201044,1712226193789,3840192,0
1712226201044,1712226193828,3844003,0
1712226201044,1712226193868,3857041,0
1712226201044,1712226193908,3861783,0
1712226201044,1712226193948,3861052,0
1712226201044,1712226193989,3854132,0
1712226201044,1712226194029,3837821,0
1712226201044,1712226194069,4193268,0
1712226201044,1712226194109,4170108,0
1712226201044,1712226194149,4162431,0
1712226201044,1712226194190,4091642,0
1712226201044,1712226194229,4188886,0
1712226201044,1712226194269,4163221,0
1712226201044,1712226194309,4159695,0
1712226201044,1712226194350,4178720,0
1712226201044,1712226194390,4177505,0
1712226201044,1712226194430,4175112,0
1712226201044,1712226194470,4176284,0
1712226201044,1712226194510,4183263,0
1712226201044,1712226194550,4026154,0
1712226201044,1712226194591,3973187,0
1712226201044,1712226194631,4009554,0
1712226201044,1712226194670,4049439,0
1712226201044,1712226194711,4077534,0
1712226201044,1712226194751,4099991,0
1712226201044,1712226194791,4120359,0
1712226201044,1712226194831,4135363,0
1712226201044,1712226194871,4145395,0
1712226201044,1712226194911,4159882,0
1712226201044,1712226194951,4179592,0
1712226201044,1712226194992,4191280,0
1712226201044,1712226195032,4195277,0
1712226201044,1712226195072,4195215,0
1712226201044,1712226195112,4195192,0
1712226201044,1712226195152,4195251,0
1712226201044,1712226195193,4195234,0
1712226201044,1712226195232,4195288,0
1712226201044,1712226195272,4195221,0
1712226201044,1712226195312,4195287,0
1712226201044,1712226195353,4195207,0
1712226201044,1712226195393,4195265,0
1712226201044,1712226195433,4195253,0
1712226201044,1712226195473,4195254,0
1712226201044,1712226195514,4195289,0
1712226201044,1712226195555,4195239,0
1712226201044,1712226195596,4195303,0
1712226201044,1712226195635,4195288,0
1712226201044,1712226195675,4195352,0
1712226201044,1712226195716,4195345,0
1712226201044,1712226195756,4195322,0
1712226201044,1712226195797,4195272,0
1712226201044,1712226195837,4195360,0
1712226201044,1712226195877,4195284,0
1712226201044,1712226195918,4195252,0
1712226201044,1712226195958,4195261,0
1712226201044,1712226195999,4195259,0
1712226201044,1712226196038,4195288,0
1712226201044,1712226196078,4195296,0
1712226201044,1712226196118,4195272,0
1712226201044,1712226196159,4195268,0
1712226201044,1712226196200,4195246,0
1712226201044,1712226196239,4195253,0
1712226201044,1712226196279,4195213,0
1712226201044,1712226196319,4195205,0
1712226201044,1712226196359,4195214,0
1712226201044,1712226196400,4195252,0
1712226201044,1712226196440,4195297,0
1712226201044,1712226196480,4195293,0
1712226201044,1712226196520,4195258,0
1712226201044,1712226196561,4195244,0
1712226201044,1712226196601,4195303,0
1712226201044,1712226196641,4195261,0
1712226201044,1712226196681,4195291,0
1712226201044,1712226196721,4195287,0
1712226201044,1712226196761,4195275,0
1712226201044,1712226196802,4195346,0
1712226201044,1712226196842,4195255,0
1712226201044,1712226196882,4195281,0
1712226201044,1712226196922,4195337,0
1712226201044,1712226196963,4195277,0
1712226201044,1712226197004,4195299,0
1712226201044,1712226197046,4195281,0
1712226201044,1712226197086,4195316,0
1712226201044,1712226197127,4195258,0
1712226201044,1712226197167,4195311,0
1712226201044,1712226197208,4195275,0
1712226201044,1712226197247,4195224,0
1712226201044,1712226197288,4195319,0
1712226201044,1712226197328,4195301,0
1712226201044,1712226197368,4195247,0
1712226201044,1712226197409,4195279,0
1712226201044,1712226197449,4195279,0
1712226201044,1712226197489,4195302,0
1712226201044,1712226197529,4195303,0
1712226201044,1712226197570,4195254,0
1712226201044,1712226197611,4195294,0
1712226201044,1712226197650,4195283,0
1712226201044,1712226197690,4195328,0
1712226201044,1712226197731,4195295,0
1712226201044,1712226197771,4195251,0
1712226201044,1712226197813,2467839,0
1712226201044,1712226197853,2466907,0
1712226201044,1712226197893,2465380,0
1712226201044,1712226197933,2463866,0
1712226201044,1712226197973,2465671,0
1712226201044,1712226198014,2465088,0
1712226201044,1712226198054,2456507,0
1712226201044,1712226198094,2451771,0
1712226201044,1712226198135,2443901,0
1712226201044,1712226198175,2437283,0
1712226201044,1712226198216,2124557,0
1712226201044,1712226198255,2125878,0
1712226201044,1712226198295,2124368,0
1712226201044,1712226198335,2117373,0
1712226201044,1712226198376,2107941,0
1712226201044,1712226198417,2011211,0
1712226201044,1712226198456,1991750,0
1712226201044,1712226198496,2022157,0
1712226201044,1712226198536,2026581,0
1712226201044,1712226198577,2042388,0
1712226201044,1712226198618,2228888,0
1712226201044,1712226198657,2231188,0
1712226201044,1712226198697,2236562,0
1712226201044,1712226198737,2243126,0
1712226201044,1712226198777,2251943,0
1712226201044,1712226198818,2095803,0
1712226201044,1712226198857,2098856,0
1712226201044,1712226198897,2099893,0
1712226201044,1712226198938,2094560,0
1712226201044,1712226198978,2138729,0
1712226201044,1712226199019,2132337,0
1712226201044,1712226199058,2134523,0
1712226201044,1712226199098,2102655,0
1712226201044,1712226199138,2061058,0
1712226201044,1712226199179,2064039,0
1712226201044,1712226199220,2065530,0
1712226201044,1712226199259,2088786,0
1712226201044,1712226199299,2105473,0
1712226201044,1712226199339,2117166,0
1712226201044,1712226199380,2131964,0
1712226201044,1712226199421,2144896,0
1712226201044,1712226199460,2151058,0
1712226201044,1712226199500,2146300,0
1712226201044,1712226199540,2137514,0
1712226201044,1712226199581,2131376,0
1712226201044,1712226199622,2128077,0
1712226201044,1712226199661,2130149,0
1712226201044,1712226199701,2132248,0
1712226201044,1712226199741,2138323,0
1712226201044,1712226199782,2149840,0
1712226201044,1712226199823,2156775,0
1712226201044,1712226199862,2164188,0
1712226201044,1712226199902,2172399,0
1712226201044,1712226199943,2179569,0
1712226201044,1712226199983,2182810,0
1712226201044,1712226200024,2189282,0
1712226201044,1712226200064,2192669,0
1712226201044,1712226200104,2194643,0
1712226201044,1712226200144,2200855,0
1712226201044,1712226200184,2198954,0
1712226201044,1712226200225,2201210,0
1712226201044,1712226200265,2195820,0
1712226201044,1712226200306,2195610,0
1712226201044,1712226200346,2194177,0
1712226201044,1712226200387,2193845,0
1712226201044,1712226200428,2194513,0
1712226201044,1712226200467,2192322,0
1712226201044,1712226200508,2194877,0
1712226201044,1712226200548,2197720,0
1712226201044,1712226200588,2197505,0
1712226201044,1712226200629,2200613,0
1712226201044,1712226200669,2204079,0
1712226201044,1712226200709,2206296,0
1712226201044,1712226200749,2208378,0
1712226201044,1712226200790,2210355,0
1712226201044,1712226200832,2211097,0
1712226201044,1712226200871,2210559,0
1712226201044,1712226200912,2208499,0
1712226212938,1712226200951,2206878,0
1712226212938,1712226200990,2205661,0
1712226212938,1712226201029,2205713,0
1712226212938,1712226201068,2205587,0
1712226212938,1712226201107,2206232,0
1712226212938,1712226201146,2207162,0
1712226212938,1712226201185,2207043,0
1712226212938,1712226201224,2206845,0
1712226212938,1712226201263,2205422,0
1712226212938,1712226201302,2203209,0
1712226212938,1712226201341,2200305,0
1712226212938,1712226201380,2198636,0
1712226212938,1712226201419,2199319,0
1712226212938,1712226201458,2197745,0
1712226212938,1712226201497,2197060,0
1712226212938,1712226201536,2198437,0
1712226212938,1712226201575,2199618,0
1712226212938,1712226201614,2199864,0
1712226212938,1712226201653,2199091,0
1712226212938,1712226201692,2197476,0
1712226212938,1712226201731,2195449,0
1712226212938,1712226201770,2194184,0
1712226212938,1712226201809,2193111,0
1712226212938,1712226201848,2192641,0
1712226212938,1712226201887,2192845,0
1712226212938,1712226201926,2192515,0
1712226212938,1712226201965,2192085,0
1712226212938,1712226202004,2190290,0
1712226212938,1712226202044,2186373,0
1712226212938,1712226202084,2184177,0
1712226212938,1712226202124,2182304,0
1712226212938,1712226202164,2180500,0
1712226212938,1712226202204,2178492,0
1712226212938,1712226202244,2177661,0
1712226212938,1712226202284,2175710,0
1712226212938,1712226202324,2178501,0
1712226212938,1712226202364,2179273,0
1712226212938,1712226202404,2183122,0
1712226212938,1712226202444,2188891,0
1712226212938,1712226202484,2188058,0
1712226212938,1712226202524,2185894,0
1712226212938,1712226202564,2189142,0
1712226212938,1712226202604,2203202,0
1712226212938,1712226202644,2313342,0
1712226212938,1712226202684,2494898,0
1712226212938,1712226202724,2536092,0
1712226212938,1712226202764,2422929,0
1712226212938,1712226202804,2357661,0
1712226212938,1712226202844,2333128,0
1712226212938,1712226202884,2323896,0
1712226212938,1712226202924,2327042,0
1712226212938,1712226202964,2326613,0
1712226212938,1712226203004,2326733,0
1712226212938,1712226203044,2327808,0
1712226212938,1712226203084,2329391,0
1712226212938,1712226203124,2331740,0
1712226212938,1712226203164,2333493,0
1712226212938,1712226203204,2335434,0
1712226212938,1712226203244,2337403,0
1712226212938,1712226203284,2338935,0
1712226212938,1712226203324,2349087,0
1712226212938,1712226203364,2353480,0
1712226212938,1712226203404,2357395,0
1712226212938,1712226203444,2359979,0
1712226212938,1712226203484,2364545,0
1712226212938,1712226203524,2367352,0
1712226212938,1712226203564,2369011,0
1712226212938,1712226203604,2373100,0
1712226212938,1712226203644,2374929,0
1712226212938,1712226203684,2376020,0
1712226212938,1712226203724,2377348,0
1712226212938,1712226203764,2377310,0
1712226212938,1712226203804,2377890,0
1712226212938,1712226203844,2378843,0
1712226212938,1712226203884,2379584,0
1712226212938,1712226203924,2380625,0
1712226212938,1712226203964,2381659,0
1712226212938,1712226204004,2382582,0
1712226212938,1712226204044,2383281,0
1712226212938,1712226204084,2385067,0
1712226212938,1712226204124,2385683,0
1712226212938,1712226204164,2387183,0
1712226212938,1712226204204,2387323,0
1712226212938,1712226204244,2387073,0
1712226212938,1712226204284,2386613,0
1712226212938,1712226204324,2382826,0
1712226212938,1712226204364,2373314,0
1712226212938,1712226204404,2368544,0
1712226212938,1712226204444,2379269,0
1712226212938,1712226204484,2378405,0
1712226212938,1712226204524,2376096,0
1712226212938,1712226204564,2375168,0
1712226212938,1712226204604,2378709,0
1712226212938,1712226204644,2379734,0
1712226212938,1712226204684,2382949,0
1712226212938,1712226204724,2383047,0
1712226212938,1712226204764,2383576,0
1712226212938,1712226204804,2386124,0
1712226212938,1712226204844,2383566,0
1712226212938,1712226204884,2383100,0
1712226212938,1712226204924,2383076,0
1712226212938,1712226204964,2381917,0
1712226212938,1712226205004,2381178,0
1712226212938,1712226205044,2380896,0
1712226212938,1712226205084,2381024,0
1712226212938,1712226205124,2380478,0
1712226212938,1712226205164,2379401,0
1712226212938,1712226205204,2379104,0
1712226212938,1712226205244,2376994,0
1712226212938,1712226205284,2376136,0
1712226212938,1712226205324,2374898,0
1712226212938,1712226205364,2375302,0
1712226212938,1712226205404,2375835,0
1712226212938,1712226205444,2365072,0
1712226212938,1712226205484,2379807,0
1712226212938,1712226205524,2396090,0
1712226212938,1712226205564,2585360,0
1712226212938,1712226205604,2618633,0
1712226212938,1712226205644,2727585,0
1712226212938,1712226205684,2771719,0
1712226212938,1712226205724,2990293,0
1712226212938,1712226205764,3392043,0
1712226212938,1712226205804,3570121,0
1712226212938,1712226205844,3833110,0
1712226212938,1712226205884,3528725,0
1712226212938,1712226205924,2572124,0
1712226212938,1712226205964,2344360,0
1712226212938,1712226206004,2302685,0
1712226212938,1712226206044,2292334,0
1712226212938,1712226206084,2287431,0
1712226212938,1712226206124,2282508,0
1712226212938,1712226206164,2278331,0
1712226212938,1712226206204,2274471,0
1712226212938,1712226206244,2268483,0
1712226212938,1712226206284,2264268,0
1712226212938,1712226206324,2260336,0
1712226212938,1712226206364,2262677,0
1712226212938,1712226206404,2266454,0
1712226212938,1712226206444,2269380,0
1712226212938,1712226206484,2267272,0
1712226212938,1712226206524,2264789,0
1712226212938,1712226206564,2259010,0
1712226212938,1712226206604,2269122,0
1712226212938,1712226206644,2269100,0
1712226212938,1712226206684,2273802,0
1712226212938,1712226206724,2303148,0
1712226212938,1712226206764,2319720,0
1712226212938,1712226206804,2341427,0
1712226212938,1712226206844,2402546,0
1712226212938,1712226206884,2482817,0
1712226212938,1712226206924,2451509,0
1712226212938,1712226206964,2284226,0
1712226212938,1712226207004,2217875,0
1712226212938,1712226207044,2034719,0
1712226212938,1712226207084,2106599,0
1712226212938,1712226207124,2139181,0
1712226212938,1712226207164,4181749,0
1712226212938,1712226207204,4188468,0
1712226212938,1712226207244,4188184,0
1712226212938,1712226207284,4185158,0
1712226212938,1712226207324,4188921,0
1712226212938,1712226207364,4190274,0
1712226212938,1712226207404,3622469,0
1712226212938,1712226207444,2646947,0
1712226212938,1712226207484,2019489,0
1712226212938,1712226207524,1653331,0
1712226212938,1712226207564,1593828,0
1712226212938,1712226207604,1646422,0
1712226212938,1712226207644,1511491,0
1712226212938,1712226207684,1922061,0
1712226212938,1712226207724,2751622,0
1712226212938,1712226207764,3231621,0
1712226212938,1712226207804,3112083,0
1712226212938,1712226207844,3412656,0
1712226212938,1712226207884,3636168,0
1712226212938,1712226207924,2802043,0
1712226212938,1712226207964,2625517,0
1712226212938,1712226208004,2370631,0
1712226212938,1712226208044,2197861,0
1712226212938,1712226208084,2392573,0
1712226212938,1712226208124,2842089,0
1712226212938,1712226208164,3285435,0
1712226212938,1712226208204,3316849,0
1712226212938,1712226208244,3641812,0
1712226212938,1712226208284,3856573,0
1712226212938,1712226208324,4190520,0
1712226212938,1712226208364,4190439,0
1712226212938,1712226208404,4190246,0
1712226212938,1712226208444,4190080,0
1712226212938,1712226208484,4188565,0
1712226212938,1712226208524,4190032,0
1712226212938,1712226208564,4188176,0
1712226212938,1712226208604,4181809,0
1712226212938,1712226208644,4183107,0
1712226212938,1712226208684,4186205,0
1712226212938,1712226208724,4184283,0
1712226212938,1712226208764,4180456,0
1712226212938,1712226208804,4180103,0
1712226212938,1712226208844,4179447,0
1712226212938,1712226208884,4180181,0
1712226212938,1712226208924,4179122,0
1712226212938,1712226208964,4180306,0
1712226212938,1712226209004,4180676,0
1712226212938,1712226209044,4183473,0
1712226212938,1712226209084,4193676,0
1712226212938,1712226209124,4194601,0
1712226212938,1712226209164,2142756,0
1712226212938,1712226209204,2424210,0
1712226212938,1712226209244,4190456,0
1712226212938,1712226209284,4182800,0
1712226212938,1712226209324,4183649,0
1712226212938,1712226209364,4180439,0
1712226212938,1712226209404,4188535,0
1712226212938,1712226209444,4187894,0
1712226212938,1712226209484,4187368,0
1712226212938,1712226209524,4189139,0
1712226212938,1712226209564,4188320,0
1712226212938,1712226209604,4189319,0
1712226212938,1712226209644,4186160,0
1712226212938,1712226209684,4179733,0
1712226212938,1712226209724,4179495,0
1712226212938,1712226209764,4180387,0
1712226212938,1712226209804,4181034,0
1712226212938,1712226209844,4180340,0
1712226212938,1712226209884,4181188,0
1712226212938,1712226209924,4174985,0
1712226212938,1712226209964,3301465,0
1712226212938,1712226210004,4168306,0
1712226212938,1712226210044,4172419,0
1712226212938,1712226210084,4176600,0
1712226212938,1712226210124,4173927,0
1712226212938,1712226210164,4169353,0
1712226212938,1712226210204,4166228,0
1712226212938,1712226210244,2978048,0
1712226212938,1712226210284,2809846,0
1712226212938,1712226210324,1971017,0
1712226212938,1712226210364,1505989,0
1712226212938,1712226210404,1952340,0
1712226212938,1712226210444,3837630,0
1712226212938,1712226210484,4178746,0
1712226212938,1712226210524,4191032,0
1712226212938,1712226210564,4184477,0
1712226212938,1712226210604,2149700,0
1712226212938,1712226210644,3100417,0
1712226212938,1712226210684,4179940,0
1712226212938,1712226210724,4179436,0
1712226212938,1712226210764,4179903,0
1712226212938,1712226210804,4184811,0
1712226212938,1712226210844,2987180,0
1712226212938,1712226210884,4180285,0
1712226212938,1712226210924,4180839,0
1712226212938,1712226210964,4188047,0
1712226212938,1712226211004,3310838,0
1712226212938,1712226211044,3061652,0
1712226212938,1712226211084,3705467,0
1712226212938,1712226211124,4186893,0
1712226212938,1712226211164,4193046,0
1712226212938,1712226211204,1881889,0
1712226212938,1712226211244,1812876,0
1712226212938,1712226211284,1728087,0
1712226212938,1712226211324,1773690,0
1712226212938,1712226211364,1827596,0
1712226212938,1712226211404,1869669,0
1712226212938,1712226211444,1890507,0
1712226212938,1712226211484,1913697,0
1712226212938,1712226211524,1927335,0
1712226212938,1712226211564,1930137,0
1712226212938,1712226211604,1924911,0
1712226212938,1712226211644,1918604,0
1712226212938,1712226211684,1915095,0
1712226212938,1712226211724,1877104,0
1712226212938,1712226211764,1864488,0
1712226212938,1712226211804,1870463,0
1712226212938,1712226211844,1870128,0
1712226212938,1712226211884,1868310,0
1712226212938,1712226211924,1867363,0
1712226212938,1712226211964,1865539,0
1712226212938,1712226212004,1862521,0
1712226212938,1712226212044,1864210,0
1712226212938,1712226212084,1866710,0
1712226212938,1712226212124,1871530,0
1712226212938,1712226212164,1873517,0
1712226212938,1712226212204,1857097,0
1712226212938,1712226212244,2638038,0
1712226212938,1712226212284,4185941,0
1712226212938,1712226212324,4183250,0
1712226212938,1712226212364,4182353,0
1712226212938,1712226212404,4191281,0
1712226212938,1712226212444,4190437,0
1712226212938,1712226212484,4183675,0
1712226212938,1712226212524,4182331,0
1712226212938,1712226212564,4190007,0
1712226212938,1712226212604,4186755,0
1712226212938,1712226212644,4183926,0
1712226212938,1712226212684,4181910,0
1712226212938,1712226212724,4182121,0
1712226212938,1712226212764,4182734,0
1712226212938,1712226212804,4183619,0
1712226212938,1712226212844,4184504,0
1712226212938,1712226212884,4185084,0
1712226225019,1712226212926,4185848,0
1712226225019,1712226212966,4186904,0
1712226225019,1712226213007,4185579,0
1712226225019,1712226213046,4185006,0
1712226225019,1712226213086,4187489,0
1712226225019,1712226213127,4191752,0
1712226225019,1712226213167,4194021,0
1712226225019,1712226213208,4194700,0
1712226225019,1712226213247,4194749,0
1712226225019,1712226213287,3978324,0
1712226225019,1712226213327,2790798,0
1712226225019,1712226213367,2590965,0
1712226225019,1712226213408,2596568,0
1712226225019,1712226213447,2618106,0
1712226225019,1712226213488,2636482,0
1712226225019,1712226213528,2669878,0
1712226225019,1712226213568,2690334,0
1712226225019,1712226213609,2710018,0
1712226225019,1712226213648,2724103,0
1712226225019,1712226213688,2741904,0
1712226225019,1712226213728,2751473,0
1712226225019,1712226213768,2773044,0
1712226225019,1712226213809,2813285,0
1712226225019,1712226213848,3015135,0
1712226225019,1712226213888,3277362,0
1712226225019,1712226213929,3641017,0
1712226225019,1712226213969,3672173,0
1712226225019,1712226214010,3967077,0
1712226225019,1712226214049,4195019,0
1712226225019,1712226214089,4194944,0
1712226225019,1712226214129,4139947,0
1712226225019,1712226214169,3953232,0
1712226225019,1712226214210,3881553,0
1712226225019,1712226214249,3959286,0
1712226225019,1712226214290,4194986,0
1712226225019,1712226214330,4194921,0
1712226225019,1712226214370,4194987,0
1712226225019,1712226214411,4194891,0
1712226225019,1712226214450,4194935,0
1712226225019,1712226214490,4194854,0
1712226225019,1712226214530,4194899,0
1712226225019,1712226214570,4194915,0
1712226225019,1712226214611,4194937,0
1712226225019,1712226214651,4194944,0
1712226225019,1712226214691,4194958,0
1712226225019,1712226214731,4195040,0
1712226225019,1712226214771,4195055,0
1712226225019,1712226214812,3856717,0
1712226225019,1712226214851,3084193,0
1712226225019,1712226214891,2726370,0
1712226225019,1712226214931,2576862,0
1712226225019,1712226214971,2514325,0
1712226225019,1712226215012,2472766,0
1712226225019,1712226215052,2451547,0
1712226225019,1712226215092,2441030,0
1712226225019,1712226215132,2439502,0
1712226225019,1712226215172,2441205,0
1712226225019,1712226215213,2439068,0
1712226225019,1712226215252,2440580,0
1712226225019,1712226215292,2437780,0
1712226225019,1712226215332,2444542,0
1712226225019,1712226215372,2443680,0
1712226225019,1712226215413,2455310,0
1712226225019,1712226215452,2462171,0
1712226225019,1712226215493,2457255,0
1712226225019,1712226215533,2451359,0
1712226225019,1712226215573,2425230,0
1712226225019,1712226215614,2405814,0
1712226225019,1712226215653,2393349,0
1712226225019,1712226215693,2392339,0
1712226225019,1712226215733,2391708,0
1712226225019,1712226215773,2393372,0
1712226225019,1712226215814,4193760,0
1712226225019,1712226215853,4190393,0
1712226225019,1712226215894,4192610,0
1712226225019,1712226215934,4194734,0
1712226225019,1712226215974,4190104,0
1712226225019,1712226216015,4178805,0
1712226225019,1712226216054,4182106,0
1712226225019,1712226216094,4187401,0
1712226225019,1712226216134,4184175,0
1712226225019,1712226216174,4194612,0
1712226225019,1712226216215,3857672,0
1712226225019,1712226216255,2714401,0
1712226225019,1712226216295,2420333,0
1712226225019,1712226216335,2230586,0
1712226225019,1712226216375,2131833,0
1712226225019,1712226216416,2262020,0
1712226225019,1712226216455,2436419,0
1712226225019,1712226216495,2607237,0
1712226225019,1712226216535,2755256,0
1712226225019,1712226216575,2858464,0
1712226225019,1712226216616,3103332,0
1712226225019,1712226216656,3171283,0
1712226225019,1712226216696,3183608,0
1712226225019,1712226216736,3313493,0
1712226225019,1712226216776,3006886,0
1712226225019,1712226216817,2628198,0
1712226225019,1712226216856,2835316,0
1712226225019,1712226216896,3278218,0
1712226225019,1712226216936,3697972,0
1712226225019,1712226216977,4195169,0
1712226225019,1712226217017,4194930,0
1712226225019,1712226217057,4194525,0
1712226225019,1712226217097,4193924,0
1712226225019,1712226217137,4193191,0
1712226225019,1712226217177,4191949,0
1712226225019,1712226217218,4192823,0
1712226225019,1712226217257,4194396,0
1712226225019,1712226217297,4194980,0
1712226225019,1712226217338,4195077,0
1712226225019,1712226217378,4195114,0
1712226225019,1712226217418,4195143,0
1712226225019,1712226217458,4195154,0
1712226225019,1712226217498,3985940,0
1712226225019,1712226217538,3844906,0
1712226225019,1712226217578,4195117,0
1712226225019,1712226217619,4195109,0
1712226225019,1712226217658,4194975,0
1712226225019,1712226217699,4195143,0
1712226225019,1712226217739,4195205,0
1712226225019,1712226217779,3794476,0
1712226225019,1712226217820,3456253,0
1712226225019,1712226217859,3501968,0
1712226225019,1712226217899,3959557,0
1712226225019,1712226217939,4195144,0
1712226225019,1712226217979,4195152,0
1712226225019,1712226218020,4195011,0
1712226225019,1712226218060,4186967,0
1712226225019,1712226218099,4186402,0
1712226225019,1712226218140,4185558,0
1712226225019,1712226218180,4190693,0
1712226225019,1712226218221,4192285,0
1712226225019,1712226218260,4194924,0
1712226225019,1712226218300,2657687,0
1712226225019,1712226218340,1869181,0
1712226225019,1712226218380,1717667,0
1712226225019,1712226218421,1731587,0
1712226225019,1712226218460,1848153,0
1712226225019,1712226218500,1996767,0
1712226225019,1712226218540,2036550,0
1712226225019,1712226218580,2022932,0
1712226225019,1712226218621,1986641,0
1712226225019,1712226218661,1988793,0
1712226225019,1712226218701,1991678,0
1712226225019,1712226218741,1993292,0
1712226225019,1712226218781,2007200,0
1712226225019,1712226218822,2009278,0
1712226225019,1712226218861,2023570,0
1712226225019,1712226218901,2097100,0
1712226225019,1712226218941,2362086,0
1712226225019,1712226218981,3739947,0
1712226225019,1712226219022,4191672,0
1712226225019,1712226219061,4189942,0
1712226225019,1712226219101,4188263,0
1712226225019,1712226219142,4190255,0
1712226225019,1712226219182,4193236,0
1712226225019,1712226219223,4189019,0
1712226225019,1712226219262,4186528,0
1712226225019,1712226219302,4193672,0
1712226225019,1712226219342,2151643,0
1712226225019,1712226219382,2115465,0
1712226225019,1712226219423,2114648,0
1712226225019,1712226219462,2098550,0
1712226225019,1712226219502,2055039,0
1712226225019,1712226219542,2045778,0
1712226225019,1712226219582,2059298,0
1712226225019,1712226219624,2074764,0
1712226225019,1712226219663,2088669,0
1712226225019,1712226219703,2100744,0
1712226225019,1712226219743,2103799,0
1712226225019,1712226219783,2095724,0
1712226225019,1712226219824,2226820,0
1712226225019,1712226219863,2241318,0
1712226225019,1712226219903,2229379,0
1712226225019,1712226219943,2245434,0
1712226225019,1712226219983,2265371,0
1712226225019,1712226220024,2278896,0
1712226225019,1712226220064,2287207,0
1712226225019,1712226220104,2285009,0
1712226225019,1712226220144,2297953,0
1712226225019,1712226220184,2297119,0
1712226225019,1712226220225,2295971,0
1712226225019,1712226220264,2298508,0
1712226225019,1712226220304,2307754,0
1712226225019,1712226220344,2316960,0
1712226225019,1712226220384,2318136,0
1712226225019,1712226220425,2324358,0
1712226225019,1712226220465,2326410,0
1712226225019,1712226220505,2323129,0
1712226225019,1712226220545,2338951,0
1712226225019,1712226220585,2345696,0
1712226225019,1712226220626,2345466,0
1712226225019,1712226220665,2352381,0
1712226225019,1712226220705,2339241,0
1712226225019,1712226220745,2312038,0
1712226225019,1712226220785,2288960,0
1712226225019,1712226220826,2276444,0
1712226225019,1712226220865,2272332,0
1712226225019,1712226220905,2266436,0
1712226225019,1712226220946,2270777,0
1712226225019,1712226220986,2273740,0
1712226225019,1712226221027,2270619,0
1712226225019,1712226221066,2274594,0
1712226225019,1712226221106,2271274,0
1712226225019,1712226221146,2270603,0
1712226225019,1712226221186,2215924,0
1712226225019,1712226221227,2323440,0
1712226225019,1712226221266,2603688,0
1712226225019,1712226221306,2341996,0
1712226225019,1712226221346,2401247,0
1712226225019,1712226221386,4002642,0
1712226225019,1712226221428,2437966,0
1712226225019,1712226221467,2343199,0
1712226225019,1712226221507,2329920,0
1712226225019,1712226221547,2340755,0
1712226225019,1712226221587,2340465,0
1712226225019,1712226221628,2342440,0
1712226225019,1712226221667,2374758,0
1712226225019,1712226221707,2347935,0
1712226225019,1712226221747,2361847,0
1712226225019,1712226221788,2364777,0
1712226225019,1712226221828,2394733,0
1712226225019,1712226221868,2469462,0
1712226225019,1712226221908,2500526,0
1712226225019,1712226221948,2456584,0
1712226225019,1712226221988,2428015,0
1712226225019,1712226222029,2416513,0
1712226225019,1712226222068,2355975,0
1712226225019,1712226222108,2343453,0
1712226225019,1712226222148,2360247,0
1712226225019,1712226222188,2375690,0
1712226225019,1712226222229,2363539,0
1712226225019,1712226222269,2324544,0
1712226225019,1712226222309,2311298,0
1712226225019,1712226222349,2297156,0
1712226225019,1712226222389,2268342,0
1712226225019,1712226222430,2270849,0
1712226225019,1712226222469,2272729,0
1712226225019,1712226222509,2343399,0
1712226225019,1712226222549,2164642,0
1712226225019,1712226222589,2136523,0
1712226225019,1712226222630,2126488,0
1712226225019,1712226222669,2208253,0
1712226225019,1712226222710,2240115,0
1712226225019,1712226222750,2251761,0
1712226225019,1712226222790,2919469,0
1712226225019,1712226222830,3621529,0
1712226225019,1712226222870,3429036,0
1712226225019,1712226222910,3106478,0
1712226225019,1712226222950,3845976,0
1712226225019,1712226222990,4183039,0
1712226225019,1712226223031,4180549,0
1712226225019,1712226223070,4188986,0
1712226225019,1712226223110,4188895,0
1712226225019,1712226223151,4187093,0
1712226225019,1712226223191,4189124,0
1712226225019,1712226223232,4189805,0
1712226225019,1712226223271,3810008,0
1712226225019,1712226223311,2165413,0
1712226225019,1712226223351,2382730,0
1712226225019,1712226223391,2215387,0
1712226225019,1712226223432,2271960,0
1712226225019,1712226223471,2699877,0
1712226225019,1712226223511,3572005,0
1712226225019,1712226223551,4174147,0
1712226225019,1712226223592,4186569,0
1712226225019,1712226223632,4184688,0
1712226225019,1712226223672,4184130,0
1712226225019,1712226223712,4185311,0
1712226225019,1712226223752,4184872,0
1712226225019,1712226223792,4180853,0
1712226225019,1712226223833,4175143,0
1712226225019,1712226223872,4174174,0
1712226225019,1712226223912,4183513,0
1712226225019,1712226223953,4181338,0
1712226225019,1712226223993,4173283,0
1712226225019,1712226224033,4173414,0
1712226225019,1712226224073,4174328,0
1712226225019,1712226224113,4175077,0
1712226225019,1712226224153,4175687,0
1712226225019,1712226224193,4177184,0
1712226225019,1712226224234,4176938,0
1712226225019,1712226224273,4176090,0
1712226225019,1712226224314,4175963,0
1712226225019,1712226224353,4175746,0
1712226225019,1712226224394,4177412,0
1712226225019,1712226224435,4180902,0
1712226225019,1712226224474,4184578,0
1712226225019,1712226224514,4184884,0
1712226225019,1712226224554,4186745,0
1712226225019,1712226224594,4185181,0
1712226225019,1712226224635,4179329,0
1712226225019,1712226224674,4179117,0
1712226225019,1712226224714,4177583,0
1712226225019,1712226224755,4175752,0
1712226225019,1712226224795,4178221,0
1712226225019,1712226224835,4183044,0
1712226225019,1712226224875,4183955,0
1712226225019,1712226224915,4184340,0
1712226237053,1712226224956,4183859,0
1712226237053,1712226224996,4183907,0
1712226237053,1712226225037,4183581,0
1712226237053,1712226225076,4181374,0
1712226237053,1712226225116,4179206,0
1712226237053,1712226225157,4177657,0
1712226237053,1712226225197,4176645,0
1712226237053,1712226225237,4177118,0
1712226237053,1712226225277,4177339,0
1712226237053,1712226225317,4179324,0
1712226237053,1712226225357,4186197,0
1712226237053,1712226225397,4183435,0
1712226237053,1712226225438,4178340,0
1712226237053,1712226225477,4176838,0
1712226237053,1712226225518,4176628,0
1712226237053,1712226225557,4177261,0
1712226237053,1712226225598,4177824,0
1712226237053,1712226225639,4176267,0
1712226237053,1712226225678,4176503,0
1712226237053,1712226225718,4176425,0
1712226237053,1712226225758,4176309,0
1712226237053,1712226225798,4176364,0
1712226237053,1712226225839,4176212,0
1712226237053,1712226225879,4174977,0
1712226237053,1712226225918,4174318,0
1712226237053,1712226225959,4173880,0
1712226237053,1712226225999,4173185,0
1712226237053,1712226226039,4172490,0
1712226237053,1712226226079,4172378,0
1712226237053,1712226226119,4172497,0
1712226237053,1712226226159,4172434,0
1712226237053,1712226226199,4172139,0
1712226237053,1712226226240,4172117,0
1712226237053,1712226226279,4172319,0
1712226237053,1712226226320,4172346,0
1712226237053,1712226226360,4172329,0
1712226237053,1712226226400,4175165,0
1712226237053,1712226226441,4178304,0
1712226237053,1712226226480,4176011,0
1712226237053,1712226226520,4172911,0
1712226237053,1712226226560,4173048,0
1712226237053,1712226226600,4172023,0
1712226237053,1712226226641,4178361,0
1712226237053,1712226226680,2513425,0
1712226237053,1712226226721,2584318,0
1712226237053,1712226226761,2574849,0
1712226237053,1712226226801,2679041,0
1712226237053,1712226226842,3279507,0
1712226237053,1712226226881,3086338,0
1712226237053,1712226226921,2491791,0
1712226237053,1712226226961,2481063,0
1712226237053,1712226227001,1704169,0
1712226237053,1712226227042,2892613,0
1712226237053,1712226227081,3469684,0
1712226237053,1712226227121,3242128,0
1712226237053,1712226227161,3224866,0
1712226237053,1712226227201,4189578,0
1712226237053,1712226227242,4189383,0
1712226237053,1712226227282,3369303,0
1712226237053,1712226227322,2809497,0
1712226237053,1712226227362,2497533,0
1712226237053,1712226227402,-6576,0
1712226237053,1712226227443,-6154,0
1712226237053,1712226227482,2315279,0
1712226237053,1712226227522,2266856,0
1712226237053,1712226227562,1842944,0
1712226237053,1712226227602,4189283,0
1712226237053,1712226227643,4189759,0
1712226237053,1712226227682,-1616,0
1712226237053,1712226227722,-866,0
1712226237053,1712226227763,-1068,0
1712226237053,1712226227803,-1407,0
1712226237053,1712226227843,-2332,0
1712226237053,1712226227883,-3058,0
1712226237053,1712226227923,-3113,0
1712226237053,1712226227963,903996,0
1712226237053,1712226228003,1435762,0
1712226237053,1712226228044,1592286,0
1712226237053,1712226228083,2649229,0
1712226237053,1712226228123,2784956,0
1712226237053,1712226228163,2689187,0
1712226237053,1712226228203,2569156,0
1712226237053,1712226228244,2482058,0
1712226237053,1712226228284,2581965,0
1712226237053,1712226228323,2602617,0
1712226237053,1712226228364,2682400,0
1712226237053,1712226228404,2673680,0
1712226237053,1712226228444,2776273,0
1712226237053,1712226228484,2801282,0
1712226237053,1712226228524,2747318,0
1712226237053,1712226228564,2720747,0
1712226237053,1712226228604,2724335,0
1712226237053,1712226228645,2645785,0
1712226237053,1712226228684,2987765,0
1712226237053,1712226228724,3169852,0
1712226237053,1712226228764,2691300,0
1712226237053,1712226228804,2165908,0
1712226237053,1712226228845,1540101,0
1712226237053,1712226228885,1104839,0
1712226237053,1712226228925,1015152,0
1712226237053,1712226228965,992650,0
1712226237053,1712226229005,1176009,0
1712226237053,1712226229045,1635095,0
1712226237053,1712226229085,1772036,0
1712226237053,1712226229125,1416768,0
1712226237053,1712226229165,1197010,0
1712226237053,1712226229205,1138559,0
1712226237053,1712226229246,1063974,0
1712226237053,1712226229285,419893,0
1712226237053,1712226229325,1371495,0
1712226237053,1712226229365,927202,0
1712226237053,1712226229405,870812,0
1712226237053,1712226229446,1774816,0
1712226237053,1712226229486,-651,0
1712226237053,1712226229526,-427,0
1712226237053,1712226229566,526807,0
1712226237053,1712226229606,432791,0
1712226237053,1712226229647,-931,0
1712226237053,1712226229686,-576,0
1712226237053,1712226229726,-423,0
1712226237053,1712226229766,-558,0
1712226237053,1712226229806,-226,0
1712226237053,1712226229847,-87,0
1712226237053,1712226229886,-179,0
1712226237053,1712226229926,-107,0
1712226237053,1712226229967,-47,0
1712226237053,1712226230007,-147,0
1712226237053,1712226230047,-158,0
1712226237053,1712226230087,-198,0
1712226237053,1712226230127,-219,0
1712226237053,1712226230167,-113,0
1712226237053,1712226230207,65,0
1712226237053,1712226230248,182,0
1712226237053,1712226230287,480,0
1712226237053,1712226230327,585,0
1712226237053,1712226230367,429,0
1712226237053,1712226230408,287,0
1712226237053,1712226230448,382,0
1712226237053,1712226230488,351,0
1712226237053,1712226230528,398,0
1712226237053,1712226230568,460,0
1712226237053,1712226230608,454,0
1712226237053,1712226230649,470,0
1712226237053,1712226230688,457,0
1712226237053,1712226230728,536,0
1712226237053,1712226230768,450,0
1712226237053,1712226230808,385,0
1712226237053,1712226230849,266,0
1712226237053,1712226230888,351,0
1712226237053,1712226230929,475,0
1712226237053,1712226230969,540,0
1712226237053,1712226231009,699,0
1712226237053,1712226231050,744,0
1712226237053,1712226231089,722,0
1712226237053,1712226231129,762,0
1712226237053,1712226231169,672,0
1712226237053,1712226231209,693,0
1712226237053,1712226231250,618,0
1712226237053,1712226231289,652,0
1712226237053,1712226231329,665,0
1712226237053,1712226231369,673,0
1712226237053,1712226231410,652,0
1712226237053,1712226231450,711,0
1712226237053,1712226231490,673,0
1712226237053,1712226231530,662,0
1712226237053,1712226231570,642,0
1712226237053,1712226231610,797,0
1712226237053,1712226231651,755,0
1712226237053,1712226231690,741,0
1712226237053,1712226231730,828,0
1712226237053,1712226231771,729,0
1712226237053,1712226231810,810,0
1712226237053,1712226231851,801,0
1712226237053,1712226231891,808,0
1712226237053,1712226231931,728,0
1712226237053,1712226231971,737,0
1712226237053,1712226232011,699,0
1712226237053,1712226232052,737,0
1712226237053,1712226232091,694,0
1712226237053,1712226232131,493,0
1712226237053,1712226232171,577,0
1712226237053,1712226232212,462,0
1712226237053,1712226232252,500,0
1712226237053,1712226232292,572,0
1712226237053,1712226232332,652,0
1712226237053,1712226232372,715,0
1712226237053,1712226232412,716,0
1712226237053,1712226232453,766,0
1712226237053,1712226232492,753,0
1712226237053,1712226232532,718,0
1712226237053,1712226232572,783,0
1712226237053,1712226232613,771,0
1712226237053,1712226232653,757,0
1712226237053,1712226232693,756,0
1712226237053,1712226232733,2520484,0
1712226237053,1712226232773,2520546,0
1712226237053,1712226232813,2519710,0
1712226237053,1712226232854,2519381,0
1712226237053,1712226232893,2517871,0
1712226237053,1712226232933,2519508,0
1712226237053,1712226232973,2520384,0
1712226237053,1712226233013,2534935,0
1712226237053,1712226233054,2570607,0
1712226237053,1712226233094,2145281,0
1712226237053,1712226233134,2143532,0
1712226237053,1712226233174,2142557,0
1712226237053,1712226233214,2139500,0
1712226237053,1712226233255,2133481,0
1712226237053,1712226233294,2072607,0
1712226237053,1712226233334,2065307,0
1712226237053,1712226233374,2061778,0
1712226237053,1712226233414,2058496,0
1712226237053,1712226233455,2056485,0
1712226237053,1712226233494,2078975,0
1712226237053,1712226233535,2081253,0
1712226237053,1712226233575,2085084,0
1712226237053,1712226233615,2075386,0
1712226237053,1712226233656,2053767,0
1712226237053,1712226233695,2037083,0
1712226237053,1712226233735,2039289,0
1712226237053,1712226233775,2103938,0
1712226237053,1712226233815,2230441,0
1712226237053,1712226233856,2356379,0
1712226237053,1712226233895,2543472,0
1712226237053,1712226233936,4050851,0
1712226237053,1712226233976,4193884,0
1712226237053,1712226234016,3633873,0
1712226237053,1712226234057,2680198,0
1712226237053,1712226234096,2711275,0
1712226237053,1712226234136,4193349,0
1712226237053,1712226234176,4176707,0
1712226237053,1712226234216,4176007,0
1712226237053,1712226234257,4179443,0
1712226237053,1712226234297,4177639,0
1712226237053,1712226234337,4176836,0
1712226237053,1712226234377,4179492,0
1712226237053,1712226234417,4177901,0
1712226237053,1712226234458,4174320,0
1712226237053,1712226234497,3733842,0
1712226237053,1712226234537,2029237,0
1712226237053,1712226234577,2016175,0
1712226237053,1712226234617,2009626,0
1712226237053,1712226234658,2001508,0
1712226237053,1712226234697,1991801,0
1712226237053,1712226234738,1990351,0
1712226237053,1712226234778,1990229,0
1712226237053,1712226234818,1991565,0
1712226237053,1712226234859,1992818,0
1712226237053,1712226234898,1991847,0
1712226237053,1712226234938,1986108,0
1712226237053,1712226234978,1987653,0
1712226237053,1712226235018,1989323,0
1712226237053,1712226235059,1992280,0
1712226237053,1712226235099,1995566,0
1712226237053,1712226235139,1997254,0
1712226237053,1712226235179,1999311,0
1712226237053,1712226235219,2002272,0
1712226237053,1712226235260,2005248,0
1712226237053,1712226235299,2008028,0
1712226237053,1712226235339,2012833,0
1712226237053,1712226235379,2020589,0
1712226237053,1712226235419,2053391,0
1712226237053,1712226235460,2042377,0
1712226237053,1712226235500,4183814,0
1712226237053,1712226235540,4184948,0
1712226237053,1712226235580,4184860,0
1712226237053,1712226235620,4184539,0
1712226237053,1712226235661,4184913,0
1712226237053,1712226235700,4184928,0
1712226237053,1712226235740,4184968,0
1712226237053,1712226235780,4185159,0
1712226237053,1712226235820,4184898,0
1712226237053,1712226235861,4184197,0
1712226237053,1712226235901,4184227,0
1712226237053,1712226235941,4183601,0
1712226237053,1712226235981,4180650,0
1712226237053,1712226236021,4178951,0
1712226237053,1712226236062,4177951,0
1712226237053,1712226236101,4176502,0
1712226237053,1712226236141,4175508,0
1712226237053,1712226236181,4175275,0
1712226237053,1712226236221,4175554,0
1712226237053,1712226236262,4176354,0
1712226237053,1712226236301,4178646,0
1712226237053,1712226236341,4180305,0
1712226237053,1712226236381,4179944,0
1712226237053,1712226236421,4179080,0
1712226237053,1712226236462,4181067,0
1712226237053,1712226236501,4190998,0
1712226237053,1712226236541,3660990,0
1712226237053,1712226236582,2446034,0
1712226237053,1712226236622,2007047,0
1712226237053,1712226236662,1956939,0
1712226237053,1712226236702,1913872,0
1712226237053,1712226236742,1909472,0
1712226237053,1712226236782,1916046,0
1712226237053,1712226236822,1932562,0
1712226237053,1712226236863,1952041,0
1712226237053,1712226236902,1965560,0
1712226237053,1712226236942,1984163,0
1712226249023,1712226236978,2001600,0
1712226249023,1712226237018,2050263,0
1712226249023,1712226237059,2187562,0
1712226249023,1712226237099,2193607,0
1712226249023,1712226237139,2275910,0
1712226249023,1712226237179,2711337,0
1712226249023,1712226237219,2951591,0
1712226249023,1712226237259,3397878,0
1712226249023,1712226237299,3665760,0
1712226249023,1712226237339,3211021,0
1712226249023,1712226237379,2405363,0
1712226249023,1712226237419,2053865,0
1712226249023,1712226237460,1998346,0
1712226249023,1712226237499,1980304,0
1712226249023,1712226237539,1973465,0
1712226249023,1712226237579,1977564,0
1712226249023,1712226237619,1981308,0
1712226249023,1712226237660,1993325,0
1712226249023,1712226237700,1992571,0
1712226249023,1712226237740,1988169,0
1712226249023,1712226237780,1985338,0
1712226249023,1712226237820,1983161,0
1712226249023,1712226237861,1975948,0
1712226249023,1712226237900,1964623,0
1712226249023,1712226237940,1963869,0
1712226249023,1712226237980,1961095,0
1712226249023,1712226238020,1951617,0
1712226249023,1712226238061,1936649,0
1712226249023,1712226238100,1935230,0
1712226249023,1712226238140,1941568,0
1712226249023,1712226238180,1945908,0
1712226249023,1712226238221,1955582,0
1712226249023,1712226238261,1965134,0
1712226249023,1712226238301,1975284,0
1712226249023,1712226238341,1981672,0
1712226249023,1712226238381,1983346,0
1712226249023,1712226238421,1987847,0
1712226249023,1712226238462,1993927,0
1712226249023,1712226238501,1992698,0
1712226249023,1712226238541,1992435,0
1712226249023,1712226238581,1997538,0
1712226249023,1712226238621,2001596,0
1712226249023,1712226238662,2000833,0
1712226249023,1712226238701,2002525,0
1712226249023,1712226238742,2004967,0
1712226249023,1712226238781,2003362,0
1712226249023,1712226238822,2007702,0
1712226249023,1712226238862,2047188,0
1712226249023,1712226238902,2102816,0
1712226249023,1712226238942,2094275,0
1712226249023,1712226238982,2062455,0
1712226249023,1712226239022,2029240,0
1712226249023,1712226239063,2012877,0
1712226249023,1712226239102,2069408,0
1712226249023,1712226239142,2635481,0
1712226249023,1712226239182,2803707,0
1712226249023,1712226239222,2793290,0
1712226249023,1712226239263,2922202,0
1712226249023,1712226239302,3613279,0
1712226249023,1712226239343,3939911,0
1712226249023,1712226239382,4192955,0
1712226249023,1712226239423,4187758,0
1712226249023,1712226239464,4189595,0
1712226249023,1712226239503,4188769,0
1712226249023,1712226239543,4189186,0
1712226249023,1712226239583,4191274,0
1712226249023,1712226239623,4191133,0
1712226249023,1712226239664,4190492,0
1712226249023,1712226239703,4190447,0
1712226249023,1712226239743,1975799,0
1712226249023,1712226239783,1919979,0
1712226249023,1712226239823,1937169,0
1712226249023,1712226239864,2008034,0
1712226249023,1712226239903,2227591,0
1712226249023,1712226239944,2169547,0
1712226249023,1712226239984,2142099,0
1712226249023,1712226240024,2121014,0
1712226249023,1712226240065,2116159,0
1712226249023,1712226240104,2130635,0
1712226249023,1712226240144,2179330,0
1712226249023,1712226240184,4142512,0
1712226249023,1712226240224,3110751,0
1712226249023,1712226240265,2394658,0
1712226249023,1712226240304,2142887,0
1712226249023,1712226240344,2106943,0
1712226249023,1712226240384,2084929,0
1712226249023,1712226240425,2055815,0
1712226249023,1712226240465,2010829,0
1712226249023,1712226240505,2010906,0
1712226249023,1712226240545,2007699,0
1712226249023,1712226240585,2000163,0
1712226249023,1712226240625,1999671,0
1712226249023,1712226240666,1994892,0
1712226249023,1712226240705,1992296,0
1712226249023,1712226240745,2003209,0
1712226249023,1712226240785,2011098,0
1712226249023,1712226240825,2015287,0
1712226249023,1712226240866,2019198,0
1712226249023,1712226240906,2020139,0
1712226249023,1712226240946,2037822,0
1712226249023,1712226240986,2052615,0
1712226249023,1712226241026,2049593,0
1712226249023,1712226241067,2067014,0
1712226249023,1712226241106,2076069,0
1712226249023,1712226241146,2078862,0
1712226249023,1712226241186,2063860,0
1712226249023,1712226241226,2061598,0
1712226249023,1712226241267,2071086,0
1712226249023,1712226241306,2083003,0
1712226249023,1712226241346,2020820,0
1712226249023,1712226241387,2726097,0
1712226249023,1712226241427,4192984,0
1712226249023,1712226241467,4184735,0
1712226249023,1712226241507,4184105,0
1712226249023,1712226241547,4184223,0
1712226249023,1712226241587,4184931,0
1712226249023,1712226241627,4182963,0
1712226249023,1712226241668,4183946,0
1712226249023,1712226241707,4185764,0
1712226249023,1712226241747,4182267,0
1712226249023,1712226241787,4182482,0
1712226249023,1712226241827,4186980,0
1712226249023,1712226241869,4190096,0
1712226249023,1712226241908,4193801,0
1712226249023,1712226241948,3684037,0
1712226249023,1712226241988,2542830,0
1712226249023,1712226242028,1980841,0
1712226249023,1712226242069,1909224,0
1712226249023,1712226242108,1781636,0
1712226249023,1712226242148,1651760,0
1712226249023,1712226242188,1618144,0
1712226249023,1712226242229,1618215,0
1712226249023,1712226242269,1610648,0
1712226249023,1712226242309,1604207,0
1712226249023,1712226242349,1598312,0
1712226249023,1712226242389,1593225,0
1712226249023,1712226242429,1583575,0
1712226249023,1712226242470,1571339,0
1712226249023,1712226242509,1556662,0
1712226249023,1712226242549,1538362,0
1712226249023,1712226242589,1526087,0
1712226249023,1712226242629,1521918,0
1712226249023,1712226242670,1527516,0
1712226249023,1712226242710,1540332,0
1712226249023,1712226242750,1553716,0
1712226249023,1712226242790,1569352,0
1712226249023,1712226242830,1590401,0
1712226249023,1712226242871,1607268,0
1712226249023,1712226242910,1615190,0
1712226249023,1712226242950,1619967,0
1712226249023,1712226242990,1625015,0
1712226249023,1712226243030,1628247,0
1712226249023,1712226243072,1633009,0
1712226249023,1712226243111,1639234,0
1712226249023,1712226243151,1645005,0
1712226249023,1712226243191,1650462,0
1712226249023,1712226243231,1656706,0
1712226249023,1712226243272,1663784,0
1712226249023,1712226243311,1670218,0
1712226249023,1712226243351,1676748,0
1712226249023,1712226243391,1684417,0
1712226249023,1712226243431,1691677,0
1712226249023,1712226243472,1696655,0
1712226249023,1712226243511,1699459,0
1712226249023,1712226243552,1701545,0
1712226249023,1712226243591,1702569,0
1712226249023,1712226243632,1702687,0
1712226249023,1712226243673,1702510,0
1712226249023,1712226243712,1702894,0
1712226249023,1712226243752,1702752,0
1712226249023,1712226243792,1702321,0
1712226249023,1712226243832,1699765,0
1712226249023,1712226243873,1695340,0
1712226249023,1712226243912,1695441,0
1712226249023,1712226243952,1696392,0
1712226249023,1712226243993,1697313,0
1712226249023,1712226244036,1698244,0
1712226249023,1712226244074,1696358,0
1712226249023,1712226244113,1692868,0
1712226249023,1712226244153,1689932,0
1712226249023,1712226244193,1697992,0
1712226249023,1712226244233,2154331,0
1712226249023,1712226244274,2654579,0
1712226249023,1712226244313,2465235,0
1712226249023,1712226244354,2004252,0
1712226249023,1712226244394,1811949,0
1712226249023,1712226244434,1747826,0
1712226249023,1712226244475,1740493,0
1712226249023,1712226244514,1917460,0
1712226249023,1712226244554,2942745,0
1712226249023,1712226244594,2814428,0
1712226249023,1712226244634,3486305,0
1712226249023,1712226244675,4193381,0
1712226249023,1712226244715,4142197,0
1712226249023,1712226244755,4193548,0
1712226249023,1712226244795,4190147,0
1712226249023,1712226244835,4182897,0
1712226249023,1712226244876,4178521,0
1712226249023,1712226244915,4178361,0
1712226249023,1712226244955,4177984,0
1712226249023,1712226244996,4181224,0
1712226249023,1712226245036,4178563,0
1712226249023,1712226245077,4178459,0
1712226249023,1712226245116,4177928,0
1712226249023,1712226245156,4178933,0
1712226249023,1712226245196,4191635,0
1712226249023,1712226245236,1840884,0
1712226249023,1712226245277,1832211,0
1712226249023,1712226245316,1844522,0
1712226249023,1712226245357,1816593,0
1712226249023,1712226245397,1782708,0
1712226249023,1712226245437,1757113,0
1712226249023,1712226245478,1737358,0
1712226249023,1712226245517,1712890,0
1712226249023,1712226245557,1691320,0
1712226249023,1712226245597,1676704,0
1712226249023,1712226245637,1664613,0
1712226249023,1712226245678,1660800,0
1712226249023,1712226245717,1662296,0
1712226249023,1712226245757,1661988,0
1712226249023,1712226245797,1656902,0
1712226249023,1712226245837,1648192,0
1712226249023,1712226245878,1639367,0
1712226249023,1712226245918,1634343,0
1712226249023,1712226245958,1632783,0
1712226249023,1712226245998,1632454,0
1712226249023,1712226246038,1629527,0
1712226249023,1712226246079,1629640,0
1712226249023,1712226246118,1630799,0
1712226249023,1712226246158,1630875,0
1712226249023,1712226246198,1631331,0
1712226249023,1712226246241,1631892,0
1712226249023,1712226246279,1632639,0
1712226249023,1712226246319,1633148,0
1712226249023,1712226246359,1633922,0
1712226249023,1712226246399,1634143,0
1712226249023,1712226246439,1635361,0
1712226249023,1712226246480,1637248,0
1712226249023,1712226246519,1638946,0
1712226249023,1712226246559,1641017,0
1712226249023,1712226246599,1643628,0
1712226249023,1712226246639,1645182,0
1712226249023,1712226246680,1645451,0
1712226249023,1712226246719,1645865,0
1712226249023,1712226246759,1649136,0
1712226249023,1712226246800,1651686,0
1712226249023,1712226246840,1654684,0
1712226249023,1712226246881,1657945,0
1712226249023,1712226246920,1661695,0
1712226249023,1712226246960,1664728,0
1712226249023,1712226247000,1667627,0
1712226249023,1712226247040,1670284,0
1712226249023,1712226247081,1675094,0
1712226249023,1712226247120,1681924,0
1712226249023,1712226247160,1688171,0
1712226249023,1712226247200,1693702,0
1712226249023,1712226247241,1691594,0
1712226249023,1712226247282,1684658,0
1712226249023,1712226247321,1682247,0
1712226249023,1712226247361,1671592,0
1712226249023,1712226247401,1692198,0
1712226249023,1712226247441,1755181,0
1712226249023,1712226247482,1769720,0
1712226249023,1712226247521,1770577,0
1712226249023,1712226247561,1738008,0
1712226249023,1712226247601,1729263,0
1712226249023,1712226247642,1727037,0
1712226249023,1712226247682,1723145,0
1712226249023,1712226247722,1719466,0
1712226249023,1712226247762,1715096,0
1712226249023,1712226247802,1710751,0
1712226249023,1712226247842,1714424,0
1712226249023,1712226247883,1723351,0
1712226249023,1712226247922,1734165,0
1712226249023,1712226247962,1727653,0
1712226249023,1712226248002,1719450,0
1712226249023,1712226248042,1709971,0
1712226249023,1712226248083,1704880,0
1712226249023,1712226248123,1702209,0
1712226249023,1712226248163,1697682,0
1712226249023,1712226248203,1698605,0
1712226249023,1712226248243,1700295,0
1712226249023,1712226248284,1700157,0
1712226249023,1712226248323,1702095,0
1712226249023,1712226248363,1703782,0
1712226249023,1712226248403,1706371,0
1712226249023,1712226248446,1708009,0
1712226249023,1712226248484,1712929,0
1712226249023,1712226248524,1720035,0
1712226249023,1712226248564,1722037,0
1712226249023,1712226248604,1724752,0
1712226249023,1712226248644,1727927,0
1712226249023,1712226248685,1732144,0
1712226249023,1712226248724,1736826,0
1712226249023,1712226248764,1741345,0
1712226249023,1712226248804,1743295,0
1712226249023,1712226248845,1744739,0
1712226249023,1712226248885,1746250,0
1712226249023,1712226248925,1748096,0
1712226249023,1712226248965,1751392,0
1712226261149,1712226249063,1753053,0
1712226261149,1712226249103,1754076,0
1712226261149,1712226249144,1754909,0
1712226261149,1712226249183,1755899,0
1712226261149,1712226249223,1757697,0
1712226261149,1712226249263,1760084,0
1712226261149,1712226249303,1762399,0
1712226261149,1712226249344,1764388,0
1712226261149,1712226249384,1762988,0
1712226261149,1712226249424,1754354,0
1712226261149,1712226249464,1747956,0
1712226261149,1712226249504,1732429,0
1712226261149,1712226249545,1721900,0
1712226261149,1712226249584,1725183,0
1712226261149,1712226249624,1734267,0
1712226261149,1712226249664,1748880,0
1712226261149,1712226249704,1768481,0
1712226261149,1712226249745,1787147,0
1712226261149,1712226249784,1804083,0
1712226261149,1712226249825,1812278,0
1712226261149,1712226249865,1822770,0
1712226261149,1712226249905,1829395,0
1712226261149,1712226249946,1829812,0
1712226261149,1712226249985,1833613,0
1712226261149,1712226250025,1838593,0
1712226261149,1712226250065,1842544,0
1712226261149,1712226250105,1845154,0
1712226261149,1712226250146,1847364,0
1712226261149,1712226250185,1850052,0
1712226261149,1712226250226,1852526,0
1712226261149,1712226250266,1854132,0
1712226261149,1712226250306,1855179,0
1712226261149,1712226250347,1855509,0
1712226261149,1712226250386,1856416,0
1712226261149,1712226250426,1857239,0
1712226261149,1712226250466,1857477,0
1712226261149,1712226250506,1859588,0
1712226261149,1712226250547,1861074,0
1712226261149,1712226250587,1861710,0
1712226261149,1712226250627,1861123,0
1712226261149,1712226250667,1862240,0
1712226261149,1712226250707,1862429,0
1712226261149,1712226250748,1862698,0
1712226261149,1712226250787,1864421,0
1712226261149,1712226250827,1866808,0
1712226261149,1712226250867,1868357,0
1712226261149,1712226250907,1869639,0
1712226261149,1712226250948,1871051,0
1712226261149,1712226250987,1872761,0
1712226261149,1712226251027,1874732,0
1712226261149,1712226251068,1876371,0
1712226261149,1712226251108,1877009,0
1712226261149,1712226251148,1878267,0
1712226261149,1712226251188,1879482,0
1712226261149,1712226251228,1880751,0
1712226261149,1712226251268,1881427,0
1712226261149,1712226251308,1881295,0
1712226261149,1712226251349,1882123,0
1712226261149,1712226251388,1883593,0
1712226261149,1712226251429,1885070,0
1712226261149,1712226251469,1886157,0
1712226261149,1712226251509,1885704,0
1712226261149,1712226251550,1885797,0
1712226261149,1712226251589,1885787,0
1712226261149,1712226251629,1886128,0
1712226261149,1712226251669,1886163,0
1712226261149,1712226251709,1885694,0
1712226261149,1712226251750,1884951,0
1712226261149,1712226251790,1884381,0
1712226261149,1712226251829,1884172,0
1712226261149,1712226251870,1883888,0
1712226261149,1712226251910,1884118,0
1712226261149,1712226251951,1884378,0
1712226261149,1712226251990,1884541,0
1712226261149,1712226252030,1885215,0
1712226261149,1712226252070,1885819,0
1712226261149,1712226252110,1886578,0
1712226261149,1712226252153,1887326,0
1712226261149,1712226252193,1887814,0
1712226261149,1712226252233,1888203,0
1712226261149,1712226252273,1889115,0
1712226261149,1712226252314,1889597,0
1712226261149,1712226252355,1890168,0
1712226261149,1712226252394,1890243,0
1712226261149,1712226252434,1890698,0
1712226261149,1712226252475,1891268,0
1712226261149,1712226252515,1891694,0
1712226261149,1712226252556,1891982,0
1712226261149,1712226252595,1892431,0
1712226261149,1712226252635,1891395,0
1712226261149,1712226252676,1891055,0
1712226261149,1712226252716,1891402,0
1712226261149,1712226252757,1891558,0
1712226261149,1712226252796,1892537,0
1712226261149,1712226252836,1893637,0
1712226261149,1712226252877,1895442,0
1712226261149,1712226252917,1895477,0
1712226261149,1712226252957,1894638,0
1712226261149,1712226252997,1895003,0
1712226261149,1712226253037,1897580,0
1712226261149,1712226253077,1898643,0
1712226261149,1712226253117,1899238,0
1712226261149,1712226253158,1899863,0
1712226261149,1712226253198,1901186,0
1712226261149,1712226253238,1904298,0
1712226261149,1712226253278,1909260,0
1712226261149,1712226253318,1913573,0
1712226261149,1712226253359,1916419,0
1712226261149,1712226253398,1905772,0
1712226261149,1712226253439,1904841,0
1712226261149,1712226253479,1894030,0
1712226261149,1712226253519,1888270,0
1712226261149,1712226253560,1882564,0
1712226261149,1712226253599,1856600,0
1712226261149,1712226253639,1859032,0
1712226261149,1712226253680,1872985,0
1712226261149,1712226253720,1871766,0
1712226261149,1712226253761,1861965,0
1712226261149,1712226253800,1855758,0
1712226261149,1712226253841,1855872,0
1712226261149,1712226253881,1851654,0
1712226261149,1712226253921,1845666,0
1712226261149,1712226253962,1847832,0
1712226261149,1712226254001,1850558,0
1712226261149,1712226254042,1867166,0
1712226261149,1712226254082,2016405,0
1712226261149,1712226254122,3493368,0
1712226261149,1712226254164,4187356,0
1712226261149,1712226254203,4181504,0
1712226261149,1712226254243,4181215,0
1712226261149,1712226254283,4185543,0
1712226261149,1712226254324,4192244,0
1712226261149,1712226254365,4191893,0
1712226261149,1712226254404,4189262,0
1712226261149,1712226254444,4192070,0
1712226261149,1712226254484,4192269,0
1712226261149,1712226254525,3157066,0
1712226261149,1712226254566,2901461,0
1712226261149,1712226254605,4179468,0
1712226261149,1712226254646,4179739,0
1712226261149,1712226254686,2130445,0
1712226261149,1712226254726,2155127,0
1712226261149,1712226254767,1907968,0
1712226261149,1712226254807,1817733,0
1712226261149,1712226254847,1821031,0
1712226261149,1712226254888,1863310,0
1712226261149,1712226254928,2094071,0
1712226261149,1712226254969,1797101,0
1712226261149,1712226255008,1731822,0
1712226261149,1712226255049,1703815,0
1712226261149,1712226255089,1705088,0
1712226261149,1712226255129,1827298,0
1712226261149,1712226255170,1761817,0
1712226261149,1712226255209,1711255,0
1712226261149,1712226255250,1716627,0
1712226261149,1712226255290,1870774,0
1712226261149,1712226255330,1693018,0
1712226261149,1712226255371,1667156,0
1712226261149,1712226255411,1651507,0
1712226261149,1712226255451,1654048,0
1712226261149,1712226255491,1674201,0
1712226261149,1712226255532,1704144,0
1712226261149,1712226255573,1722973,0
1712226261149,1712226255612,1749264,0
1712226261149,1712226255652,1707490,0
1712226261149,1712226255692,1701283,0
1712226261149,1712226255733,1670384,0
1712226261149,1712226255774,1651955,0
1712226261149,1712226255813,1659440,0
1712226261149,1712226255854,1652138,0
1712226261149,1712226255894,1647430,0
1712226261149,1712226255934,1645772,0
1712226261149,1712226255975,1639360,0
1712226261149,1712226256015,1636081,0
1712226261149,1712226256055,1636538,0
1712226261149,1712226256095,1634771,0
1712226261149,1712226256135,1635087,0
1712226261149,1712226256176,1636718,0
1712226261149,1712226256215,1634238,0
1712226261149,1712226256256,1635408,0
1712226261149,1712226256296,1632555,0
1712226261149,1712226256336,1625276,0
1712226261149,1712226256377,1616810,0
1712226261149,1712226256416,1613503,0
1712226261149,1712226256456,1612304,0
1712226261149,1712226256497,1616736,0
1712226261149,1712226256537,1617462,0
1712226261149,1712226256577,1616622,0
1712226261149,1712226256617,1618494,0
1712226261149,1712226256657,1617830,0
1712226261149,1712226256697,1617056,0
1712226261149,1712226256738,1609385,0
1712226261149,1712226256778,1613590,0
1712226261149,1712226256818,1624532,0
1712226261149,1712226256858,1615716,0
1712226261149,1712226256898,1603698,0
1712226261149,1712226256938,1604167,0
1712226261149,1712226256979,1612091,0
1712226261149,1712226257019,1620213,0
1712226261149,1712226257059,1629831,0
1712226261149,1712226257099,1634854,0
1712226261149,1712226257139,1633776,0
1712226261149,1712226257180,1633315,0
1712226261149,1712226257220,1631548,0
1712226261149,1712226257260,1629045,0
1712226261149,1712226257300,1626722,0
1712226261149,1712226257340,1623522,0
1712226261149,1712226257381,1620885,0
1712226261149,1712226257421,1620764,0
1712226261149,1712226257463,1619375,0
1712226261149,1712226257503,1618849,0
1712226261149,1712226257543,1617020,0
1712226261149,1712226257584,1617329,0
1712226261149,1712226257624,1617542,0
1712226261149,1712226257664,1618854,0
1712226261149,1712226257704,1620154,0
1712226261149,1712226257745,1614804,0
1712226261149,1712226257786,1618866,0
1712226261149,1712226257825,1619308,0
1712226261149,1712226257865,1616299,0
1712226261149,1712226257906,1616011,0
1712226261149,1712226257946,1624606,0
1712226261149,1712226257987,1635714,0
1712226261149,1712226258026,1639387,0
1712226261149,1712226258067,1638706,0
1712226261149,1712226258107,1631426,0
1712226261149,1712226258147,1623755,0
1712226261149,1712226258188,1629352,0
1712226261149,1712226258228,1629660,0
1712226261149,1712226258268,1620237,0
1712226261149,1712226258308,1620955,0
1712226261149,1712226258348,1620669,0
1712226261149,1712226258389,1621882,0
1712226261149,1712226258429,1634054,0
1712226261149,1712226258469,1651800,0
1712226261149,1712226258510,1645808,0
1712226261149,1712226258551,1640496,0
1712226261149,1712226258592,1643875,0
1712226261149,1712226258631,1647461,0
1712226261149,1712226258672,1643487,0
1712226261149,1712226258712,1638670,0
1712226261149,1712226258752,1639798,0
1712226261149,1712226258793,1642740,0
1712226261149,1712226258832,1653015,0
1712226261149,1712226258873,1662393,0
1712226261149,1712226258913,1664082,0
1712226261149,1712226258953,1656099,0
1712226261149,1712226258994,1651904,0
1712226261149,1712226259034,1644218,0
1712226261149,1712226259074,1638957,0
1712226261149,1712226259114,1634341,0
1712226261149,1712226259155,1631788,0
1712226261149,1712226259196,1633979,0
1712226261149,1712226259235,1634309,0
1712226261149,1712226259276,1634533,0
1712226261149,1712226259316,1634393,0
1712226261149,1712226259356,1637973,0
1712226261149,1712226259397,1640550,0
1712226261149,1712226259436,1643647,0
1712226261149,1712226259476,1644727,0
1712226261149,1712226259517,1645191,0
1712226261149,1712226259557,1652567,0
1712226261149,1712226259598,1657659,0
1712226261149,1712226259637,1656442,0
1712226261149,1712226259677,1653141,0
1712226261149,1712226259717,1652769,0
1712226261149,1712226259757,1652924,0
1712226261149,1712226259798,1655369,0
1712226261149,1712226259837,1655095,0
1712226261149,1712226259878,1648090,0
1712226261149,1712226259918,1642979,0
1712226261149,1712226259958,1635391,0
1712226261149,1712226259999,1641635,0
1712226261149,1712226260038,1640563,0
1712226261149,1712226260078,1642670,0
1712226261149,1712226260119,1645670,0
1712226261149,1712226260159,1647511,0
1712226261149,1712226260200,1651316,0
1712226261149,1712226260239,1656047,0
1712226261149,1712226260279,1661586,0
1712226261149,1712226260319,1658513,0
1712226261149,1712226260360,1658583,0
1712226261149,1712226260401,1665557,0
1712226261149,1712226260440,1672255,0
1712226261149,1712226260480,1684066,0
1712226261149,1712226260520,2658784,0
1712226261149,1712226260561,3092343,0
1712226261149,1712226260602,3489766,0
1712226261149,1712226260641,3203050,0
1712226261149,1712226260681,3195221,0
1712226261149,1712226260722,2690433,0
1712226261149,1712226260762,2693474,0
1712226261149,1712226260803,3378055,0
1712226261149,1712226260843,4192826,0
1712226261149,1712226260883,4193282,0
1712226261149,1712226260923,4192036,0
1712226261149,1712226260964,4187627,0
1712226261149,1712226261005,4187583,0
1712226261149,1712226261044,4188132,0
1712226261149,1712226261085,4188513,0
1712226273172,1712226261124,4185172,0
1712226273172,1712226261163,4190439,0
1712226273172,1712226261202,4190296,0
1712226273172,1712226261241,4188705,0
1712226273172,1712226261280,4188200,0
1712226273172,1712226261319,4190265,0
1712226273172,1712226261358,4192595,0
1712226273172,1712226261397,4193211,0
1712226273172,1712226261436,3503046,0
1712226273172,1712226261475,2649170,0
1712226273172,1712226261514,2230341,0
1712226273172,1712226261553,1936457,0
1712226273172,1712226261592,1847952,0
1712226273172,1712226261631,1806012,0
1712226273172,1712226261670,1790643,0
1712226273172,1712226261709,1778019,0
1712226273172,1712226261748,1768869,0
1712226273172,1712226261787,1769284,0
1712226273172,1712226261826,1771900,0
1712226273172,1712226261865,1783049,0
1712226273172,1712226261904,1820380,0
1712226273172,1712226261943,1817954,0
1712226273172,1712226261982,1848476,0
1712226273172,1712226262021,1894354,0
1712226273172,1712226262060,1887407,0
1712226273172,1712226262099,1863130,0
1712226273172,1712226262138,1837512,0
1712226273172,1712226262177,1828929,0
1712226273172,1712226262216,1827913,0
1712226273172,1712226262255,1816073,0
1712226273172,1712226262294,1800493,0
1712226273172,1712226262334,1804865,0
1712226273172,1712226262374,1892986,0
1712226273172,1712226262414,1941463,0
1712226273172,1712226262454,2207315,0
1712226273172,1712226262494,2442930,0
1712226273172,1712226262534,2534020,0
1712226273172,1712226262574,2353147,0
1712226273172,1712226262614,1955314,0
1712226273172,1712226262654,1890122,0
1712226273172,1712226262694,1875681,0
1712226273172,1712226262734,1865325,0
1712226273172,1712226262774,1862154,0
1712226273172,1712226262814,1907093,0
1712226273172,1712226262854,2047913,0
1712226273172,1712226262894,2130924,0
1712226273172,1712226262934,2299634,0
1712226273172,1712226262974,2096425,0
1712226273172,1712226263014,2096703,0
1712226273172,1712226263054,1998009,0
1712226273172,1712226263094,1933006,0
1712226273172,1712226263134,1930935,0
1712226273172,1712226263174,1921274,0
1712226273172,1712226263214,1899479,0
1712226273172,1712226263254,1869034,0
1712226273172,1712226263294,1858434,0
1712226273172,1712226263334,1853833,0
1712226273172,1712226263374,1845496,0
1712226273172,1712226263414,1844576,0
1712226273172,1712226263454,1863945,0
1712226273172,1712226263494,1898263,0
1712226273172,1712226263534,1994629,0
1712226273172,1712226263574,1929053,0
1712226273172,1712226263614,1875522,0
1712226273172,1712226263654,1872125,0
1712226273172,1712226263694,2203217,0
1712226273172,1712226263734,4193403,0
1712226273172,1712226263774,4191797,0
1712226273172,1712226263814,4185441,0
1712226273172,1712226263854,4185232,0
1712226273172,1712226263894,3346365,0
1712226273172,1712226263934,1848821,0
1712226273172,1712226263974,2186798,0
1712226273172,1712226264014,3442385,0
1712226273172,1712226264054,2816526,0
1712226273172,1712226264094,1552909,0
1712226273172,1712226264134,849363,0
1712226273172,1712226264174,595649,0
1712226273172,1712226264214,570227,0
1712226273172,1712226264254,559515,0
1712226273172,1712226264294,656427,0
1712226273172,1712226264334,909741,0
1712226273172,1712226264374,1124078,0
1712226273172,1712226264414,1088442,0
1712226273172,1712226264454,870604,0
1712226273172,1712226264494,675920,0
1712226273172,1712226264534,874906,0
1712226273172,1712226264574,1406549,0
1712226273172,1712226264614,1510395,0
1712226273172,1712226264654,1663930,0
1712226273172,1712226264694,1208320,0
1712226273172,1712226264734,1182517,0
1712226273172,1712226264774,2099610,0
1712226273172,1712226264814,4188370,0
1712226273172,1712226264854,4191078,0
1712226273172,1712226264894,3465123,0
1712226273172,1712226264934,4194162,0
1712226273172,1712226264974,4181672,0
1712226273172,1712226265014,4189325,0
1712226273172,1712226265054,4187155,0
1712226273172,1712226265094,4184718,0
1712226273172,1712226265134,4179589,0
1712226273172,1712226265174,4177536,0
1712226273172,1712226265214,4179446,0
1712226273172,1712226265254,4182697,0
1712226273172,1712226265294,4184372,0
1712226273172,1712226265334,4185428,0
1712226273172,1712226265374,4185199,0
1712226273172,1712226265414,4181518,0
1712226273172,1712226265454,4182632,0
1712226273172,1712226265494,4182904,0
1712226273172,1712226265534,4182913,0
1712226273172,1712226265574,4185537,0
1712226273172,1712226265614,4179619,0
1712226273172,1712226265654,4181205,0
1712226273172,1712226265694,4182301,0
1712226273172,1712226265734,4182255,0
1712226273172,1712226265774,4183710,0
1712226273172,1712226265814,4184397,0
1712226273172,1712226265854,4184832,0
1712226273172,1712226265894,4181267,0
1712226273172,1712226265934,4180877,0
1712226273172,1712226265974,4182928,0
1712226273172,1712226266014,4193265,0
1712226273172,1712226266054,4184416,0
1712226273172,1712226266094,4182853,0
1712226273172,1712226266134,4179501,0
1712226273172,1712226266174,4181667,0
1712226273172,1712226266214,4179220,0
1712226273172,1712226266254,4179423,0
1712226273172,1712226266294,4179159,0
1712226273172,1712226266334,4193521,0
1712226273172,1712226266374,1587392,0
1712226273172,1712226266414,1519198,0
1712226273172,1712226266454,1521189,0
1712226273172,1712226266494,1541194,0
1712226273172,1712226266534,1560932,0
1712226273172,1712226266574,1572827,0
1712226273172,1712226266614,1571938,0
1712226273172,1712226266654,1573699,0
1712226273172,1712226266694,1575089,0
1712226273172,1712226266734,1586236,0
1712226273172,1712226266774,1607074,0
1712226273172,1712226266814,1627176,0
1712226273172,1712226266854,1640609,0
1712226273172,1712226266894,1653072,0
1712226273172,1712226266934,1668566,0
1712226273172,1712226266974,1682937,0
1712226273172,1712226267014,1695152,0
1712226273172,1712226267054,1705455,0
1712226273172,1712226267094,1706932,0
1712226273172,1712226267134,1705885,0
1712226273172,1712226267174,1689357,0
1712226273172,1712226267214,1672559,0
1712226273172,1712226267254,1667232,0
1712226273172,1712226267294,1649921,0
1712226273172,1712226267334,1644628,0
1712226273172,1712226267374,1646719,0
1712226273172,1712226267414,1647465,0
1712226273172,1712226267454,1662014,0
1712226273172,1712226267494,1664013,0
1712226273172,1712226267534,1670838,0
1712226273172,1712226267574,1684697,0
1712226273172,1712226267614,1698408,0
1712226273172,1712226267654,1706305,0
1712226273172,1712226267694,1706637,0
1712226273172,1712226267734,1703733,0
1712226273172,1712226267774,1701267,0
1712226273172,1712226267814,1705999,0
1712226273172,1712226267854,1713624,0
1712226273172,1712226267894,1714926,0
1712226273172,1712226267934,1719589,0
1712226273172,1712226267974,1721827,0
1712226273172,1712226268014,1720376,0
1712226273172,1712226268054,1716757,0
1712226273172,1712226268094,1709351,0
1712226273172,1712226268134,1709485,0
1712226273172,1712226268174,1722396,0
1712226273172,1712226268214,1738704,0
1712226273172,1712226268254,1752575,0
1712226273172,1712226268294,1761597,0
1712226273172,1712226268334,1764648,0
1712226273172,1712226268374,1769328,0
1712226273172,1712226268414,1775608,0
1712226273172,1712226268454,1780993,0
1712226273172,1712226268494,1785166,0
1712226273172,1712226268534,1788065,0
1712226273172,1712226268574,1788841,0
1712226273172,1712226268614,1791854,0
1712226273172,1712226268654,1794624,0
1712226273172,1712226268694,1796567,0
1712226273172,1712226268734,1800666,0
1712226273172,1712226268774,1803740,0
1712226273172,1712226268814,1809288,0
1712226273172,1712226268854,1815241,0
1712226273172,1712226268894,1818689,0
1712226273172,1712226268934,1822139,0
1712226273172,1712226268974,1825021,0
1712226273172,1712226269014,1829715,0
1712226273172,1712226269054,1832629,0
1712226273172,1712226269094,1835221,0
1712226273172,1712226269134,1838216,0
1712226273172,1712226269174,1840261,0
1712226273172,1712226269214,1840155,0
1712226273172,1712226269254,1843685,0
1712226273172,1712226269294,1849438,0
1712226273172,1712226269334,1858368,0
1712226273172,1712226269374,1856570,0
1712226273172,1712226269414,1853000,0
1712226273172,1712226269454,1856703,0
1712226273172,1712226269494,1850865,0
1712226273172,1712226269534,1845393,0
1712226273172,1712226269574,1830410,0
1712226273172,1712226269614,1828730,0
1712226273172,1712226269654,1822824,0
1712226273172,1712226269694,1819918,0
1712226273172,1712226269734,1816830,0
1712226273172,1712226269774,1817573,0
1712226273172,1712226269814,1814140,0
1712226273172,1712226269854,1817915,0
1712226273172,1712226269894,1816485,0
1712226273172,1712226269934,1805951,0
1712226273172,1712226269974,1811435,0
1712226273172,1712226270014,1820757,0
1712226273172,1712226270054,1791795,0
1712226273172,1712226270094,1697920,0
1712226273172,1712226270134,1807878,0
1712226273172,1712226270174,1618256,0
1712226273172,1712226270214,1616019,0
1712226273172,1712226270254,1545640,0
1712226273172,1712226270294,1560198,0
1712226273172,1712226270334,1597402,0
1712226273172,1712226270374,1613895,0
1712226273172,1712226270414,1601027,0
1712226273172,1712226270454,1557409,0
1712226273172,1712226270494,1554911,0
1712226273172,1712226270534,1547434,0
1712226273172,1712226270574,1540445,0
1712226273172,1712226270614,1573327,0
1712226273172,1712226270654,1560340,0
1712226273172,1712226270694,1564639,0
1712226273172,1712226270734,1567995,0
1712226273172,1712226270774,1578359,0
1712226273172,1712226270814,1612381,0
1712226273172,1712226270854,1633542,0
1712226273172,1712226270894,1638605,0
1712226273172,1712226270934,1628222,0
1712226273172,1712226270974,1601095,0
1712226273172,1712226271014,1709976,0
1712226273172,1712226271054,1795229,0
1712226273172,1712226271094,1847898,0
1712226273172,1712226271134,1836956,0
1712226273172,1712226271174,1785736,0
1712226273172,1712226271214,1720333,0
1712226273172,1712226271254,1678355,0
1712226273172,1712226271294,1677171,0
1712226273172,1712226271334,1670209,0
1712226273172,1712226271374,1677475,0
1712226273172,1712226271414,1690069,0
1712226273172,1712226271454,1697398,0
1712226273172,1712226271494,1703343,0
1712226273172,1712226271534,1590446,0
1712226273172,1712226271574,1661786,0
1712226273172,1712226271614,1630172,0
1712226273172,1712226271654,1640938,0
1712226273172,1712226271694,1660630,0
1712226273172,1712226271734,1696438,0
1712226273172,1712226271774,1718477,0
1712226273172,1712226271814,1729374,0
1712226273172,1712226271854,1741436,0
1712226273172,1712226271894,1746821,0
1712226273172,1712226271934,1753587,0
1712226273172,1712226271974,1763613,0
1712226273172,1712226272014,1761137,0
1712226273172,1712226272054,1769783,0
1712226273172,1712226272094,1773688,0
1712226273172,1712226272134,1774114,0
1712226273172,1712226272174,1777953,0
1712226273172,1712226272214,1778934,0
1712226273172,1712226272254,1781857,0
1712226273172,1712226272294,1785732,0
1712226273172,1712226272334,1790018,0
1712226273172,1712226272374,1793763,0
1712226273172,1712226272414,1794582,0
1712226273172,1712226272454,1794136,0
1712226273172,1712226272494,1789721,0
1712226273172,1712226272534,1788410,0
1712226273172,1712226272574,1792069,0
1712226273172,1712226272614,1803219,0
1712226273172,1712226272654,1809284,0
1712226273172,1712226272694,1813400,0
1712226273172,1712226272734,1817399,0
1712226273172,1712226272774,1820946,0
1712226273172,1712226272814,1823216,0
1712226273172,1712226272854,1825132,0
1712226273172,1712226272894,1827461,0
1712226273172,1712226272934,1829606,0
1712226273172,1712226272974,1833112,0
1712226273172,1712226273014,1835914,0
1712226273172,1712226273054,1839092,0
1712226285155,1712226273091,1840945,0
1712226285155,1712226273131,1840866,0
1712226285155,1712226273173,1843895,0
1712226285155,1712226273212,1843097,0
1712226285155,1712226273252,1841875,0
1712226285155,1712226273292,1844131,0
1712226285155,1712226273332,1851926,0
1712226285155,1712226273373,1855406,0
1712226285155,1712226273412,1858143,0
1712226285155,1712226273452,1864324,0
1712226285155,1712226273492,1872310,0
1712226285155,1712226273533,1887891,0
1712226285155,1712226273573,1895054,0
1712226285155,1712226273613,1897647,0
1712226285155,1712226273653,1898831,0
1712226285155,1712226273693,1900488,0
1712226285155,1712226273733,1904311,0
1712226285155,1712226273774,1906336,0
1712226285155,1712226273813,1911192,0
1712226285155,1712226273854,1909592,0
1712226285155,1712226273894,1908586,0
1712226285155,1712226273934,1903368,0
1712226285155,1712226273974,1904830,0
1712226285155,1712226274014,1903373,0
1712226285155,1712226274054,1907154,0
1712226285155,1712226274094,1909559,0
1712226285155,1712226274134,1913019,0
1712226285155,1712226274175,1917548,0
1712226285155,1712226274214,1920542,0
1712226285155,1712226274254,1921668,0
1712226285155,1712226274294,1923175,0
1712226285155,1712226274334,1923598,0
1712226285155,1712226274375,1925275,0
1712226285155,1712226274414,1929154,0
1712226285155,1712226274455,1932577,0
1712226285155,1712226274495,1936677,0
1712226285155,1712226274535,1938572,0
1712226285155,1712226274575,1941424,0
1712226285155,1712226274615,1939200,0
1712226285155,1712226274655,1936830,0
1712226285155,1712226274695,1934728,0
1712226285155,1712226274735,1933691,0
1712226285155,1712226274776,1933608,0
1712226285155,1712226274815,1933948,0
1712226285155,1712226274855,1933905,0
1712226285155,1712226274895,1933756,0
1712226285155,1712226274935,1934228,0
1712226285155,1712226274976,1934448,0
1712226285155,1712226275016,1933801,0
1712226285155,1712226275056,1931770,0
1712226285155,1712226275096,1930184,0
1712226285155,1712226275136,1929038,0
1712226285155,1712226275177,1928789,0
1712226285155,1712226275216,1929073,0
1712226285155,1712226275256,1929535,0
1712226285155,1712226275296,1929344,0
1712226285155,1712226275336,1928735,0
1712226285155,1712226275377,1928534,0
1712226285155,1712226275416,1928971,0
1712226285155,1712226275457,1929461,0
1712226285155,1712226275497,1930468,0
1712226285155,1712226275537,1931711,0
1712226285155,1712226275578,1932946,0
1712226285155,1712226275617,1934643,0
1712226285155,1712226275657,1936405,0
1712226285155,1712226275697,1937114,0
1712226285155,1712226275737,1935671,0
1712226285155,1712226275778,1933686,0
1712226285155,1712226275818,1932052,0
1712226285155,1712226275857,1930979,0
1712226285155,1712226275898,1930135,0
1712226285155,1712226275938,1929837,0
1712226285155,1712226275978,1929344,0
1712226285155,1712226276018,1928591,0
1712226285155,1712226276058,1927712,0
1712226285155,1712226276098,1927292,0
1712226285155,1712226276138,1926776,0
1712226285155,1712226276179,1926531,0
1712226285155,1712226276218,1926053,0
1712226285155,1712226276258,1925915,0
1712226285155,1712226276299,1925835,0
1712226285155,1712226276339,1925842,0
1712226285155,1712226276379,1925839,0
1712226285155,1712226276419,1923701,0
1712226285155,1712226276459,1920321,0
1712226285155,1712226276499,1917080,0
1712226285155,1712226276539,1914456,0
1712226285155,1712226276580,1912222,0
1712226285155,1712226276619,1910444,0
1712226285155,1712226276659,1909339,0
1712226285155,1712226276700,1908143,0
1712226285155,1712226276740,1907028,0
1712226285155,1712226276780,1906045,0
1712226285155,1712226276820,1905351,0
1712226285155,1712226276860,1904973,0
1712226285155,1712226276900,1904894,0
1712226285155,1712226276940,1904936,0
1712226285155,1712226276981,1905077,0
1712226285155,1712226277020,1905280,0
1712226285155,1712226277060,1905831,0
1712226285155,1712226277100,1906414,0
1712226285155,1712226277141,1906927,0
1712226285155,1712226277181,1905752,0
1712226285155,1712226277221,1902639,0
1712226285155,1712226277261,1899537,0
1712226285155,1712226277301,1897142,0
1712226285155,1712226277341,1895250,0
1712226285155,1712226277382,1893708,0
1712226285155,1712226277421,1892995,0
1712226285155,1712226277461,1892156,0
1712226285155,1712226277502,1891537,0
1712226285155,1712226277542,1890916,0
1712226285155,1712226277582,1890755,0
1712226285155,1712226277622,1890912,0
1712226285155,1712226277662,1891200,0
1712226285155,1712226277702,1891601,0
1712226285155,1712226277742,1892248,0
1712226285155,1712226277783,1893052,0
1712226285155,1712226277822,1893973,0
1712226285155,1712226277862,1894760,0
1712226285155,1712226277902,1895943,0
1712226285155,1712226277942,1897010,0
1712226285155,1712226277983,1896333,0
1712226285155,1712226278022,1894016,0
1712226285155,1712226278063,1891612,0
1712226285155,1712226278103,1890150,0
1712226285155,1712226278143,1888875,0
1712226285155,1712226278183,1888178,0
1712226285155,1712226278223,1888100,0
1712226285155,1712226278263,1887963,0
1712226285155,1712226278303,1887745,0
1712226285155,1712226278343,1887661,0
1712226285155,1712226278384,1887969,0
1712226285155,1712226278423,1888498,0
1712226285155,1712226278463,1889296,0
1712226285155,1712226278503,1890253,0
1712226285155,1712226278544,1891256,0
1712226285155,1712226278585,1892099,0
1712226285155,1712226278624,1892894,0
1712226285155,1712226278664,1894138,0
1712226285155,1712226278704,1895361,0
1712226285155,1712226278744,1896610,0
1712226285155,1712226278785,1896170,0
1712226285155,1712226278824,1894475,0
1712226285155,1712226278864,1892670,0
1712226285155,1712226278904,1891775,0
1712226285155,1712226278945,1891327,0
1712226285155,1712226278985,1891394,0
1712226285155,1712226279025,1892078,0
1712226285155,1712226279065,1892814,0
1712226285155,1712226279105,1893537,0
1712226285155,1712226279145,1894874,0
1712226285155,1712226279186,1896108,0
1712226285155,1712226279225,1897569,0
1712226285155,1712226279265,1898552,0
1712226285155,1712226279305,1899659,0
1712226285155,1712226279345,1901068,0
1712226285155,1712226279386,1902757,0
1712226285155,1712226279426,1904305,0
1712226285155,1712226279466,1905820,0
1712226285155,1712226279506,1908202,0
1712226285155,1712226279546,1911681,0
1712226285155,1712226279587,1914724,0
1712226285155,1712226279626,1915009,0
1712226285155,1712226279666,1914604,0
1712226285155,1712226279706,1914189,0
1712226285155,1712226279746,1913375,0
1712226285155,1712226279787,1912823,0
1712226285155,1712226279827,1913677,0
1712226285155,1712226279867,1914650,0
1712226285155,1712226279907,1915344,0
1712226285155,1712226279947,1916433,0
1712226285155,1712226279988,1917294,0
1712226285155,1712226280027,1918050,0
1712226285155,1712226280067,1918353,0
1712226285155,1712226280107,1919017,0
1712226285155,1712226280148,1919347,0
1712226285155,1712226280188,1919275,0
1712226285155,1712226280228,1919507,0
1712226285155,1712226280268,1919691,0
1712226285155,1712226280308,1920004,0
1712226285155,1712226280348,1920664,0
1712226285155,1712226280389,1921316,0
1712226285155,1712226280428,1921629,0
1712226285155,1712226280468,1920542,0
1712226285155,1712226280509,1919073,0
1712226285155,1712226280548,1917405,0
1712226285155,1712226280589,1916146,0
1712226285155,1712226280629,1915191,0
1712226285155,1712226280669,1914898,0
1712226285155,1712226280709,1916485,0
1712226285155,1712226280749,1918003,0
1712226285155,1712226280790,1919069,0
1712226285155,1712226280829,1919589,0
1712226285155,1712226280870,1919725,0
1712226285155,1712226280910,1920909,0
1712226285155,1712226280950,1923033,0
1712226285155,1712226280990,1925098,0
1712226285155,1712226281030,1927609,0
1712226285155,1712226281070,1929789,0
1712226285155,1712226281110,1931321,0
1712226285155,1712226281150,1931768,0
1712226285155,1712226281191,1932060,0
1712226285155,1712226281230,1933161,0
1712226285155,1712226281270,1934905,0
1712226285155,1712226281310,1935925,0
1712226285155,1712226281351,1936620,0
1712226285155,1712226281391,1936387,0
1712226285155,1712226281431,1937142,0
1712226285155,1712226281471,1939881,0
1712226285155,1712226281511,1943061,0
1712226285155,1712226281551,1945618,0
1712226285155,1712226281592,1947139,0
1712226285155,1712226281631,1947091,0
1712226285155,1712226281671,1944091,0
1712226285155,1712226281712,1942241,0
1712226285155,1712226281752,1942771,0
1712226285155,1712226281792,1944272,0
1712226285155,1712226281832,1946446,0
1712226285155,1712226281872,1948455,0
1712226285155,1712226281912,1950173,0
1712226285155,1712226281952,1951123,0
1712226285155,1712226281993,1951877,0
1712226285155,1712226282032,1952116,0
1712226285155,1712226282073,1951925,0
1712226285155,1712226282113,1951650,0
1712226285155,1712226282153,1952030,0
1712226285155,1712226282194,1953963,0
1712226285155,1712226282233,1955685,0
1712226285155,1712226282273,1956876,0
1712226285155,1712226282313,1957373,0
1712226285155,1712226282353,1957090,0
1712226285155,1712226282394,1955123,0
1712226285155,1712226282433,1954074,0
1712226285155,1712226282473,1954777,0
1712226285155,1712226282513,1955930,0
1712226285155,1712226282554,1956536,0
1712226285155,1712226282594,1957888,0
1712226285155,1712226282634,1958705,0
1712226285155,1712226282674,1958793,0
1712226285155,1712226282714,1959337,0
1712226285155,1712226282754,1959920,0
1712226285155,1712226282795,1960520,0
1712226285155,1712226282834,1961265,0
1712226285155,1712226282874,1962173,0
1712226285155,1712226282914,1963224,0
1712226285155,1712226282954,1963738,0
1712226285155,1712226282995,1964135,0
1712226285155,1712226283035,1964444,0
1712226285155,1712226283074,1965556,0
1712226285155,1712226283115,1966913,0
1712226285155,1712226283155,1968992,0
1712226285155,1712226283195,1970158,0
1712226285155,1712226283235,1970375,0
1712226285155,1712226283275,1971279,0
1712226285155,1712226283315,1971909,0
1712226285155,1712226283355,1972975,0
1712226285155,1712226283396,1974241,0
1712226285155,1712226283435,1974946,0
1712226285155,1712226283475,1976179,0
1712226285155,1712226283515,1977637,0
1712226285155,1712226283555,1979126,0
1712226285155,1712226283596,1980503,0
1712226285155,1712226283636,1981418,0
1712226285155,1712226283676,1982288,0
1712226285155,1712226283716,1983107,0
1712226285155,1712226283756,1982300,0
1712226285155,1712226283797,1980734,0
1712226285155,1712226283836,1979655,0
1712226285155,1712226283876,1978660,0
1712226285155,1712226283916,1978074,0
1712226285155,1712226283956,1978252,0
1712226285155,1712226283997,1978173,0
1712226285155,1712226284036,1978388,0
1712226285155,1712226284076,1978388,0
1712226285155,1712226284117,1978538,0
1712226285155,1712226284157,1978926,0
1712226285155,1712226284198,1979138,0
1712226285155,1712226284237,1979626,0
1712226285155,1712226284277,1980056,0
1712226285155,1712226284317,1980702,0
1712226285155,1712226284357,1981274,0
1712226285155,1712226284398,1981734,0
1712226285155,1712226284437,1982345,0
1712226285155,1712226284477,1982852,0
1712226285155,1712226284517,1983522,0
1712226285155,1712226284558,1983824,0
1712226285155,1712226284598,1982653,0
1712226285155,1712226284638,1981210,0
1712226285155,1712226284678,1980057,0
1712226285155,1712226284718,1979678,0
1712226285155,1712226284758,1979161,0
1712226285155,1712226284799,1979063,0
1712226285155,1712226284838,1979385,0
1712226285155,1712226284878,1979498,0
1712226285155,1712226284918,1979657,0
1712226285155,1712226284959,1979809,0
1712226285155,1712226284999,1980165,0
1712226285155,1712226285039,1980638,0
1712226285155,1712226285079,1981013,0
1712226297137,1712226285117,1981593,0
1712226297137,1712226285157,1982152,0
1712226297137,1712226285198,1982854,0
1712226297137,1712226285237,1983357,0
1712226297137,1712226285277,1984169,0
1712226297137,1712226285317,1984920,0
1712226297137,1712226285357,1985627,0
1712226297137,1712226285398,1986483,0
1712226297137,1712226285438,1985863,0
1712226297137,1712226285478,1984443,0
1712226297137,1712226285518,1983390,0
1712226297137,1712226285558,1982682,0
1712226297137,1712226285599,1982437,0
1712226297137,1712226285638,1982137,0
1712226297137,1712226285678,1982406,0
1712226297137,1712226285718,1982721,0
1712226297137,1712226285758,1982895,0
1712226297137,1712226285799,1983036,0
1712226297137,1712226285839,1983352,0
1712226297137,1712226285879,1983803,0
1712226297137,1712226285919,1984178,0
1712226297137,1712226285959,1984824,0
1712226297137,1712226286000,1985327,0
1712226297137,1712226286039,1986092,0
1712226297137,1712226286079,1986638,0
1712226297137,1712226286119,1987391,0
1712226297137,1712226286159,1988108,0
1712226297137,1712226286200,1988872,0
1712226297137,1712226286239,1989745,0
1712226297137,1712226286280,1990549,0
1712226297137,1712226286320,1991216,0
1712226297137,1712226286360,1990383,0
1712226297137,1712226286401,1989109,0
1712226297137,1712226286440,1988504,0
1712226297137,1712226286480,1988213,0
1712226297137,1712226286520,1988125,0
1712226297137,1712226286560,1988433,0
1712226297137,1712226286601,1988750,0
1712226297137,1712226286641,1989070,0
1712226297137,1712226286681,1989333,0
1712226297137,1712226286721,1989696,0
1712226297137,1712226286761,1990240,0
1712226297137,1712226286802,1990894,0
1712226297137,1712226286841,1991547,0
1712226297137,1712226286881,1992156,0
1712226297137,1712226286921,1992908,0
1712226297137,1712226286961,1993644,0
1712226297137,1712226287002,1994523,0
1712226297137,1712226287041,1995198,0
1712226297137,1712226287082,1996149,0
1712226297137,1712226287122,1996912,0
1712226297137,1712226287162,1997867,0
1712226297137,1712226287202,1998766,0
1712226297137,1712226287242,1999628,0
1712226297137,1712226287282,1999617,0
1712226297137,1712226287322,1998682,0
1712226297137,1712226287362,1998020,0
1712226297137,1712226287403,1997893,0
1712226297137,1712226287442,1998156,0
1712226297137,1712226287483,1998360,0
1712226297137,1712226287523,1999045,0
1712226297137,1712226287563,1999591,0
1712226297137,1712226287604,1999925,0
1712226297137,1712226287643,2000492,0
1712226297137,1712226287683,2001036,0
1712226297137,1712226287723,2001929,0
1712226297137,1712226287763,2002449,0
1712226297137,1712226287804,2003316,0
1712226297137,1712226287844,2003972,0
1712226297137,1712226287884,2004815,0
1712226297137,1712226287924,2005569,0
1712226297137,1712226287964,2006350,0
1712226297137,1712226288005,2007243,0
1712226297137,1712226288044,2008084,0
1712226297137,1712226288084,2009017,0
1712226297137,1712226288124,2009955,0
1712226297137,1712226288164,2010165,0
1712226297137,1712226288205,2009399,0
1712226297137,1712226288244,2009058,0
1712226297137,1712226288284,2009136,0
1712226297137,1712226288325,2009450,0
1712226297137,1712226288365,2009954,0
1712226297137,1712226288406,2010665,0
1712226297137,1712226288445,2011318,0
1712226297137,1712226288485,2011870,0
1712226297137,1712226288525,2012241,0
1712226297137,1712226288565,2012933,0
1712226297137,1712226288606,2013658,0
1712226297137,1712226288645,2014355,0
1712226297137,1712226288686,2015142,0
1712226297137,1712226288726,2015880,0
1712226297137,1712226288766,2016566,0
1712226297137,1712226288807,2017300,0
1712226297137,1712226288846,2018002,0
1712226297137,1712226288886,2018891,0
1712226297137,1712226288926,2019649,0
1712226297137,1712226288966,2020461,0
1712226297137,1712226289007,2021259,0
1712226297137,1712226289047,2021973,0
1712226297137,1712226289087,2022938,0
1712226297137,1712226289127,2023733,0
1712226297137,1712226289167,2024545,0
1712226297137,1712226289208,2024038,0
1712226297137,1712226289247,2023144,0
1712226297137,1712226289287,2022901,0
1712226297137,1712226289327,2023180,0
1712226297137,1712226289367,2023572,0
1712226297137,1712226289408,2024234,0
1712226297137,1712226289448,2024642,0
1712226297137,1712226289488,2025090,0
1712226297137,1712226289528,2025520,0
1712226297137,1712226289568,2025960,0
1712226297137,1712226289609,2026584,0
1712226297137,1712226289648,2027354,0
1712226297137,1712226289688,2027872,0
1712226297137,1712226289728,2028571,0
1712226297137,1712226289769,2029159,0
1712226297137,1712226289809,2029690,0
1712226297137,1712226289849,2030496,0
1712226297137,1712226289889,2031079,0
1712226297137,1712226289929,2031751,0
1712226297137,1712226289969,2032403,0
1712226297137,1712226290010,2033055,0
1712226297137,1712226290049,2033868,0
1712226297137,1712226290089,2034524,0
1712226297137,1712226290130,2035287,0
1712226297137,1712226290170,2035542,0
1712226297137,1712226290210,2034501,0
1712226297137,1712226290250,2033762,0
1712226297137,1712226290290,2033603,0
1712226297137,1712226290330,2033518,0
1712226297137,1712226290370,2033833,0
1712226297137,1712226290411,2034200,0
1712226297137,1712226290451,2034516,0
1712226297137,1712226290491,2034795,0
1712226297137,1712226290531,2034961,0
1712226297137,1712226290571,2035397,0
1712226297137,1712226290612,2035821,0
1712226297137,1712226290651,2036160,0
1712226297137,1712226290691,2036659,0
1712226297137,1712226290731,2037083,0
1712226297137,1712226290771,2037608,0
1712226297137,1712226290812,2038000,0
1712226297137,1712226290851,2038493,0
1712226297137,1712226290891,2038960,0
1712226297137,1712226290931,2039448,0
1712226297137,1712226290972,2039899,0
1712226297137,1712226291012,2040471,0
1712226297137,1712226291052,2040867,0
1712226297137,1712226291092,2041351,0
1712226297137,1712226291132,2042055,0
1712226297137,1712226291172,2042070,0
1712226297137,1712226291213,2040880,0
1712226297137,1712226291252,2039865,0
1712226297137,1712226291292,2039230,0
1712226297137,1712226291332,2039015,0
1712226297137,1712226291372,2038822,0
1712226297137,1712226291413,2038752,0
1712226297137,1712226291453,2038771,0
1712226297137,1712226291493,2038788,0
1712226297137,1712226291533,2038638,0
1712226297137,1712226291573,2038436,0
1712226297137,1712226291613,2038561,0
1712226297137,1712226291653,2038678,0
1712226297137,1712226291693,2038837,0
1712226297137,1712226291733,2038893,0
1712226297137,1712226291773,2038918,0
1712226297137,1712226291814,2039020,0
1712226297137,1712226291853,2039091,0
1712226297137,1712226291893,2039248,0
1712226297137,1712226291934,2039487,0
1712226297137,1712226291974,2039710,0
1712226297137,1712226292014,2039992,0
1712226297137,1712226292054,2040282,0
1712226297137,1712226292094,2040764,0
1712226297137,1712226292134,2040829,0
1712226297137,1712226292174,2039764,0
1712226297137,1712226292215,2037936,0
1712226297137,1712226292254,2036539,0
1712226297137,1712226292294,2035304,0
1712226297137,1712226292334,2034461,0
1712226297137,1712226292374,2033696,0
1712226297137,1712226292415,2033187,0
1712226297137,1712226292455,2032507,0
1712226297137,1712226292495,2032034,0
1712226297137,1712226292535,2031368,0
1712226297137,1712226292575,2030833,0
1712226297137,1712226292616,2030494,0
1712226297137,1712226292655,2030342,0
1712226297137,1712226292695,2030131,0
1712226297137,1712226292735,2029944,0
1712226297137,1712226292776,2029695,0
1712226297137,1712226292816,2029538,0
1712226297137,1712226292856,2029429,0
1712226297137,1712226292896,2029355,0
1712226297137,1712226292936,2029447,0
1712226297137,1712226292976,2029511,0
1712226297137,1712226293017,2029631,0
1712226297137,1712226293056,2029551,0
1712226297137,1712226293096,2029595,0
1712226297137,1712226293136,2027644,0
1712226297137,1712226293176,2025524,0
1712226297137,1712226293217,2023906,0
1712226297137,1712226293257,2022462,0
1712226297137,1712226293296,2021240,0
1712226297137,1712226293337,2020401,0
1712226297137,1712226293377,2019618,0
1712226297137,1712226293417,2018856,0
1712226297137,1712226293457,2018214,0
1712226297137,1712226293497,2017535,0
1712226297137,1712226293537,2017060,0
1712226297137,1712226293577,2016691,0
1712226297137,1712226293618,2016442,0
1712226297137,1712226293657,2016058,0
1712226297137,1712226293698,2015935,0
1712226297137,1712226293738,2015679,0
1712226297137,1712226293778,2015604,0
1712226297137,1712226293819,2015523,0
1712226297137,1712226293858,2015674,0
1712226297137,1712226293898,2015621,0
1712226297137,1712226293938,2015801,0
1712226297137,1712226293978,2015896,0
1712226297137,1712226294019,2015932,0
1712226297137,1712226294058,2016190,0
1712226297137,1712226294099,2016485,0
1712226297137,1712226294139,2016721,0
1712226297137,1712226294179,2016014,0
1712226297137,1712226294220,2013876,0
1712226297137,1712226294259,2011708,0
1712226297137,1712226294299,2010107,0
1712226297137,1712226294339,2008703,0
1712226297137,1712226294379,2007576,0
1712226297137,1712226294420,2006724,0
1712226297137,1712226294460,2006165,0
1712226297137,1712226294499,2005372,0
1712226297137,1712226294540,2004800,0
1712226297137,1712226294580,2004188,0
1712226297137,1712226294620,2003870,0
1712226297137,1712226294660,2003496,0
1712226297137,1712226294700,2003307,0
1712226297137,1712226294740,2003213,0
1712226297137,1712226294780,2003128,0
1712226297137,1712226294821,2003189,0
1712226297137,1712226294860,2003032,0
1712226297137,1712226294900,2003206,0
1712226297137,1712226294941,2003200,0
1712226297137,1712226294981,2003388,0
1712226297137,1712226295022,2003615,0
1712226297137,1712226295061,2003832,0
1712226297137,1712226295101,2004089,0
1712226297137,1712226295141,2004507,0
1712226297137,1712226295182,2004732,0
1712226297137,1712226295222,2003345,0
1712226297137,1712226295262,2001328,0
1712226297137,1712226295302,1999720,0
1712226297137,1712226295342,1998521,0
1712226297137,1712226295382,1997479,0
1712226297137,1712226295423,1996786,0
1712226297137,1712226295462,1996273,0
1712226297137,1712226295502,1995901,0
1712226297137,1712226295542,1995364,0
1712226297137,1712226295582,1994960,0
1712226297137,1712226295623,1994568,0
1712226297137,1712226295663,1994612,0
1712226297137,1712226295703,1994541,0
1712226297137,1712226295743,1994580,0
1712226297137,1712226295783,1994403,0
1712226297137,1712226295824,1994613,0
1712226297137,1712226295863,1994681,0
1712226297137,1712226295903,1994812,0
1712226297137,1712226295943,1995045,0
1712226297137,1712226295984,1995407,0
1712226297137,1712226296024,1995693,0
1712226297137,1712226296064,1995990,0
1712226297137,1712226296104,1996269,0
1712226297137,1712226296144,1996768,0
1712226297137,1712226296184,1997356,0
1712226297137,1712226296225,1997540,0
1712226297137,1712226296264,1996371,0
1712226297137,1712226296304,1994397,0
1712226297137,1712226296345,1993173,0
1712226297137,1712226296385,1992265,0
1712226297137,1712226296425,1991389,0
1712226297137,1712226296465,1990957,0
1712226297137,1712226296505,1990796,0
1712226297137,1712226296545,1990511,0
1712226297137,1712226296585,1990190,0
1712226297137,1712226296626,1989919,0
1712226297137,1712226296665,1989847,0
1712226297137,1712226296706,1990006,0
1712226297137,1712226296746,1989928,0
1712226297137,1712226296786,1990103,0
1712226297137,1712226296826,1990232,0
1712226297137,1712226296866,1990513,0
1712226297137,1712226296906,1990814,0
1712226297137,1712226296946,1991165,0
1712226297137,1712226296986,1991443,0
1712226297137,1712226297027,1991916,0
1712226297137,1712226297067,1992360,0
1712226297137,1712226297107,1992681,0
1712226309198,1712226297150,1993265,0
1712226309198,1712226297190,1993936,0
1712226309198,1712226297231,1994303,0
1712226309198,1712226297270,1994957,0
1712226309198,1712226297310,1995532,0
1712226309198,1712226297351,1996050,0
1712226309198,1712226297391,1996839,0
1712226309198,1712226297431,1997387,0
1712226309198,1712226297471,1996799,0
1712226309198,1712226297511,1995003,0
1712226309198,1712226297551,1993774,0
1712226309198,1712226297591,1993013,0
1712226309198,1712226297632,1992504,0
1712226309198,1712226297671,1992020,0
1712226309198,1712226297712,1991940,0
1712226309198,1712226297752,1991690,0
1712226309198,1712226297792,1991528,0
1712226309198,1712226297833,1991390,0
1712226309198,1712226297872,1991394,0
1712226309198,1712226297912,1991406,0
1712226309198,1712226297953,1991549,0
1712226309198,1712226297992,1992351,0
1712226309198,1712226298033,1997145,0
1712226309198,1712226298073,2005878,0
1712226309198,1712226298113,2016179,0
1712226309198,1712226298153,2023771,0
1712226309198,1712226298193,2031381,0
1712226309198,1712226298234,2040159,0
1712226309198,1712226298273,2041896,0
1712226309198,1712226298313,2040987,0
1712226309198,1712226298353,2042338,0
1712226309198,1712226298393,2036718,0
1712226309198,1712226298434,2020571,0
1712226309198,1712226298474,2002039,0
1712226309198,1712226298514,1985773,0
1712226309198,1712226298554,1979663,0
1712226309198,1712226298594,1976165,0
1712226309198,1712226298634,1973038,0
1712226309198,1712226298674,1974235,0
1712226309198,1712226298714,1974950,0
1712226309198,1712226298754,1973059,0
1712226309198,1712226298794,1983718,0
1712226309198,1712226298835,1985556,0
1712226309198,1712226298874,1985847,0
1712226309198,1712226298915,1997119,0
1712226309198,1712226298954,2005517,0
1712226309198,1712226298995,2007767,0
1712226309198,1712226299036,2005645,0
1712226309198,1712226299075,2006019,0
1712226309198,1712226299115,2003091,0
1712226309198,1712226299155,2002384,0
1712226309198,1712226299195,2005812,0
1712226309198,1712226299236,2010328,0
1712226309198,1712226299275,2020742,0
1712226309198,1712226299315,2024745,0
1712226309198,1712226299355,2035350,0
1712226309198,1712226299395,2034111,0
1712226309198,1712226299436,2035443,0
1712226309198,1712226299476,2042298,0
1712226309198,1712226299516,2034605,0
1712226309198,1712226299556,2024541,0
1712226309198,1712226299596,2011412,0
1712226309198,1712226299637,2007327,0
1712226309198,1712226299676,2006832,0
1712226309198,1712226299716,2003968,0
1712226309198,1712226299756,2002809,0
1712226309198,1712226299796,2007344,0
1712226309198,1712226299837,2006837,0
1712226309198,1712226299876,2007017,0
1712226309198,1712226299916,2011621,0
1712226309198,1712226299956,2016124,0
1712226309198,1712226299997,2019028,0
1712226309198,1712226300037,2018151,0
1712226309198,1712226300077,2019601,0
1712226309198,1712226300117,2019782,0
1712226309198,1712226300157,2023917,0
1712226309198,1712226300197,2020576,0
1712226309198,1712226300238,2021042,0
1712226309198,1712226300277,2020470,0
1712226309198,1712226300317,2022630,0
1712226309198,1712226300357,2024903,0
1712226309198,1712226300397,2027424,0
1712226309198,1712226300438,2027458,0
1712226309198,1712226300478,2028977,0
1712226309198,1712226300518,2031598,0
1712226309198,1712226300558,2033057,0
1712226309198,1712226300598,2033132,0
1712226309198,1712226300639,2036300,0
1712226309198,1712226300678,2037058,0
1712226309198,1712226300718,2040667,0
1712226309198,1712226300758,2043741,0
1712226309198,1712226300798,2046307,0
1712226309198,1712226300839,2048327,0
1712226309198,1712226300879,2048697,0
1712226309198,1712226300919,2047658,0
1712226309198,1712226300959,2049238,0
1712226309198,1712226300999,2052791,0
1712226309198,1712226301040,2052639,0
1712226309198,1712226301079,2051969,0
1712226309198,1712226301119,2051805,0
1712226309198,1712226301159,2050244,0
1712226309198,1712226301199,2048526,0
1712226309198,1712226301240,2046013,0
1712226309198,1712226301280,2041414,0
1712226309198,1712226301320,2036132,0
1712226309198,1712226301360,2031965,0
1712226309198,1712226301400,2026407,0
1712226309198,1712226301441,2023063,0
1712226309198,1712226301480,2018343,0
1712226309198,1712226301520,2014564,0
1712226309198,1712226301560,2012332,0
1712226309198,1712226301600,2009923,0
1712226309198,1712226301641,2008054,0
1712226309198,1712226301681,2006968,0
1712226309198,1712226301721,2006151,0
1712226309198,1712226301761,2004976,0
1712226309198,1712226301801,2003550,0
1712226309198,1712226301841,2002468,0
1712226309198,1712226301881,2001510,0
1712226309198,1712226301921,2000802,0
1712226309198,1712226301961,2000405,0
1712226309198,1712226302001,2000146,0
1712226309198,1712226302042,1999833,0
1712226309198,1712226302081,2000197,0
1712226309198,1712226302122,2000156,0
1712226309198,1712226302162,2000503,0
1712226309198,1712226302202,2001203,0
1712226309198,1712226302242,2000075,0
1712226309198,1712226302282,1999328,0
1712226309198,1712226302322,2002479,0
1712226309198,1712226302362,2004166,0
1712226309198,1712226302402,2005971,0
1712226309198,1712226302443,2009371,0
1712226309198,1712226302482,2006276,0
1712226309198,1712226302523,2006987,0
1712226309198,1712226302563,2003849,0
1712226309198,1712226302603,2001744,0
1712226309198,1712226302644,2002234,0
1712226309198,1712226302683,1998341,0
1712226309198,1712226302723,2002394,0
1712226309198,1712226302763,2005240,0
1712226309198,1712226302803,2007475,0
1712226309198,1712226302844,2006473,0
1712226309198,1712226302883,1998511,0
1712226309198,1712226302923,1988651,0
1712226309198,1712226302963,1981594,0
1712226309198,1712226303004,1964763,0
1712226309198,1712226303044,1948990,0
1712226309198,1712226303084,1939366,0
1712226309198,1712226303124,1933892,0
1712226309198,1712226303164,1936504,0
1712226309198,1712226303204,1947136,0
1712226309198,1712226303245,1953720,0
1712226309198,1712226303284,1947910,0
1712226309198,1712226303324,1952467,0
1712226309198,1712226303365,1962189,0
1712226309198,1712226303405,1972587,0
1712226309198,1712226303445,1978003,0
1712226309198,1712226303485,1981121,0
1712226309198,1712226303525,1986008,0
1712226309198,1712226303565,1985791,0
1712226309198,1712226303605,1988027,0
1712226309198,1712226303646,1988594,0
1712226309198,1712226303685,1987804,0
1712226309198,1712226303726,1988494,0
1712226309198,1712226303766,1990291,0
1712226309198,1712226303806,1990889,0
1712226309198,1712226303847,1991688,0
1712226309198,1712226303886,1992631,0
1712226309198,1712226303926,1993833,0
1712226309198,1712226303966,1995116,0
1712226309198,1712226304006,1993803,0
1712226309198,1712226304047,1991351,0
1712226309198,1712226304087,1989338,0
1712226309198,1712226304126,1987214,0
1712226309198,1712226304167,1984469,0
1712226309198,1712226304210,1981465,0
1712226309198,1712226304248,1979004,0
1712226309198,1712226304287,1976111,0
1712226309198,1712226304327,1973523,0
1712226309198,1712226304367,1970841,0
1712226309198,1712226304407,1968239,0
1712226309198,1712226304448,1966401,0
1712226309198,1712226304487,1964647,0
1712226309198,1712226304528,1963389,0
1712226309198,1712226304568,1961922,0
1712226309198,1712226304608,1960522,0
1712226309198,1712226304649,1959444,0
1712226309198,1712226304688,1958650,0
1712226309198,1712226304728,1957849,0
1712226309198,1712226304768,1957208,0
1712226309198,1712226304808,1956902,0
1712226309198,1712226304849,1956295,0
1712226309198,1712226304889,1955887,0
1712226309198,1712226304929,1955500,0
1712226309198,1712226304969,1953351,0
1712226309198,1712226305009,1949255,0
1712226309198,1712226305050,1944850,0
1712226309198,1712226305089,1940356,0
1712226309198,1712226305129,1935613,0
1712226309198,1712226305170,1930553,0
1712226309198,1712226305210,1925629,0
1712226309198,1712226305250,1921610,0
1712226309198,1712226305290,1918281,0
1712226309198,1712226305330,1915470,0
1712226309198,1712226305370,1913192,0
1712226309198,1712226305410,1911524,0
1712226309198,1712226305451,1910389,0
1712226309198,1712226305490,1909000,0
1712226309198,1712226305531,1908250,0
1712226309198,1712226305571,1907459,0
1712226309198,1712226305611,1906864,0
1712226309198,1712226305652,1906399,0
1712226309198,1712226305691,1906132,0
1712226309198,1712226305731,1905973,0
1712226309198,1712226305771,1905932,0
1712226309198,1712226305811,1906225,0
1712226309198,1712226305852,1906395,0
1712226309198,1712226305892,1906695,0
1712226309198,1712226305932,1905694,0
1712226309198,1712226305972,1902696,0
1712226309198,1712226306012,1899537,0
1712226309198,1712226306053,1897218,0
1712226309198,1712226306092,1895587,0
1712226309198,1712226306132,1894048,0
1712226309198,1712226306173,1893200,0
1712226309198,1712226306213,1892535,0
1712226309198,1712226306253,1891800,0
1712226309198,1712226306293,1890886,0
1712226309198,1712226306333,1890366,0
1712226309198,1712226306373,1890096,0
1712226309198,1712226306416,1890089,0
1712226309198,1712226306454,1890018,0
1712226309198,1712226306493,1890055,0
1712226309198,1712226306533,1890199,0
1712226309198,1712226306573,1890303,0
1712226309198,1712226306614,1890638,0
1712226309198,1712226306654,1890969,0
1712226309198,1712226306693,1891460,0
1712226309198,1712226306734,1891883,0
1712226309198,1712226306774,1892561,0
1712226309198,1712226306814,1893168,0
1712226309198,1712226306855,1893996,0
1712226309198,1712226306894,1893993,0
1712226309198,1712226306934,1891607,0
1712226309198,1712226306974,1889016,0
1712226309198,1712226307014,1886977,0
1712226309198,1712226307055,1885529,0
1712226309198,1712226307094,1884508,0
1712226309198,1712226307134,1883983,0
1712226309198,1712226307174,1883382,0
1712226309198,1712226307215,1883084,0
1712226309198,1712226307255,1882772,0
1712226309198,1712226307295,1883064,0
1712226309198,1712226307335,1883939,0
1712226309198,1712226307375,1884747,0
1712226309198,1712226307415,1885233,0
1712226309198,1712226307456,1885791,0
1712226309198,1712226307495,1886396,0
1712226309198,1712226307535,1886939,0
1712226309198,1712226307575,1887475,0
1712226309198,1712226307615,1888129,0
1712226309198,1712226307656,1888928,0
1712226309198,1712226307696,1889621,0
1712226309198,1712226307736,1890517,0
1712226309198,1712226307776,1891297,0
1712226309198,1712226307816,1892283,0
1712226309198,1712226307857,1893051,0
1712226309198,1712226307896,1892765,0
1712226309198,1712226307936,1890812,0
1712226309198,1712226307976,1889056,0
1712226309198,1712226308016,1888030,0
1712226309198,1712226308057,1887579,0
1712226309198,1712226308097,1887373,0
1712226309198,1712226308137,1887548,0
1712226309198,1712226308177,1887912,0
1712226309198,1712226308217,1888006,0
1712226309198,1712226308257,1888423,0
1712226309198,1712226308297,1888822,0
1712226309198,1712226308337,1889428,0
1712226309198,1712226308377,1890299,0
1712226309198,1712226308417,1890994,0
1712226309198,1712226308458,1891918,0
1712226309198,1712226308497,1892656,0
1712226309198,1712226308538,1893510,0
1712226309198,1712226308578,1894484,0
1712226309198,1712226308620,1895569,0
1712226309198,1712226308659,1896498,0
1712226309198,1712226308698,1897600,0
1712226309198,1712226308738,1898733,0
1712226309198,1712226308778,1900170,0
1712226309198,1712226308818,1901415,0
1712226309198,1712226308859,1900790,0
1712226309198,1712226308898,1899541,0
1712226309198,1712226308938,1898663,0
1712226309198,1712226308978,1898597,0
1712226309198,1712226309019,1898949,0
1712226309198,1712226309059,1899418,0
1712226309198,1712226309099,1899927,0
1712226309198,1712226309139,1900410,0
1712226321243,1712226309180,1900713,0
1712226321243,1712226309220,1901250,0
1712226321243,1712226309261,1901964,0
1712226321243,1712226309300,1902740,0
1712226321243,1712226309341,1903723,0
1712226321243,1712226309381,1904476,0
1712226321243,1712226309421,1905352,0
1712226321243,1712226309461,1906125,0
1712226321243,1712226309501,1906964,0
1712226321243,1712226309541,1907994,0
1712226321243,1712226309581,1908984,0
1712226321243,1712226309621,1910045,0
1712226321243,1712226309662,1911160,0
1712226321243,1712226309701,1912243,0
1712226321243,1712226309742,1913239,0
1712226321243,1712226309782,1912559,0
1712226321243,1712226309822,1910960,0
1712226321243,1712226309863,1910192,0
1712226321243,1712226309902,1910041,0
1712226321243,1712226309942,1910014,0
1712226321243,1712226309982,1910282,0
1712226321243,1712226310022,1910794,0
1712226321243,1712226310063,1911235,0
1712226321243,1712226310103,1911463,0
1712226321243,1712226310143,1911798,0
1712226321243,1712226310183,1912323,0
1712226321243,1712226310223,1913024,0
1712226321243,1712226310264,1913688,0
1712226321243,1712226310303,1914369,0
1712226321243,1712226310343,1915224,0
1712226321243,1712226310383,1915916,0
1712226321243,1712226310423,1916509,0
1712226321243,1712226310464,1917290,0
1712226321243,1712226310504,1918257,0
1712226321243,1712226310544,1919292,0
1712226321243,1712226310584,1920318,0
1712226321243,1712226310624,1921412,0
1712226321243,1712226310665,1922384,0
1712226321243,1712226310704,1922264,0
1712226321243,1712226310744,1920856,0
1712226321243,1712226310784,1919691,0
1712226321243,1712226310825,1919361,0
1712226321243,1712226310865,1919273,0
1712226321243,1712226310905,1919680,0
1712226321243,1712226310945,1920240,0
1712226321243,1712226310985,1920563,0
1712226321243,1712226311025,1920861,0
1712226321243,1712226311066,1921071,0
1712226321243,1712226311105,1921066,0
1712226321243,1712226311145,1921630,0
1712226321243,1712226311185,1922309,0
1712226321243,1712226311225,1922978,0
1712226321243,1712226311266,1923738,0
1712226321243,1712226311306,1924489,0
1712226321243,1712226311346,1925374,0
1712226321243,1712226311386,1926501,0
1712226321243,1712226311426,1927377,0
1712226321243,1712226311467,1928402,0
1712226321243,1712226311506,1929359,0
1712226321243,1712226311546,1930434,0
1712226321243,1712226311586,1931085,0
1712226321243,1712226311626,1930178,0
1712226321243,1712226311667,1928994,0
1712226321243,1712226311707,1928154,0
1712226321243,1712226311747,1928122,0
1712226321243,1712226311787,1928137,0
1712226321243,1712226311827,1928599,0
1712226321243,1712226311868,1928957,0
1712226321243,1712226311907,1929149,0
1712226321243,1712226311947,1929063,0
1712226321243,1712226311987,1929352,0
1712226321243,1712226312027,1929869,0
1712226321243,1712226312068,1930192,0
1712226321243,1712226312107,1931347,0
1712226321243,1712226312148,1932436,0
1712226321243,1712226312188,1933794,0
1712226321243,1712226312228,1934353,0
1712226321243,1712226312269,1935252,0
1712226321243,1712226312308,1936046,0
1712226321243,1712226312348,1936788,0
1712226321243,1712226312388,1937119,0
1712226321243,1712226312428,1935529,0
1712226321243,1712226312469,1933796,0
1712226321243,1712226312509,1932895,0
1712226321243,1712226312549,1932554,0
1712226321243,1712226312589,1932249,0
1712226321243,1712226312629,1932257,0
1712226321243,1712226312670,1932375,0
1712226321243,1712226312709,1932388,0
1712226321243,1712226312749,1932199,0
1712226321243,1712226312789,1932412,0
1712226321243,1712226312830,1932666,0
1712226321243,1712226312870,1932954,0
1712226321243,1712226312910,1933425,0
1712226321243,1712226312950,1933706,0
1712226321243,1712226312990,1934013,0
1712226321243,1712226313030,1934508,0
1712226321243,1712226313071,1934881,0
1712226321243,1712226313110,1935408,0
1712226321243,1712226313150,1936083,0
1712226321243,1712226313191,1936639,0
1712226321243,1712226313231,1937328,0
1712226321243,1712226313271,1937924,0
1712226321243,1712226313311,1938717,0
1712226321243,1712226313351,1938638,0
1712226321243,1712226313391,1936908,0
1712226321243,1712226313431,1935279,0
1712226321243,1712226313472,1934332,0
1712226321243,1712226313511,1934078,0
1712226321243,1712226313551,1933782,0
1712226321243,1712226313592,1933946,0
1712226321243,1712226313632,1933774,0
1712226321243,1712226313673,1933734,0
1712226321243,1712226313712,1933680,0
1712226321243,1712226313752,1933685,0
1712226321243,1712226313792,1933849,0
1712226321243,1712226313832,1934396,0
1712226321243,1712226313873,1934776,0
1712226321243,1712226313913,1935174,0
1712226321243,1712226313953,1935518,0
1712226321243,1712226313993,1936048,0
1712226321243,1712226314033,1936502,0
1712226321243,1712226314074,1936982,0
1712226321243,1712226314113,1937651,0
1712226321243,1712226314153,1938392,0
1712226321243,1712226314193,1939199,0
1712226321243,1712226314233,1939943,0
1712226321243,1712226314274,1939902,0
1712226321243,1712226314314,1938399,0
1712226321243,1712226314353,1936494,0
1712226321243,1712226314394,1935644,0
1712226321243,1712226314434,1935406,0
1712226321243,1712226314474,1935447,0
1712226321243,1712226314514,1935490,0
1712226321243,1712226314554,1935529,0
1712226321243,1712226314594,1935250,0
1712226321243,1712226314634,1935031,0
1712226321243,1712226314675,1935132,0
1712226321243,1712226314714,1935234,0
1712226321243,1712226314754,1935560,0
1712226321243,1712226314794,1935836,0
1712226321243,1712226314834,1936193,0
1712226321243,1712226314875,1936494,0
1712226321243,1712226314915,1936894,0
1712226321243,1712226314954,1937294,0
1712226321243,1712226314995,1937547,0
1712226321243,1712226315035,1938261,0
1712226321243,1712226315075,1938813,0
1712226321243,1712226315115,1939376,0
1712226321243,1712226315155,1939944,0
1712226321243,1712226315195,1940563,0
1712226321243,1712226315235,1939528,0
1712226321243,1712226315276,1937238,0
1712226321243,1712226315315,1935471,0
1712226321243,1712226315355,1934504,0
1712226321243,1712226315396,1933994,0
1712226321243,1712226315435,1933334,0
1712226321243,1712226315476,1933117,0
1712226321243,1712226315516,1932943,0
1712226321243,1712226315556,1932518,0
1712226321243,1712226315596,1932229,0
1712226321243,1712226315636,1932045,0
1712226321243,1712226315677,1932113,0
1712226321243,1712226315716,1932241,0
1712226321243,1712226315756,1932413,0
