dataReceived,timestamp,ppg,status
1712819471646,1712819459558,2154335,0
1712819471646,1712819459596,2152817,0
1712819471646,1712819459637,2151426,0
1712819471646,1712819459676,2108371,0
1712819471646,1712819459716,2106283,0
1712819471646,1712819459756,2105543,0
1712819471646,1712819459797,2105437,0
1712819471646,1712819459838,2105607,0
1712819471646,1712819459877,2120061,0
1712819471646,1712819459917,2122156,0
1712819471646,1712819459957,2125365,0
1712819471646,1712819459997,2129311,0
1712819471646,1712819460039,2133857,0
1712819471646,1712819460078,2138984,0
1712819471646,1712819460118,2143926,0
1712819471646,1712819460158,2149598,0
1712819471646,1712819460198,2155125,0
1712819471646,1712819460239,2161139,0
1712819471646,1712819460279,2167144,0
1712819471646,1712819460319,2173012,0
1712819471646,1712819460359,2179368,0
1712819471646,1712819460399,2185382,0
1712819471646,1712819460440,2191491,0
1712819471646,1712819460479,2198074,0
1712819471646,1712819460519,2204613,0
1712819471646,1712819460560,2209040,0
1712819471646,1712819460599,2208798,0
1712819471646,1712819460641,2206949,0
1712819471646,1712819460680,2207220,0
1712819471646,1712819460720,2207170,0
1712819471646,1712819460760,2203666,0
1712819471646,1712819460800,2203822,0
1712819471646,1712819460841,2203725,0
1712819471646,1712819460880,2204611,0
1712819471646,1712819460921,2204883,0
1712819471646,1712819460961,2206083,0
1712819471646,1712819461001,2208416,0
1712819471646,1712819461042,2211187,0
1712819471646,1712819461081,2214556,0
1712819471646,1712819461121,2218130,0
1712819471646,1712819461161,2221949,0
1712819471646,1712819461201,2226116,0
1712819471646,1712819461242,2230248,0
1712819471646,1712819461282,2234417,0
1712819471646,1712819461322,2238888,0
1712819471646,1712819461362,2243230,0
1712819471646,1712819461402,2247848,0
1712819471646,1712819461443,2252374,0
1712819471646,1712819461482,2254657,0
1712819471646,1712819461522,2251386,0
1712819471646,1712819461562,2245234,0
1712819471646,1712819461602,2240751,0
1712819471646,1712819461644,2236935,0
1712819471646,1712819461683,2233915,0
1712819471646,1712819461723,2233499,0
1712819471646,1712819461766,2233683,0
1712819471646,1712819461803,2233926,0
1712819471646,1712819461844,2234333,0
1712819471646,1712819461883,2235696,0
1712819471646,1712819461923,2237954,0
1712819471646,1712819461963,2240553,0
1712819471646,1712819462004,2243135,0
1712819471646,1712819462045,2244590,0
1712819471646,1712819462084,2246499,0
1712819471646,1712819462124,2248094,0
1712819471646,1712819462164,2252022,0
1712819471646,1712819462204,2255675,0
1712819471646,1712819462245,2257948,0
1712819471646,1712819462284,2261411,0
1712819471646,1712819462325,2265816,0
1712819471646,1712819462365,2268836,0
1712819471646,1712819462405,2273356,0
1712819471646,1712819462446,2264856,0
1712819471646,1712819462485,2254782,0
1712819471646,1712819462525,2248737,0
1712819471646,1712819462565,2246834,0
1712819471646,1712819462606,2247225,0
1712819471646,1712819462647,2248812,0
1712819471646,1712819462686,2252811,0
1712819471646,1712819462726,2257062,0
1712819471646,1712819462766,2261246,0
1712819471646,1712819462806,2265168,0
1712819471646,1712819462847,2268961,0
1712819471646,1712819462887,2272924,0
1712819471646,1712819462927,2277468,0
1712819471646,1712819462967,2281868,0
1712819471646,1712819463007,2286637,0
1712819471646,1712819463048,2291643,0
1712819471646,1712819463087,2297292,0
1712819471646,1712819463127,2303215,0
1712819471646,1712819463167,2309138,0
1712819471646,1712819463208,2314106,0
1712819471646,1712819463249,2318766,0
1712819471646,1712819463288,2322978,0
1712819471646,1712819463328,2324201,0
1712819471646,1712819463368,2321367,0
1712819471646,1712819463408,2318395,0
1712819471646,1712819463449,2318551,0
1712819471646,1712819463489,2318496,0
1712819471646,1712819463529,2317160,0
1712819471646,1712819463569,2315386,0
1712819471646,1712819463609,2309809,0
1712819471646,1712819463650,2300025,0
1712819471646,1712819463689,2289957,0
1712819471646,1712819463729,2283108,0
1712819471646,1712819463769,2278303,0
1712819471646,1712819463810,2276402,0
1712819471646,1712819463850,2275818,0
1712819471646,1712819463890,2275060,0
1712819471646,1712819463930,2274049,0
1712819471646,1712819463973,2271627,0
1712819471646,1712819464011,2269286,0
1712819471646,1712819464052,2267006,0
1712819471646,1712819464091,2265259,0
1712819471646,1712819464132,2259629,0
1712819471646,1712819464172,2241270,0
1712819471646,1712819464212,2219553,0
1712819471646,1712819464253,2200778,0
1712819471646,1712819464293,2185293,0
1712819471646,1712819464333,2170703,0
1712819471646,1712819464373,2160516,0
1712819471646,1712819464414,2151981,0
1712819471646,1712819464454,2144457,0
1712819471646,1712819464494,2136323,0
1712819471646,1712819464534,2130848,0
1712819471646,1712819464574,2126761,0
1712819471646,1712819464615,2122859,0
1712819471646,1712819464656,2121639,0
1712819471646,1712819464695,2119862,0
1712819471646,1712819464735,2118759,0
1712819471646,1712819464776,2116770,0
1712819471646,1712819464816,2118363,0
1712819471646,1712819464857,2121546,0
1712819471646,1712819464897,2124077,0
1712819471646,1712819464937,2114876,0
1712819471646,1712819464977,2099564,0
1712819471646,1712819465017,2084992,0
1712819471646,1712819465058,2071406,0
1712819471646,1712819465098,2057879,0
1712819471646,1712819465138,2046735,0
1712819471646,1712819465178,2039694,0
1712819471646,1712819465219,2033625,0
1712819471646,1712819465260,2028004,0
1712819471646,1712819465299,2023997,0
1712819471646,1712819465339,2022040,0
1712819471646,1712819465380,2021465,0
1712819471646,1712819465420,2021205,0
1712819471646,1712819465460,2021607,0
1712819471646,1712819465500,2021526,0
1712819471646,1712819465540,2021326,0
1712819471646,1712819465580,2020530,0
1712819471646,1712819465621,2019276,0
1712819471646,1712819465661,2018622,0
1712819471646,1712819465701,2018625,0
1712819471646,1712819465741,2011967,0
1712819471646,1712819465781,1990312,0
1712819471646,1712819465821,1963993,0
1712819471646,1712819465862,1939009,0
1712819471646,1712819465902,1916439,0
1712819471646,1712819465942,1895722,0
1712819471646,1712819465982,1879457,0
1712819471646,1712819466022,1867172,0
1712819471646,1712819466063,1856666,0
1712819471646,1712819466103,1848081,0
1712819471646,1712819466143,1842917,0
1712819471646,1712819466183,1842617,0
1712819471646,1712819466223,1846076,0
1712819471646,1712819466264,1852521,0
1712819471646,1712819466303,1862585,0
1712819471646,1712819466344,1871406,0
1712819471646,1712819466384,1886048,0
1712819471646,1712819466424,1898956,0
1712819471646,1712819466465,1909808,0
1712819471646,1712819466505,1920153,0
1712819471646,1712819466545,1930683,0
1712819471646,1712819466585,1940551,0
1712819471646,1712819466625,1949381,0
1712819471646,1712819466666,1947668,0
1712819471646,1712819466706,1936162,0
1712819471646,1712819466746,1924245,0
1712819471646,1712819466786,1914786,0
1712819471646,1712819466827,1906495,0
1712819471646,1712819466867,1900019,0
1712819471646,1712819466907,1897530,0
1712819471646,1712819466947,1896088,0
1712819471646,1712819466988,1894887,0
1712819471646,1712819467029,1894993,0
1712819471646,1712819467070,1897265,0
1712819471646,1712819467109,1901457,0
1712819471646,1712819467149,1906568,0
1712819471646,1712819467190,1912478,0
1712819471646,1712819467230,1918881,0
1712819471646,1712819467271,1925421,0
1712819471646,1712819467310,1932147,0
1712819471646,1712819467351,1939270,0
1712819471646,1712819467391,1947097,0
1712819471646,1712819467431,1955040,0
1712819471646,1712819467472,1962535,0
1712819471646,1712819467512,1959129,0
1712819471646,1712819467552,1947062,0
1712819471646,1712819467592,1935432,0
1712819471646,1712819467632,1926045,0
1712819471646,1712819467673,1918127,0
1712819471646,1712819467713,1912755,0
1712819471646,1712819467753,1912122,0
1712819471646,1712819467794,1913214,0
1712819471646,1712819467834,1914784,0
1712819471646,1712819467875,1916945,0
1712819471646,1712819467914,1920285,0
1712819471646,1712819467954,1924923,0
1712819471646,1712819467995,1929813,0
1712819471646,1712819468035,1935146,0
1712819471646,1712819468076,1940721,0
1712819471646,1712819468115,1946217,0
1712819471646,1712819468156,1952115,0
1712819471646,1712819468196,1958242,0
1712819471646,1712819468236,1964379,0
1712819471646,1712819468277,1970518,0
1712819471646,1712819468317,1976705,0
1712819471646,1712819468357,1983409,0
1712819471646,1712819468397,1989386,0
1712819471646,1712819468437,1985174,0
1712819471646,1712819468478,1973967,0
1712819471646,1712819468518,1963660,0
1712819471646,1712819468558,1956225,0
1712819471646,1712819468598,1949868,0
1712819471646,1712819468639,1945026,0
1712819471646,1712819468680,1943935,0
1712819471646,1712819468719,1943902,0
1712819471646,1712819468760,1943904,0
1712819471646,1712819468800,1944859,0
1712819471646,1712819468840,1947137,0
1712819471646,1712819468881,1951020,0
1712819471646,1712819468920,1955528,0
1712819471646,1712819468960,1960621,0
1712819471646,1712819469001,1965890,0
1712819471646,1712819469041,1971312,0
1712819471646,1712819469081,1976999,0
1712819471646,1712819469121,1982902,0
1712819471646,1712819469161,1989084,0
1712819471646,1712819469201,1995337,0
1712819471646,1712819469242,2002039,0
1712819471646,1712819469282,2008724,0
1712819471646,1712819469322,2007712,0
1712819471646,1712819469362,1998743,0
1712819471646,1712819469402,1989911,0
1712819471646,1712819469442,1983759,0
1712819471646,1712819469483,1979238,0
1712819471646,1712819469523,1976233,0
1712819471646,1712819469563,1976190,0
1712819471646,1712819469603,1976078,0
1712819471646,1712819469643,1976005,0
1712819471646,1712819469684,1978465,0
1712819471646,1712819469724,1986960,0
1712819471646,1712819469764,1997813,0
1712819471646,1712819469804,2007266,0
1712819471646,1712819469844,2017606,0
1712819471646,1712819469885,2028041,0
1712819471646,1712819469925,2036828,0
1712819471646,1712819469965,2044837,0
1712819471646,1712819470005,2053347,0
1712819471646,1712819470045,2062619,0
1712819471646,1712819470086,2071484,0
1712819471646,1712819470126,2077685,0
1712819471646,1712819470166,2074992,0
1712819471646,1712819470206,2068107,0
1712819471646,1712819470247,2062030,0
1712819471646,1712819470288,2057209,0
1712819471646,1712819470328,2051409,0
1712819471646,1712819470369,2045681,0
1712819471646,1712819470409,2041642,0
1712819471646,1712819470449,2038376,0
1712819471646,1712819470490,2034848,0
1712819471646,1712819470530,2032187,0
1712819471646,1712819470570,2031160,0
1712819471646,1712819470610,2031872,0
1712819471646,1712819470650,2034078,0
1712819471646,1712819470692,2037384,0
1712819471646,1712819470731,2041474,0
1712819471646,1712819470771,2045545,0
1712819471646,1712819470812,2049838,0
1712819471646,1712819470852,2053874,0
1712819471646,1712819470893,2058202,0
1712819471646,1712819470932,2062434,0
1712819471646,1712819470972,2059241,0
1712819471646,1712819471013,2048916,0
1712819471646,1712819471053,2040038,0
1712819471646,1712819471094,2032925,0
1712819471646,1712819471133,2027007,0
1712819471646,1712819471174,2021614,0
1712819471646,1712819471214,2018610,0
1712819471646,1712819471254,2015877,0
1712819471646,1712819471295,2014845,0
1712819471646,1712819471335,2014161,0
1712819471646,1712819471375,2016783,0
1712819471646,1712819471415,2021311,0
1712819471646,1712819471455,2028001,0
1712819471646,1712819471496,2034948,0
1712819471646,1712819471536,2042361,0
1712819471646,1712819471576,2047632,0
1712819483681,1712819471614,2051643,0
1712819483681,1712819471654,2053370,0
1712819483681,1712819471695,2055901,0
1712819483681,1712819471735,2064057,0
1712819483681,1712819471775,2074186,0
1712819483681,1712819471815,2074384,0
1712819483681,1712819471855,2076884,0
1712819483681,1712819471896,2078704,0
1712819483681,1712819471936,2089585,0
1712819483681,1712819471976,2093647,0
1712819483681,1712819472016,2096747,0
1712819483681,1712819472056,2102019,0
1712819483681,1712819472097,2106169,0
1712819483681,1712819472137,2109955,0
1712819483681,1712819472177,2113773,0
1712819483681,1712819472217,2117822,0
1712819483681,1712819472257,2121988,0
1712819483681,1712819472298,2125834,0
1712819483681,1712819472337,2128697,0
1712819483681,1712819472378,2132453,0
1712819483681,1712819472418,2136336,0
1712819483681,1712819472458,2140673,0
1712819483681,1712819472499,2144135,0
1712819483681,1712819472538,2143079,0
1712819483681,1712819472578,2141652,0
1712819483681,1712819472619,2141252,0
1712819483681,1712819472659,2141731,0
1712819483681,1712819472700,2142751,0
1712819483681,1712819472741,2144461,0
1712819483681,1712819472781,2146241,0
1712819483681,1712819472821,2148181,0
1712819483681,1712819472861,2150805,0
1712819483681,1712819472902,2154250,0
1712819483681,1712819472942,2158619,0
1712819483681,1712819472982,2163232,0
1712819483681,1712819473022,2168397,0
1712819483681,1712819473062,2172909,0
1712819483681,1712819473103,2176334,0
1712819483681,1712819473143,2181022,0
1712819483681,1712819473183,2184927,0
1712819483681,1712819473223,2187969,0
1712819483681,1712819473263,2187388,0
1712819483681,1712819473304,2177168,0
1712819483681,1712819473344,2167759,0
1712819483681,1712819473384,2159636,0
1712819483681,1712819473424,2153502,0
1712819483681,1712819473465,2152121,0
1712819483681,1712819473506,2149610,0
1712819483681,1712819473545,2148061,0
1712819483681,1712819473585,2145999,0
1712819483681,1712819473625,2147602,0
1712819483681,1712819473666,2148799,0
1712819483681,1712819473708,2150521,0
1712819483681,1712819473747,2151866,0
1712819483681,1712819473787,2154471,0
1712819483681,1712819473828,2159753,0
1712819483681,1712819473868,2166057,0
1712819483681,1712819473909,2171323,0
1712819483681,1712819473948,2175971,0
1712819483681,1712819473988,2181023,0
1712819483681,1712819474029,2186254,0
1712819483681,1712819474069,2186847,0
1712819483681,1712819474110,2176908,0
1712819483681,1712819474149,2168682,0
1712819483681,1712819474190,2163566,0
1712819483681,1712819474230,2158940,0
1712819483681,1712819474270,2154829,0
1712819483681,1712819474311,2152726,0
1712819483681,1712819474351,2151149,0
1712819483681,1712819474391,2151047,0
1712819483681,1712819474431,2153931,0
1712819483681,1712819474472,2155219,0
1712819483681,1712819474513,2156899,0
1712819483681,1712819474552,2158416,0
1712819483681,1712819474592,2160967,0
1712819483681,1712819474633,2164483,0
1712819483681,1712819474673,2168284,0
1712819483681,1712819474714,2172229,0
1712819483681,1712819474754,2176506,0
1712819483681,1712819474794,2181138,0
1712819483681,1712819474834,2182783,0
1712819483681,1712819474874,2173518,0
1712819483681,1712819474916,2162320,0
1712819483681,1712819474955,2154024,0
1712819483681,1712819474995,2147574,0
1712819483681,1712819475036,2142655,0
1712819483681,1712819475076,2143870,0
1712819483681,1712819475117,2147919,0
1712819483681,1712819475156,2154122,0
1712819483681,1712819475196,2160874,0
1712819483681,1712819475236,2168141,0
1712819483681,1712819475277,2175092,0
1712819483681,1712819475318,2181259,0
1712819483681,1712819475357,2185061,0
1712819483681,1712819475397,2193261,0
1712819483681,1712819475437,2198531,0
1712819483681,1712819475477,2203497,0
1712819483681,1712819475518,2208732,0
1712819483681,1712819475558,2213012,0
1712819483681,1712819475598,2216993,0
1712819483681,1712819475638,2214400,0
1712819483681,1712819475678,2199408,0
1712819483681,1712819475719,2186952,0
1712819483681,1712819475759,2177274,0
1712819483681,1712819475799,2167717,0
1712819483681,1712819475839,2159570,0
1712819483681,1712819475879,2154249,0
1712819483681,1712819475920,2150408,0
1712819483681,1712819475959,2146895,0
1712819483681,1712819476000,2144089,0
1712819483681,1712819476040,2143114,0
1712819483681,1712819476080,2143704,0
1712819483681,1712819476121,2146222,0
1712819483681,1712819476160,2149505,0
1712819483681,1712819476201,2152566,0
1712819483681,1712819476241,2155428,0
1712819483681,1712819476281,2158677,0
1712819483681,1712819476322,2161969,0
1712819483681,1712819476362,2166005,0
1712819483681,1712819476402,2170257,0
1712819483681,1712819476442,2174679,0
1712819483681,1712819476482,2179201,0
1712819483681,1712819476523,2178081,0
1712819483681,1712819476563,2174037,0
1712819483681,1712819476603,2169729,0
1712819483681,1712819476643,2166257,0
1712819483681,1712819476683,2161859,0
1712819483681,1712819476724,2159714,0
1712819483681,1712819476764,2160028,0
1712819483681,1712819476804,2160866,0
1712819483681,1712819476845,2161515,0
1712819483681,1712819476885,2161937,0
1712819483681,1712819476926,2163615,0
1712819483681,1712819476965,2165663,0
1712819483681,1712819477005,2168130,0
1712819483681,1712819477047,2170771,0
1712819483681,1712819477087,2174529,0
1712819483681,1712819477128,2178966,0
1712819483681,1712819477167,2185238,0
1712819483681,1712819477208,2192056,0
1712819483681,1712819477248,2198917,0
1712819483681,1712819477288,2204744,0
1712819483681,1712819477329,2207841,0
1712819483681,1712819477369,2215477,0
1712819483681,1712819477409,2221161,0
1712819483681,1712819477449,2225672,0
1712819483681,1712819477489,2225130,0
1712819483681,1712819477531,2223551,0
1712819483681,1712819477570,2220651,0
1712819483681,1712819477610,2217928,0
1712819483681,1712819477651,2215834,0
1712819483681,1712819477691,2214315,0
1712819483681,1712819477732,2213290,0
1712819483681,1712819477772,2212200,0
1712819483681,1712819477812,2211117,0
1712819483681,1712819477852,2210722,0
1712819483681,1712819477892,2211336,0
1712819483681,1712819477933,2212565,0
1712819483681,1712819477973,2214267,0
1712819483681,1712819478013,2216069,0
1712819483681,1712819478053,2217726,0
1712819483681,1712819478093,2219121,0
1712819483681,1712819478134,2220965,0
1712819483681,1712819478174,2223421,0
1712819483681,1712819478214,2226455,0
1712819483681,1712819478255,2233035,0
1712819483681,1712819478295,2225893,0
1712819483681,1712819478336,2213258,0
1712819483681,1712819478376,2203219,0
1712819483681,1712819478416,2195329,0
1712819483681,1712819478456,2188417,0
1712819483681,1712819478496,2182922,0
1712819483681,1712819478537,2179551,0
1712819483681,1712819478576,2176810,0
1712819483681,1712819478616,2174478,0
1712819483681,1712819478657,2172788,0
1712819483681,1712819478697,2172233,0
1712819483681,1712819478738,2172708,0
1712819483681,1712819478777,2173682,0
1712819483681,1712819478817,2175011,0
1712819483681,1712819478857,2176743,0
1712819483681,1712819478898,2178745,0
1712819483681,1712819478938,2180984,0
1712819483681,1712819478978,2183494,0
1712819483681,1712819479018,2186141,0
1712819483681,1712819479058,2189018,0
1712819483681,1712819479099,2192008,0
1712819483681,1712819479140,2195103,0
1712819483681,1712819479179,2196077,0
1712819483681,1712819479219,2184778,0
1712819483681,1712819479259,2169404,0
1712819483681,1712819479299,2156440,0
1712819483681,1712819479340,2146126,0
1712819483681,1712819479380,2137071,0
1712819483681,1712819479420,2129990,0
1712819483681,1712819479460,2125788,0
1712819483681,1712819479501,2121888,0
1712819483681,1712819479541,2117462,0
1712819483681,1712819479581,2114220,0
1712819483681,1712819479621,2112051,0
1712819483681,1712819479661,2111425,0
1712819483681,1712819479701,2112529,0
1712819483681,1712819479743,2115136,0
1712819483681,1712819479782,2119049,0
1712819483681,1712819479822,2123364,0
1712819483681,1712819479863,2128991,0
1712819483681,1712819479903,2134773,0
1712819483681,1712819479944,2142542,0
1712819483681,1712819479983,2148778,0
1712819483681,1712819480023,2154402,0
1712819483681,1712819480064,2158315,0
1712819483681,1712819480104,2158473,0
1712819483681,1712819480145,2148425,0
1712819483681,1712819480184,2140038,0
1712819483681,1712819480225,2134711,0
1712819483681,1712819480265,2131312,0
1712819483681,1712819480305,2128365,0
1712819483681,1712819480346,2126166,0
1712819483681,1712819480386,2124010,0
1712819483681,1712819480427,2121976,0
1712819483681,1712819480468,2120021,0
1712819483681,1712819480508,2118822,0
1712819483681,1712819480549,2118066,0
1712819483681,1712819480588,2118158,0
1712819483681,1712819480628,2118610,0
1712819483681,1712819480669,2119751,0
1712819483681,1712819480709,2120718,0
1712819483681,1712819480750,2121841,0
1712819483681,1712819480789,2122872,0
1712819483681,1712819480830,2125237,0
1712819483681,1712819480870,2127980,0
1712819483681,1712819480910,2127455,0
1712819483681,1712819480951,2123704,0
1712819483681,1712819480991,2121467,0
1712819483681,1712819481031,2114731,0
1712819483681,1712819481071,2110976,0
1712819483681,1712819481111,2105255,0
1712819483681,1712819481152,2104762,0
1712819483681,1712819481192,2102923,0
1712819483681,1712819481232,2098111,0
1712819483681,1712819481273,2093203,0
1712819483681,1712819481313,2090177,0
1712819483681,1712819481354,2088353,0
1712819483681,1712819481393,2090282,0
1712819483681,1712819481434,2096757,0
1712819483681,1712819481474,2105096,0
1712819483681,1712819481514,2114847,0
1712819483681,1712819481555,2120801,0
1712819483681,1712819481594,2124149,0
1712819483681,1712819481635,2126131,0
1712819483681,1712819481675,2131477,0
1712819483681,1712819481715,2136243,0
1712819483681,1712819481756,2138696,0
1712819483681,1712819481796,2124982,0
1712819483681,1712819481836,2106763,0
1712819483681,1712819481876,2091413,0
1712819483681,1712819481916,2077469,0
1712819483681,1712819481957,2067505,0
1712819483681,1712819481996,2061849,0
1712819483681,1712819482037,2058948,0
1712819483681,1712819482077,2057315,0
1712819483681,1712819482117,2055799,0
1712819483681,1712819482158,2055770,0
1712819483681,1712819482197,2057276,0
1712819483681,1712819482237,2060419,0
1712819483681,1712819482278,2065740,0
1712819483681,1712819482318,2071853,0
1712819483681,1712819482359,2079507,0
1712819483681,1712819482398,2087684,0
1712819483681,1712819482438,2096637,0
1712819483681,1712819482478,2106290,0
1712819483681,1712819482519,2114086,0
1712819483681,1712819482559,2122974,0
1712819483681,1712819482599,2132518,0
1712819483681,1712819482639,2142224,0
1712819483681,1712819482679,2145953,0
1712819483681,1712819482719,2137575,0
1712819483681,1712819482761,2133053,0
1712819483681,1712819482800,2136486,0
1712819483681,1712819482840,2142450,0
1712819483681,1712819482881,2145882,0
1712819483681,1712819482921,2148383,0
1712819483681,1712819482962,2147733,0
1712819483681,1712819483001,2146629,0
1712819483681,1712819483041,2146357,0
1712819483681,1712819483082,2148476,0
1712819483681,1712819483122,2149531,0
1712819483681,1712819483163,2149885,0
1712819483681,1712819483202,2150690,0
1712819483681,1712819483243,2151618,0
1712819483681,1712819483283,2151751,0
1712819483681,1712819483323,2153882,0
1712819483681,1712819483364,2159466,0
1712819483681,1712819483404,2163814,0
1712819483681,1712819483444,2160620,0
1712819483681,1712819483484,2152521,0
1712819483681,1712819483524,2144358,0
1712819483681,1712819483565,2137817,0
1712819483681,1712819483605,2132722,0
1712819483681,1712819483645,2129246,0
1712819495767,1712819483690,2127551,0
1712819495767,1712819483730,2125580,0
1712819495767,1712819483771,2122825,0
1712819495767,1712819483811,2121110,0
1712819495767,1712819483851,2120755,0
1712819495767,1712819483891,2121052,0
1712819495767,1712819483931,2122316,0
1712819495767,1712819483972,2124533,0
1712819495767,1712819484011,2127734,0
1712819495767,1712819484051,2131347,0
1712819495767,1712819484092,2135047,0
1712819495767,1712819484132,2139144,0
1712819495767,1712819484172,2142985,0
1712819495767,1712819484212,2137795,0
1712819495767,1712819484252,2126091,0
1712819495767,1712819484292,2113258,0
1712819495767,1712819484333,2101265,0
1712819495767,1712819484373,2089610,0
1712819495767,1712819484413,2079170,0
1712819495767,1712819484453,2073759,0
1712819495767,1712819484493,2069259,0
1712819495767,1712819484533,2064906,0
1712819495767,1712819484574,2061312,0
1712819495767,1712819484613,2059842,0
1712819495767,1712819484654,2059285,0
1712819495767,1712819484694,2059626,0
1712819495767,1712819484734,2060669,0
1712819495767,1712819484775,2061480,0
1712819495767,1712819484814,2062632,0
1712819495767,1712819484854,2064381,0
1712819495767,1712819484894,2066723,0
1712819495767,1712819484935,2068933,0
1712819495767,1712819484975,2068686,0
1712819495767,1712819485015,2058095,0
1712819495767,1712819485055,2044581,0
1712819495767,1712819485095,2033225,0
1712819495767,1712819485135,2023503,0
1712819495767,1712819485176,2014872,0
1712819495767,1712819485215,2010164,0
1712819495767,1712819485256,2007323,0
1712819495767,1712819485296,2003807,0
1712819495767,1712819485336,1999835,0
1712819495767,1712819485377,1997329,0
1712819495767,1712819485416,1996231,0
1712819495767,1712819485456,1996688,0
1712819495767,1712819485497,1998831,0
1712819495767,1712819485537,2001532,0
1712819495767,1712819485578,2004675,0
1712819495767,1712819485617,2008658,0
1712819495767,1712819485657,2013350,0
1712819495767,1712819485697,2012319,0
1712819495767,1712819485738,2002958,0
1712819495767,1712819485779,1994177,0
1712819495767,1712819485818,1984211,0
1712819495767,1712819485859,1983222,0
1712819495767,1712819485899,1984209,0
1712819495767,1712819485939,1984880,0
1712819495767,1712819485980,1984650,0
1712819495767,1712819486020,1985015,0
1712819495767,1712819486060,1986419,0
1712819495767,1712819486100,1988895,0
1712819495767,1712819486140,1991641,0
1712819495767,1712819486181,1995271,0
1712819495767,1712819486220,1996856,0
1712819495767,1712819486261,1994204,0
1712819495767,1712819486301,1989148,0
1712819495767,1712819486341,1982502,0
1712819495767,1712819486382,1977467,0
1712819495767,1712819486421,1964368,0
1712819495767,1712819486461,1949018,0
1712819495767,1712819486502,1941666,0
1712819495767,1712819486542,1942536,0
1712819495767,1712819486582,1938179,0
1712819495767,1712819486622,1938664,0
1712819495767,1712819486662,1937185,0
1712819495767,1712819486702,1929735,0
1712819495767,1712819486743,1926594,0
1712819495767,1712819486783,1925934,0
1712819495767,1712819486823,1924530,0
1712819495767,1712819486863,1922131,0
1712819495767,1712819486903,1920075,0
1712819495767,1712819486944,1918348,0
1712819495767,1712819486985,1916557,0
1712819495767,1712819487024,1915347,0
1712819495767,1712819487064,1915440,0
1712819495767,1712819487105,1915734,0
1712819495767,1712819487145,1909256,0
1712819495767,1712819487185,1894526,0
1712819495767,1712819487225,1879711,0
1712819495767,1712819487265,1867763,0
1712819495767,1712819487305,1857897,0
1712819495767,1712819487346,1850985,0
1712819495767,1712819487387,1847432,0
1712819495767,1712819487426,1845105,0
1712819495767,1712819487467,1842575,0
1712819495767,1712819487507,1839837,0
1712819495767,1712819487547,1838637,0
1712819495767,1712819487588,1838738,0
1712819495767,1712819487627,1840699,0
1712819495767,1712819487668,1843931,0
1712819495767,1712819487708,1847140,0
1712819495767,1712819487748,1851084,0
1712819495767,1712819487789,1856276,0
1712819495767,1712819487829,1860813,0
1712819495767,1712819487869,1857421,0
1712819495767,1712819487909,1851435,0
1712819495767,1712819487950,1846579,0
1712819495767,1712819487991,1843194,0
1712819495767,1712819488030,1840698,0
1712819495767,1712819488070,1841788,0
1712819495767,1712819488111,1845702,0
1712819495767,1712819488151,1850061,0
1712819495767,1712819488192,1852177,0
1712819495767,1712819488231,1854077,0
1712819495767,1712819488271,1857331,0
1712819495767,1712819488312,1861172,0
1712819495767,1712819488352,1865784,0
1712819495767,1712819488393,1871187,0
1712819495767,1712819488433,1876964,0
1712819495767,1712819488473,1882343,0
1712819495767,1712819488513,1881496,0
1712819495767,1712819488553,1873251,0
1712819495767,1712819488596,1864853,0
1712819495767,1712819488636,1859970,0
1712819495767,1712819488676,1857142,0
1712819495767,1712819488716,1856907,0
1712819495767,1712819488757,1858265,0
1712819495767,1712819488798,1859518,0
1712819495767,1712819488837,1860477,0
1712819495767,1712819488877,1862421,0
1712819495767,1712819488918,1865518,0
1712819495767,1712819488958,1869609,0
1712819495767,1712819488999,1874420,0
1712819495767,1712819489038,1879262,0
1712819495767,1712819489078,1884298,0
1712819495767,1712819489119,1889459,0
1712819495767,1712819489159,1894556,0
1712819495767,1712819489200,1892992,0
1712819495767,1712819489239,1884642,0
1712819495767,1712819489280,1876550,0
1712819495767,1712819489320,1871104,0
1712819495767,1712819489360,1867026,0
1712819495767,1712819489401,1865329,0
1712819495767,1712819489440,1865810,0
1712819495767,1712819489480,1866754,0
1712819495767,1712819489521,1867642,0
1712819495767,1712819489561,1869354,0
1712819495767,1712819489601,1872139,0
1712819495767,1712819489641,1875673,0
1712819495767,1712819489681,1879923,0
1712819495767,1712819489721,1884335,0
1712819495767,1712819489762,1889077,0
1712819495767,1712819489802,1893772,0
1712819495767,1712819489842,1898751,0
1712819495767,1712819489882,1902980,0
1712819495767,1712819489922,1899632,0
1712819495767,1712819489962,1891928,0
1712819495767,1712819490003,1886303,0
1712819495767,1712819490043,1883443,0
1712819495767,1712819490083,1881655,0
1712819495767,1712819490123,1882029,0
1712819495767,1712819490163,1883400,0
1712819495767,1712819490204,1884747,0
1712819495767,1712819490244,1885721,0
1712819495767,1712819490284,1887954,0
1712819495767,1712819490324,1890776,0
1712819495767,1712819490365,1894587,0
1712819495767,1712819490405,1898625,0
1712819495767,1712819490445,1903149,0
1712819495767,1712819490485,1907866,0
1712819495767,1712819490525,1912523,0
1712819495767,1712819490566,1917398,0
1712819495767,1712819490607,1922475,0
1712819495767,1712819490646,1926359,0
1712819495767,1712819490686,1923103,0
1712819495767,1712819490727,1917064,0
1712819495767,1712819490767,1912570,0
1712819495767,1712819490808,1910172,0
1712819495767,1712819490848,1908571,0
1712819495767,1712819490888,1908358,0
1712819495767,1712819490928,1909000,0
1712819495767,1712819490968,1909568,0
1712819495767,1712819491009,1909792,0
1712819495767,1712819491049,1911118,0
1712819495767,1712819491089,1913860,0
1712819495767,1712819491129,1917224,0
1712819495767,1712819491169,1920925,0
1712819495767,1712819491211,1924891,0
1712819495767,1712819491250,1928630,0
1712819495767,1712819491290,1932271,0
1712819495767,1712819491331,1935878,0
1712819495767,1712819491371,1939988,0
1712819495767,1712819491412,1944124,0
1712819495767,1712819491453,1943256,0
1712819495767,1712819491493,1936373,0
1712819495767,1712819491533,1929842,0
1712819495767,1712819491573,1926277,0
1712819495767,1712819491614,1923903,0
1712819495767,1712819491654,1922825,0
1712819495767,1712819491694,1923244,0
1712819495767,1712819491734,1924050,0
1712819495767,1712819491775,1924724,0
1712819495767,1712819491816,1925582,0
1712819495767,1712819491855,1927307,0
1712819495767,1712819491895,1929675,0
1712819495767,1712819491936,1932709,0
1712819495767,1712819491976,1935901,0
1712819495767,1712819492017,1939405,0
1712819495767,1712819492057,1942966,0
1712819495767,1712819492097,1946600,0
1712819495767,1712819492137,1950320,0
1712819495767,1712819492177,1958115,0
1712819495767,1712819492218,1960683,0
1712819495767,1712819492258,1956100,0
1712819495767,1712819492298,1949075,0
1712819495767,1712819492338,1944255,0
1712819495767,1712819492378,1941553,0
1712819495767,1712819492419,1940149,0
1712819495767,1712819492459,1939969,0
1712819495767,1712819492499,1940440,0
1712819495767,1712819492539,1940740,0
1712819495767,1712819492579,1941080,0
1712819495767,1712819492620,1941895,0
1712819495767,1712819492660,1943720,0
1712819495767,1712819492700,1945834,0
1712819495767,1712819492740,1948643,0
1712819495767,1712819492780,1951193,0
1712819495767,1712819492821,1954107,0
1712819495767,1712819492860,1957191,0
1712819495767,1712819492901,1960245,0
1712819495767,1712819492941,1963413,0
1712819495767,1712819492981,1966860,0
1712819495767,1712819493022,1970754,0
1712819495767,1712819493061,1974228,0
1712819495767,1712819493101,1971595,0
1712819495767,1712819493142,1964762,0
1712819495767,1712819493182,1958876,0
1712819495767,1712819493223,1956105,0
1712819495767,1712819493262,1954458,0
1712819495767,1712819493302,1953810,0
1712819495767,1712819493343,1952847,0
1712819495767,1712819493383,1950166,0
1712819495767,1712819493424,1947628,0
1712819495767,1712819493463,1946821,0
1712819495767,1712819493504,1947220,0
1712819495767,1712819493544,1948582,0
1712819495767,1712819493584,1949948,0
1712819495767,1712819493625,1951132,0
1712819495767,1712819493664,1951242,0
1712819495767,1712819493705,1951941,0
1712819495767,1712819493745,1953536,0
1712819495767,1712819493785,1956064,0
1712819495767,1712819493826,1958985,0
1712819495767,1712819493867,1959015,0
1712819495767,1712819493907,1951811,0
1712819495767,1712819493947,1942257,0
1712819495767,1712819493988,1934720,0
1712819495767,1712819494029,1929623,0
1712819495767,1712819494068,1926217,0
1712819495767,1712819494108,1925596,0
1712819495767,1712819494149,1926292,0
1712819495767,1712819494189,1926945,0
1712819495767,1712819494230,1927439,0
1712819495767,1712819494269,1928723,0
1712819495767,1712819494310,1930675,0
1712819495767,1712819494350,1933228,0
1712819495767,1712819494390,1936116,0
1712819495767,1712819494431,1939150,0
1712819495767,1712819494471,1942273,0
1712819495767,1712819494511,1945124,0
1712819495767,1712819494551,1947923,0
1712819495767,1712819494591,1950827,0
1712819495767,1712819494632,1954150,0
1712819495767,1712819494672,1957474,0
1712819495767,1712819494712,1960037,0
1712819495767,1712819494752,1954781,0
1712819495767,1712819494792,1944407,0
1712819495767,1712819494834,1935177,0
1712819495767,1712819494873,1928360,0
1712819495767,1712819494913,1922582,0
1712819495767,1712819494954,1918210,0
1712819495767,1712819494994,1915273,0
1712819495767,1712819495035,1912657,0
1712819495767,1712819495074,1909450,0
1712819495767,1712819495115,1907365,0
1712819495767,1712819495155,1906768,0
1712819495767,1712819495195,1907395,0
1712819495767,1712819495236,1909057,0
1712819495767,1712819495276,1911855,0
1712819495767,1712819495316,1915094,0
1712819495767,1712819495356,1918359,0
1712819495767,1712819495396,1921121,0
1712819495767,1712819495438,1923219,0
1712819495767,1712819495477,1925583,0
1712819495767,1712819495517,1928542,0
1712819495767,1712819495558,1931833,0
1712819495767,1712819495598,1935517,0
1712819495767,1712819495638,1939465,0
1712819495767,1712819495678,1942943,0
1712819495767,1712819495718,1938953,0
1712819507841,1712819495753,1927388,0
1712819507841,1712819495793,1915022,0
1712819507841,1712819495834,1906498,0
1712819507841,1712819495874,1899683,0
1712819507841,1712819495914,1893817,0
1712819507841,1712819495954,1889932,0
1712819507841,1712819495994,1886023,0
1712819507841,1712819496035,1881959,0
1712819507841,1712819496074,1878443,0
1712819507841,1712819496114,1876697,0
1712819507841,1712819496154,1875863,0
1712819507841,1712819496194,1875988,0
1712819507841,1712819496235,1876742,0
1712819507841,1712819496275,1877964,0
1712819507841,1712819496315,1879346,0
1712819507841,1712819496355,1881375,0
1712819507841,1712819496395,1883537,0
1712819507841,1712819496436,1885783,0
1712819507841,1712819496476,1888422,0
1712819507841,1712819496516,1891426,0
1712819507841,1712819496556,1894685,0
1712819507841,1712819496596,1897917,0
1712819507841,1712819496637,1894324,0
1712819507841,1712819496677,1883117,0
1712819507841,1712819496717,1871541,0
1712819507841,1712819496757,1863660,0
1712819507841,1712819496797,1857861,0
1712819507841,1712819496838,1853596,0
1712819507841,1712819496878,1851357,0
1712819507841,1712819496918,1849757,0
1712819507841,1712819496958,1848174,0
1712819507841,1712819496998,1847287,0
1712819507841,1712819497039,1847542,0
1712819507841,1712819497079,1848712,0
1712819507841,1712819497119,1850791,0
1712819507841,1712819497159,1853221,0
1712819507841,1712819497200,1855983,0
1712819507841,1712819497243,1858791,0
1712819507841,1712819497282,1861894,0
1712819507841,1712819497322,1865293,0
1712819507841,1712819497363,1868961,0
1712819507841,1712819497403,1872679,0
1712819507841,1712819497444,1876713,0
1712819507841,1712819497483,1880781,0
1712819507841,1712819497523,1883249,0
1712819507841,1712819497564,1876791,0
1712819507841,1712819497604,1864798,0
1712819507841,1712819497645,1854607,0
1712819507841,1712819497684,1847638,0
1712819507841,1712819497725,1841515,0
1712819507841,1712819497765,1837056,0
1712819507841,1712819497805,1834524,0
1712819507841,1712819497846,1832475,0
1712819507841,1712819497886,1830267,0
1712819507841,1712819497926,1829162,0
1712819507841,1712819497966,1829182,0
1712819507841,1712819498006,1830552,0
1712819507841,1712819498047,1832169,0
1712819507841,1712819498087,1834765,0
1712819507841,1712819498127,1837453,0
1712819507841,1712819498168,1840363,0
1712819507841,1712819498208,1843246,0
1712819507841,1712819498249,1846449,0
1712819507841,1712819498289,1850043,0
1712819507841,1712819498329,1853756,0
1712819507841,1712819498369,1857783,0
1712819507841,1712819498409,1861895,0
1712819507841,1712819498450,1866261,0
1712819507841,1712819498490,1869481,0
1712819507841,1712819498530,1864236,0
1712819507841,1712819498571,1853965,0
1712819507841,1712819498611,1845349,0
1712819507841,1712819498652,1834370,0
1712819507841,1712819498692,1830822,0
1712819507841,1712819498732,1829065,0
1712819507841,1712819498772,1827836,0
1712819507841,1712819498812,1826529,0
1712819507841,1712819498853,1826116,0
1712819507841,1712819498892,1827353,0
1712819507841,1712819498933,1830004,0
1712819507841,1712819498973,1832660,0
1712819507841,1712819499013,1835769,0
1712819507841,1712819499054,1838814,0
1712819507841,1712819499093,1841901,0
1712819507841,1712819499133,1845291,0
1712819507841,1712819499174,1848606,0
1712819507841,1712819499214,1852039,0
1712819507841,1712819499254,1855782,0
1712819507841,1712819499294,1860045,0
1712819507841,1712819499334,1864872,0
1712819507841,1712819499374,1867651,0
1712819507841,1712819499415,1862391,0
1712819507841,1712819499455,1853899,0
1712819507841,1712819499495,1847636,0
1712819507841,1712819499535,1843385,0
1712819507841,1712819499575,1840064,0
1712819507841,1712819499615,1838726,0
1712819507841,1712819499656,1838520,0
1712819507841,1712819499696,1838325,0
1712819507841,1712819499736,1838015,0
1712819507841,1712819499776,1838700,0
1712819507841,1712819499816,1840340,0
1712819507841,1712819499857,1842884,0
1712819507841,1712819499897,1845822,0
1712819507841,1712819499937,1849339,0
1712819507841,1712819499977,1852745,0
1712819507841,1712819500018,1856170,0
1712819507841,1712819500059,1860018,0
1712819507841,1712819500098,1863961,0
1712819507841,1712819500138,1867818,0
1712819507841,1712819500179,1872153,0
1712819507841,1712819500219,1876448,0
1712819507841,1712819500260,1879754,0
1712819507841,1712819500299,1875528,0
1712819507841,1712819500340,1867402,0
1712819507841,1712819500380,1860871,0
1712819507841,1712819500420,1856277,0
1712819507841,1712819500461,1852599,0
1712819507841,1712819500501,1849947,0
1712819507841,1712819500541,1849151,0
1712819507841,1712819500581,1848550,0
1712819507841,1712819500621,1848138,0
1712819507841,1712819500662,1848603,0
1712819507841,1712819500702,1850145,0
1712819507841,1712819500742,1852409,0
1712819507841,1712819500782,1854981,0
1712819507841,1712819500823,1858046,0
1712819507841,1712819500864,1861177,0
1712819507841,1712819500903,1864597,0
1712819507841,1712819500943,1867897,0
1712819507841,1712819500984,1871466,0
1712819507841,1712819501024,1875600,0
1712819507841,1712819501065,1879658,0
1712819507841,1712819501104,1884103,0
1712819507841,1712819501144,1888373,0
1712819507841,1712819501185,1892667,0
1712819507841,1712819501225,1896950,0
1712819507841,1712819501266,1897552,0
1712819507841,1712819501305,1891264,0
1712819507841,1712819501346,1883727,0
1712819507841,1712819501386,1879052,0
1712819507841,1712819501426,1875487,0
1712819507841,1712819501467,1872473,0
1712819507841,1712819501507,1871032,0
1712819507841,1712819501548,1870476,0
1712819507841,1712819501589,1870108,0
1712819507841,1712819501629,1869617,0
1712819507841,1712819501670,1870081,0
1712819507841,1712819501710,1871629,0
1712819507841,1712819501750,1873648,0
1712819507841,1712819501790,1876025,0
1712819507841,1712819501830,1878911,0
1712819507841,1712819501871,1881880,0
1712819507841,1712819501911,1885028,0
1712819507841,1712819501951,1888351,0
1712819507841,1712819501991,1891799,0
1712819507841,1712819502031,1895435,0
1712819507841,1712819502072,1899238,0
1712819507841,1712819502112,1903167,0
1712819507841,1712819502152,1907114,0
1712819507841,1712819502192,1911249,0
1712819507841,1712819502232,1913800,0
1712819507841,1712819502273,1909767,0
1712819507841,1712819502313,1903157,0
1712819507841,1712819502353,1898602,0
1712819507841,1712819502393,1896295,0
1712819507841,1712819502433,1894536,0
1712819507841,1712819502474,1893916,0
1712819507841,1712819502513,1894232,0
1712819507841,1712819502554,1894101,0
1712819507841,1712819502594,1893824,0
1712819507841,1712819502634,1893928,0
1712819507841,1712819502675,1895312,0
1712819507841,1712819502714,1897766,0
1712819507841,1712819502754,1900576,0
1712819507841,1712819502795,1903628,0
1712819507841,1712819502835,1906811,0
1712819507841,1712819502876,1910094,0
1712819507841,1712819502915,1913892,0
1712819507841,1712819502955,1918060,0
1712819507841,1712819502995,1922915,0
1712819507841,1712819503036,1928052,0
1712819507841,1712819503077,1933166,0
1712819507841,1712819503116,1937693,0
1712819507841,1712819503156,1936668,0
1712819507841,1712819503196,1930548,0
1712819507841,1712819503237,1924088,0
1712819507841,1712819503278,1919873,0
1712819507841,1712819503317,1916538,0
1712819507841,1712819503357,1913809,0
1712819507841,1712819503398,1912552,0
1712819507841,1712819503438,1911858,0
1712819507841,1712819503479,1911039,0
1712819507841,1712819503518,1909992,0
1712819507841,1712819503559,1910042,0
1712819507841,1712819503599,1911115,0
1712819507841,1712819503639,1913228,0
1712819507841,1712819503680,1915554,0
1712819507841,1712819503720,1917929,0
1712819507841,1712819503760,1920312,0
1712819507841,1712819503800,1922875,0
1712819507841,1712819503840,1925687,0
1712819507841,1712819503881,1928649,0
1712819507841,1712819503921,1931588,0
1712819507841,1712819503961,1934521,0
1712819507841,1712819504002,1937609,0
1712819507841,1712819504042,1941074,0
1712819507841,1712819504083,1943414,0
1712819507841,1712819504122,1939132,0
1712819507841,1712819504162,1930941,0
1712819507841,1712819504203,1924108,0
1712819507841,1712819504243,1919382,0
1712819507841,1712819504284,1915444,0
1712819507841,1712819504323,1912609,0
1712819507841,1712819504364,1910981,0
1712819507841,1712819504404,1909764,0
1712819507841,1712819504444,1908209,0
1712819507841,1712819504485,1907282,0
1712819507841,1712819504525,1907377,0
1712819507841,1712819504565,1908095,0
1712819507841,1712819504605,1909568,0
1712819507841,1712819504645,1911310,0
1712819507841,1712819504686,1913059,0
1712819507841,1712819504726,1915207,0
1712819507841,1712819504766,1917360,0
1712819507841,1712819504806,1920009,0
1712819507841,1712819504847,1922987,0
1712819507841,1712819504889,1925994,0
1712819507841,1712819504929,1929147,0
1712819507841,1712819504969,1932214,0
1712819507841,1712819505009,1935457,0
1712819507841,1712819505050,1938243,0
1712819507841,1712819505091,1930596,0
1712819507841,1712819505130,1921495,0
1712819507841,1712819505170,1915512,0
1712819507841,1712819505211,1911360,0
1712819507841,1712819505251,1907569,0
1712819507841,1712819505292,1905391,0
1712819507841,1712819505331,1904027,0
1712819507841,1712819505372,1902084,0
1712819507841,1712819505412,1900277,0
1712819507841,1712819505452,1899873,0
1712819507841,1712819505493,1900539,0
1712819507841,1712819505532,1902114,0
1712819507841,1712819505572,1903970,0
1712819507841,1712819505612,1906130,0
1712819507841,1712819505653,1908783,0
1712819507841,1712819505694,1911608,0
1712819507841,1712819505733,1914852,0
1712819507841,1712819505773,1917985,0
1712819507841,1712819505813,1921227,0
1712819507841,1712819505853,1924829,0
1712819507841,1712819505894,1928738,0
1712819507841,1712819505934,1931571,0
1712819507841,1712819505974,1926214,0
1712819507841,1712819506014,1916157,0
1712819507841,1712819506055,1908154,0
1712819507841,1712819506095,1902483,0
1712819507841,1712819506135,1897560,0
1712819507841,1712819506175,1893590,0
1712819507841,1712819506215,1891434,0
1712819507841,1712819506256,1889212,0
1712819507841,1712819506297,1887120,0
1712819507841,1712819506336,1885606,0
1712819507841,1712819506376,1885348,0
1712819507841,1712819506417,1886226,0
1712819507841,1712819506457,1887563,0
1712819507841,1712819506498,1889304,0
1712819507841,1712819506537,1891366,0
1712819507841,1712819506577,1893723,0
1712819507841,1712819506618,1896070,0
1712819507841,1712819506658,1898695,0
1712819507841,1712819506699,1901603,0
1712819507841,1712819506738,1904781,0
1712819507841,1712819506779,1907985,0
1712819507841,1712819506819,1911209,0
1712819507841,1712819506859,1914812,0
1712819507841,1712819506900,1914920,0
1712819507841,1712819506940,1905853,0
1712819507841,1712819506980,1894152,0
1712819507841,1712819507020,1885383,0
1712819507841,1712819507060,1878771,0
1712819507841,1712819507101,1872506,0
1712819507841,1712819507141,1868388,0
1712819507841,1712819507181,1865546,0
1712819507841,1712819507221,1862637,0
1712819507841,1712819507262,1859579,0
1712819507841,1712819507303,1857790,0
1712819507841,1712819507342,1857359,0
1712819507841,1712819507383,1857847,0
1712819507841,1712819507423,1858951,0
1712819507841,1712819507463,1860432,0
1712819507841,1712819507504,1862252,0
1712819507841,1712819507543,1864170,0
1712819507841,1712819507584,1866459,0
1712819507841,1712819507624,1868748,0
1712819507841,1712819507664,1871554,0
1712819507841,1712819507705,1874647,0
1712819507841,1712819507745,1877765,0
1712819507841,1712819507785,1881307,0
1712819519890,1712819507831,1884971,0
1712819519890,1712819507871,1887120,0
1712819519890,1712819507912,1880407,0
1712819519890,1712819507952,1868969,0
1712819519890,1712819507992,1859159,0
1712819519890,1712819508032,1851645,0
1712819519890,1712819508072,1845471,0
1712819519890,1712819508113,1841170,0
1712819519890,1712819508152,1838548,0
1712819519890,1712819508193,1836259,0
1712819519890,1712819508233,1833815,0
1712819519890,1712819508273,1832656,0
1712819519890,1712819508314,1832923,0
1712819519890,1712819508354,1834201,0
1712819519890,1712819508394,1836452,0
1712819519890,1712819508434,1838816,0
1712819519890,1712819508474,1841573,0
1712819519890,1712819508515,1844533,0
1712819519890,1712819508555,1847458,0
1712819519890,1712819508595,1850743,0
1712819519890,1712819508635,1854264,0
1712819519890,1712819508675,1858162,0
1712819519890,1712819508717,1862153,0
1712819519890,1712819508758,1866288,0
1712819519890,1712819508798,1866090,0
1712819519890,1712819508838,1857181,0
1712819519890,1712819508878,1846135,0
1712819519890,1712819508919,1838246,0
1712819519890,1712819508959,1832678,0
1712819519890,1712819508999,1827482,0
1712819519890,1712819509039,1824389,0
1712819519890,1712819509079,1822628,0
1712819519890,1712819509120,1821026,0
1712819519890,1712819509160,1819536,0
1712819519890,1712819509200,1819077,0
1712819519890,1712819509240,1819864,0
1712819519890,1712819509280,1821501,0
1712819519890,1712819509321,1823942,0
1712819519890,1712819509361,1826818,0
1712819519890,1712819509401,1829576,0
1712819519890,1712819509441,1832714,0
1712819519890,1712819509481,1835854,0
1712819519890,1712819509522,1839378,0
1712819519890,1712819509562,1843219,0
1712819519890,1712819509602,1847085,0
1712819519890,1712819509642,1851089,0
1712819519890,1712819509682,1855345,0
1712819519890,1712819509723,1859285,0
1712819519890,1712819509763,1857114,0
1712819519890,1712819509803,1846811,0
1712819519890,1712819509843,1836099,0
1712819519890,1712819509884,1828500,0
1712819519890,1712819509925,1822300,0
1712819519890,1712819509964,1816708,0
1712819519890,1712819510004,1813592,0
1712819519890,1712819510045,1811446,0
1712819519890,1712819510085,1809604,0
1712819519890,1712819510126,1808057,0
1712819519890,1712819510166,1807749,0
1712819519890,1712819510206,1808854,0
1712819519890,1712819510246,1810851,0
1712819519890,1712819510286,1813202,0
1712819519890,1712819510327,1815910,0
1712819519890,1712819510367,1818784,0
1712819519890,1712819510407,1821629,0
1712819519890,1712819510447,1824820,0
1712819519890,1712819510487,1828179,0
1712819519890,1712819510529,1831818,0
1712819519890,1712819510568,1835590,0
1712819519890,1712819510608,1839511,0
1712819519890,1712819510649,1843485,0
1712819519890,1712819510689,1847613,0
1712819519890,1712819510730,1849328,0
1712819519890,1712819510769,1841856,0
1712819519890,1712819510809,1830665,0
1712819519890,1712819510850,1822071,0
1712819519890,1712819510890,1815859,0
1712819519890,1712819510931,1810181,0
1712819519890,1712819510971,1806307,0
1712819519890,1712819511011,1804387,0
1712819519890,1712819511051,1802666,0
1712819519890,1712819511091,1800936,0
1712819519890,1712819511132,1800210,0
1712819519890,1712819511172,1801043,0
1712819519890,1712819511212,1802660,0
1712819519890,1712819511253,1805384,0
1712819519890,1712819511293,1808605,0
1712819519890,1712819511334,1811759,0
1712819519890,1712819511373,1815287,0
1712819519890,1712819511413,1818794,0
1712819519890,1712819511454,1822380,0
1712819519890,1712819511494,1826502,0
1712819519890,1712819511535,1830531,0
1712819519890,1712819511574,1839650,0
1712819519890,1712819511615,1837624,0
1712819519890,1712819511655,1828114,0
1712819519890,1712819511695,1818398,0
1712819519890,1712819511736,1811832,0
1712819519890,1712819511776,1806630,0
1712819519890,1712819511816,1802343,0
1712819519890,1712819511856,1800747,0
1712819519890,1712819511896,1799898,0
1712819519890,1712819511937,1798881,0
1712819519890,1712819511977,1798438,0
1712819519890,1712819512017,1799194,0
1712819519890,1712819512057,1801121,0
1712819519890,1712819512097,1803852,0
1712819519890,1712819512138,1806921,0
1712819519890,1712819512177,1810522,0
1712819519890,1712819512218,1814227,0
1712819519890,1712819512258,1818033,0
1712819519890,1712819512298,1822025,0
1712819519890,1712819512339,1826205,0
1712819519890,1712819512378,1830461,0
1712819519890,1712819512418,1834873,0
1712819519890,1712819512459,1839469,0
1712819519890,1712819512499,1844203,0
1712819519890,1712819512540,1845115,0
1712819519890,1712819512579,1836403,0
1712819519890,1712819512619,1825122,0
1712819519890,1712819512660,1816761,0
1712819519890,1712819512700,1810525,0
1712819519890,1712819512741,1804911,0
1712819519890,1712819512780,1801399,0
1712819519890,1712819512821,1800002,0
1712819519890,1712819512861,1798848,0
1712819519890,1712819512901,1797738,0
1712819519890,1712819512942,1797886,0
1712819519890,1712819512981,1799193,0
1712819519890,1712819513022,1801567,0
1712819519890,1712819513062,1804335,0
1712819519890,1712819513102,1807578,0
1712819519890,1712819513143,1810888,0
1712819519890,1712819513183,1814477,0
1712819519890,1712819513223,1818125,0
1712819519890,1712819513263,1822117,0
1712819519890,1712819513304,1826420,0
1712819519890,1712819513344,1830851,0
1712819519890,1712819513384,1835516,0
1712819519890,1712819513424,1840188,0
1712819519890,1712819513464,1844914,0
1712819519890,1712819513505,1849670,0
1712819519890,1712819513546,1852884,0
1712819519890,1712819513585,1846484,0
1712819519890,1712819513625,1835770,0
1712819519890,1712819513666,1827615,0
1712819519890,1712819513706,1822547,0
1712819519890,1712819513747,1818222,0
1712819519890,1712819513787,1814962,0
1712819519890,1712819513827,1813894,0
1712819519890,1712819513867,1813193,0
1712819519890,1712819513907,1812137,0
1712819519890,1712819513948,1812030,0
1712819519890,1712819513988,1813117,0
1712819519890,1712819514028,1815113,0
1712819519890,1712819514068,1817914,0
1712819519890,1712819514108,1821139,0
1712819519890,1712819514150,1824581,0
1712819519890,1712819514189,1828060,0
1712819519890,1712819514229,1831928,0
1712819519890,1712819514270,1836238,0
1712819519890,1712819514310,1840972,0
1712819519890,1712819514351,1845931,0
1712819519890,1712819514390,1851130,0
1712819519890,1712819514431,1856270,0
1712819519890,1712819514471,1861586,0
1712819519890,1712819514511,1863691,0
1712819519890,1712819514552,1856809,0
1712819519890,1712819514592,1847455,0
1712819519890,1712819514632,1841953,0
1712819519890,1712819514672,1839025,0
1712819519890,1712819514712,1836505,0
1712819519890,1712819514753,1835525,0
1712819519890,1712819514793,1835520,0
1712819519890,1712819514833,1835079,0
1712819519890,1712819514876,1834642,0
1712819519890,1712819514914,1835240,0
1712819519890,1712819514955,1837168,0
1712819519890,1712819514995,1839843,0
1712819519890,1712819515035,1843180,0
1712819519890,1712819515076,1846645,0
1712819519890,1712819515116,1850002,0
1712819519890,1712819515157,1853526,0
1712819519890,1712819515196,1857199,0
1712819519890,1712819515236,1861027,0
1712819519890,1712819515276,1865112,0
1712819519890,1712819515316,1869277,0
1712819519890,1712819515358,1873428,0
1712819519890,1712819515397,1877899,0
1712819519890,1712819515437,1882237,0
1712819519890,1712819515477,1883079,0
1712819519890,1712819515517,1874867,0
1712819519890,1712819515558,1864107,0
1712819519890,1712819515598,1856819,0
1712819519890,1712819515638,1851757,0
1712819519890,1712819515678,1847143,0
1712819519890,1712819515718,1843827,0
1712819519890,1712819515759,1842334,0
1712819519890,1712819515799,1840895,0
1712819519890,1712819515839,1839518,0
1712819519890,1712819515879,1838986,0
1712819519890,1712819515919,1839789,0
1712819519890,1712819515960,1841450,0
1712819519890,1712819516000,1843724,0
1712819519890,1712819516040,1846475,0
1712819519890,1712819516080,1849158,0
1712819519890,1712819516120,1852117,0
1712819519890,1712819516161,1855211,0
1712819519890,1712819516201,1858576,0
1712819519890,1712819516241,1861935,0
1712819519890,1712819516281,1865623,0
1712819519890,1712819516322,1869567,0
1712819519890,1712819516362,1873478,0
1712819519890,1712819516402,1877486,0
1712819519890,1712819516442,1881695,0
1712819519890,1712819516482,1881576,0
1712819519890,1712819516523,1872823,0
1712819519890,1712819516564,1861661,0
1712819519890,1712819516603,1854082,0
1712819519890,1712819516643,1848847,0
1712819519890,1712819516684,1844079,0
1712819519890,1712819516724,1841112,0
1712819519890,1712819516765,1839920,0
1712819519890,1712819516805,1839076,0
1712819519890,1712819516845,1838019,0
1712819519890,1712819516885,1837662,0
1712819519890,1712819516925,1838461,0
1712819519890,1712819516966,1839965,0
1712819519890,1712819517006,1841971,0
1712819519890,1712819517046,1844430,0
1712819519890,1712819517089,1847194,0
1712819519890,1712819517127,1849954,0
1712819519890,1712819517168,1852855,0
1712819519890,1712819517207,1855918,0
1712819519890,1712819517247,1859346,0
1712819519890,1712819517288,1862898,0
1712819519890,1712819517328,1866839,0
1712819519890,1712819517369,1870725,0
1712819519890,1712819517409,1874895,0
1712819519890,1712819517449,1874693,0
1712819519890,1712819517489,1865897,0
1712819519890,1712819517529,1855779,0
1712819519890,1712819517570,1848876,0
1712819519890,1712819517610,1844807,0
1712819519890,1712819517650,1841186,0
1712819519890,1712819517690,1839695,0
1712819519890,1712819517730,1838835,0
1712819519890,1712819517771,1837127,0
1712819519890,1712819517811,1835668,0
1712819519890,1712819517851,1835526,0
1712819519890,1712819517892,1836655,0
1712819519890,1712819517932,1838704,0
1712819519890,1712819517973,1841236,0
1712819519890,1712819518012,1844145,0
1712819519890,1712819518052,1847060,0
1712819519890,1712819518093,1849974,0
1712819519890,1712819518133,1856506,0
1712819519890,1712819518174,1860003,0
1712819519890,1712819518214,1863808,0
1712819519890,1712819518254,1867796,0
1712819519890,1712819518294,1871137,0
1712819519890,1712819518335,1865475,0
1712819519890,1712819518376,1853523,0
1712819519890,1712819518416,1842542,0
1712819519890,1712819518456,1834879,0
1712819519890,1712819518496,1828595,0
1712819519890,1712819518536,1823183,0
1712819519890,1712819518577,1820327,0
1712819519890,1712819518617,1818244,0
1712819519890,1712819518657,1815474,0
1712819519890,1712819518697,1813510,0
1712819519890,1712819518737,1813294,0
1712819519890,1712819518778,1814206,0
1712819519890,1712819518817,1815995,0
1712819519890,1712819518858,1818071,0
1712819519890,1712819518898,1820725,0
1712819519890,1712819518938,1823399,0
1712819519890,1712819518979,1826346,0
1712819519890,1712819519018,1829353,0
1712819519890,1712819519059,1832780,0
1712819519890,1712819519099,1836328,0
1712819519890,1712819519139,1840185,0
1712819519890,1712819519180,1844098,0
1712819519890,1712819519220,1848282,0
1712819519890,1712819519260,1851533,0
1712819519890,1712819519303,1845396,0
1712819519890,1712819519340,1832910,0
1712819519890,1712819519381,1821737,0
1712819519890,1712819519421,1814096,0
1712819519890,1712819519461,1807372,0
1712819519890,1712819519501,1801383,0
1712819519890,1712819519541,1798416,0
1712819519890,1712819519582,1795803,0
1712819519890,1712819519622,1793200,0
1712819519890,1712819519662,1791532,0
1712819519890,1712819519702,1791281,0
1712819519890,1712819519743,1792165,0
1712819519890,1712819519784,1793918,0
1712819519890,1712819519823,1796258,0
1712819519890,1712819519863,1798977,0
1712819531960,1712819519889,1801725,0
1712819531960,1712819519930,1804749,0
1712819531960,1712819519970,1807937,0
1712819531960,1712819520010,1811342,0
1712819531960,1712819520050,1814888,0
1712819531960,1712819520090,1818459,0
1712819531960,1712819520130,1822237,0
1712819531960,1712819520171,1826274,0
1712819531960,1712819520210,1830131,0
1712819531960,1712819520250,1833619,0
1712819531960,1712819520291,1828204,0
1712819531960,1712819520331,1816283,0
1712819531960,1712819520372,1805592,0
1712819531960,1712819520411,1798664,0
1712819531960,1712819520451,1793583,0
1712819531960,1712819520491,1789217,0
1712819531960,1712819520532,1786718,0
1712819531960,1712819520572,1784097,0
1712819531960,1712819520612,1781725,0
1712819531960,1712819520652,1780158,0
1712819531960,1712819520692,1779151,0
1712819531960,1712819520732,1778392,0
1712819531960,1712819520773,1777713,0
1712819531960,1712819520813,1777307,0
1712819531960,1712819520853,1777910,0
1712819531960,1712819520893,1778514,0
1712819531960,1712819520933,1778195,0
1712819531960,1712819520974,1777170,0
1712819531960,1712819521013,1776583,0
1712819531960,1712819521053,1777363,0
1712819531960,1712819521094,1778657,0
1712819531960,1712819521134,1781998,0
1712819531960,1712819521175,1785439,0
1712819531960,1712819521214,1781069,0
1712819531960,1712819521254,1768906,0
1712819531960,1712819521294,1756481,0
1712819531960,1712819521335,1747782,0
1712819531960,1712819521376,1742694,0
1712819531960,1712819521415,1740980,0
1712819531960,1712819521455,1743241,0
1712819531960,1712819521495,1746898,0
1712819531960,1712819521535,1751522,0
1712819531960,1712819521576,1756907,0
1712819531960,1712819521616,1762762,0
1712819531960,1712819521656,1770262,0
1712819531960,1712819521696,1779490,0
1712819531960,1712819521736,1788548,0
1712819531960,1712819521777,1796501,0
1712819531960,1712819521817,1803643,0
1712819531960,1712819521857,1810910,0
1712819531960,1712819521897,1818290,0
1712819531960,1712819521938,1825663,0
1712819531960,1712819521979,1833839,0
1712819531960,1712819522018,1841375,0
1712819531960,1712819522058,1839898,0
1712819531960,1712819522099,1829191,0
1712819531960,1712819522139,1818535,0
1712819531960,1712819522180,1812026,0
1712819531960,1712819522219,1808516,0
1712819531960,1712819522259,1807818,0
1712819531960,1712819522300,1810915,0
1712819531960,1712819522340,1815564,0
1712819531960,1712819522381,1820452,0
1712819531960,1712819522420,1824198,0
1712819531960,1712819522460,1827948,0
1712819531960,1712819522500,1830958,0
1712819531960,1712819522541,1832439,0
1712819531960,1712819522582,1833973,0
1712819531960,1712819522621,1831650,0
1712819531960,1712819522661,1826786,0
1712819531960,1712819522701,1823333,0
1712819531960,1712819522741,1820755,0
1712819531960,1712819522782,1819649,0
1712819531960,1712819522822,1819411,0
1712819531960,1712819522862,1819544,0
1712819531960,1712819522902,1818270,0
1712819531960,1712819522942,1806891,0
1712819531960,1712819522983,1792652,0
1712819531960,1712819523023,1781046,0
1712819531960,1712819523063,1772078,0
1712819531960,1712819523103,1763869,0
1712819531960,1712819523143,1757624,0
1712819531960,1712819523184,1753668,0
1712819531960,1712819523224,1750201,0
1712819531960,1712819523264,1747017,0
1712819531960,1712819523304,1745250,0
1712819531960,1712819523344,1745437,0
1712819531960,1712819523385,1746971,0
1712819531960,1712819523425,1750080,0
1712819531960,1712819523465,1755193,0
1712819531960,1712819523505,1763157,0
1712819531960,1712819523546,1775099,0
1712819531960,1712819523586,1789702,0
1712819531960,1712819523626,1804712,0
1712819531960,1712819523666,1818359,0
1712819531960,1712819523706,1825604,0
1712819531960,1712819523747,1822743,0
1712819531960,1712819523788,1817959,0
1712819531960,1712819523827,1816109,0
1712819531960,1712819523867,1817040,0
1712819531960,1712819523908,1819586,0
1712819531960,1712819523948,1825278,0
1712819531960,1712819523989,1832159,0
1712819531960,1712819524029,1837686,0
1712819531960,1712819524069,1842217,0
1712819531960,1712819524109,1847346,0
1712819531960,1712819524149,1853657,0
1712819531960,1712819524190,1860830,0
1712819531960,1712819524230,1867893,0
1712819531960,1712819524270,1875611,0
1712819531960,1712819524310,1883206,0
1712819531960,1712819524351,1890991,0
1712819531960,1712819524392,1898521,0
1712819531960,1712819524431,1906292,0
1712819531960,1712819524471,1914499,0
1712819531960,1712819524512,1922650,0
1712819531960,1712819524552,1928134,0
1712819531960,1712819524593,1921883,0
1712819531960,1712819524632,1913099,0
1712819531960,1712819524672,1908154,0
1712819531960,1712819524713,1906287,0
1712819531960,1712819524753,1905602,0
1712819531960,1712819524794,1907030,0
1712819531960,1712819524833,1909915,0
1712819531960,1712819524874,1911166,0
1712819531960,1712819524914,1910463,0
1712819531960,1712819524954,1910214,0
1712819531960,1712819524995,1910295,0
1712819531960,1712819525035,1910622,0
1712819531960,1712819525075,1912737,0
1712819531960,1712819525115,1916089,0
1712819531960,1712819525156,1919683,0
1712819531960,1712819525196,1922200,0
1712819531960,1712819525236,1923890,0
1712819531960,1712819525276,1924723,0
1712819531960,1712819525317,1927765,0
1712819531960,1712819525357,1932085,0
1712819531960,1712819525398,1938527,0
1712819531960,1712819525437,1944970,0
1712819531960,1712819525478,1937542,0
1712819531960,1712819525518,1939480,0
1712819531960,1712819525558,1943375,0
1712819531960,1712819525599,1951013,0
1712819531960,1712819525639,1960720,0
1712819531960,1712819525679,1968951,0
1712819531960,1712819525719,1974454,0
1712819531960,1712819525759,1974193,0
1712819531960,1712819525800,1973734,0
1712819531960,1712819525839,1978908,0
1712819531960,1712819525879,1986202,0
1712819531960,1712819525920,1990655,0
1712819531960,1712819525960,1998505,0
1712819531960,1712819526001,2007333,0
1712819531960,1712819526040,2016027,0
1712819531960,1712819526080,2023762,0
1712819531960,1712819526121,2031904,0
1712819531960,1712819526161,2038775,0
1712819531960,1712819526202,2045634,0
1712819531960,1712819526241,2051288,0
1712819531960,1712819526281,2051597,0
1712819531960,1712819526322,2051935,0
1712819531960,1712819526362,2054813,0
1712819531960,1712819526403,2059182,0
1712819531960,1712819526442,2065423,0
1712819531960,1712819526482,2069468,0
1712819531960,1712819526522,2071633,0
1712819531960,1712819526563,2073189,0
1712819531960,1712819526604,2077043,0
1712819531960,1712819526643,2082529,0
1712819531960,1712819526683,2088136,0
1712819531960,1712819526724,2093682,0
1712819531960,1712819526764,2099259,0
1712819531960,1712819526805,2104932,0
1712819531960,1712819526844,2110417,0
1712819531960,1712819526884,2115306,0
1712819531960,1712819526925,2119902,0
1712819531960,1712819526965,2123796,0
1712819531960,1712819527006,2128562,0
1712819531960,1712819527045,2133675,0
1712819531960,1712819527086,2132535,0
1712819531960,1712819527126,2119603,0
1712819531960,1712819527166,2112711,0
1712819531960,1712819527207,2113365,0
1712819531960,1712819527247,2114037,0
1712819531960,1712819527287,2113297,0
1712819531960,1712819527327,2114993,0
1712819531960,1712819527367,2118763,0
1712819531960,1712819527408,2121496,0
1712819531960,1712819527448,2122839,0
1712819531960,1712819527488,2124357,0
1712819531960,1712819527528,2128149,0
1712819531960,1712819527569,2132684,0
1712819531960,1712819527610,2137344,0
1712819531960,1712819527649,2141127,0
1712819531960,1712819527689,2145716,0
1712819531960,1712819527730,2148943,0
1712819531960,1712819527770,2152583,0
1712819531960,1712819527811,2157804,0
1712819531960,1712819527850,2163333,0
1712819531960,1712819527891,2168768,0
1712819531960,1712819527931,2172705,0
1712819531960,1712819527971,2164348,0
1712819531960,1712819528012,2154873,0
1712819531960,1712819528052,2147682,0
1712819531960,1712819528092,2142801,0
1712819531960,1712819528132,2138458,0
1712819531960,1712819528172,2135933,0
1712819531960,1712819528213,2134326,0
1712819531960,1712819528253,2131331,0
1712819531960,1712819528293,2127793,0
1712819531960,1712819528333,2124175,0
1712819531960,1712819528374,2122564,0
1712819531960,1712819528415,2121172,0
1712819531960,1712819528454,2120958,0
1712819531960,1712819528495,2119866,0
1712819531960,1712819528535,2119350,0
1712819531960,1712819528575,2119362,0
1712819531960,1712819528616,2119344,0
1712819531960,1712819528655,2119788,0
1712819531960,1712819528696,2120673,0
1712819531960,1712819528736,2122915,0
1712819531960,1712819528776,2123551,0
1712819531960,1712819528817,2114366,0
1712819531960,1712819528857,2104834,0
1712819531960,1712819528897,2098478,0
1712819531960,1712819528937,2092385,0
1712819531960,1712819528978,2089419,0
1712819531960,1712819529018,2090058,0
1712819531960,1712819529058,2088409,0
1712819531960,1712819529098,2082518,0
1712819531960,1712819529138,2075401,0
1712819531960,1712819529178,2070288,0
1712819531960,1712819529219,2067247,0
1712819531960,1712819529259,2066211,0
1712819531960,1712819529299,2066743,0
1712819531960,1712819529339,2069343,0
1712819531960,1712819529379,2074973,0
1712819531960,1712819529420,2080918,0
1712819531960,1712819529460,2085497,0
1712819531960,1712819529500,2088754,0
1712819531960,1712819529540,2091831,0
1712819531960,1712819529580,2086784,0
1712819531960,1712819529621,2067665,0
1712819531960,1712819529660,2048089,0
1712819531960,1712819529701,2033499,0
1712819531960,1712819529741,2022959,0
1712819531960,1712819529781,2015670,0
1712819531960,1712819529822,2012413,0
1712819531960,1712819529861,2010816,0
1712819531960,1712819529901,2010206,0
1712819531960,1712819529942,2011387,0
1712819531960,1712819529982,2014726,0
1712819531960,1712819530023,2018181,0
1712819531960,1712819530062,2022186,0
1712819531960,1712819530103,2025957,0
1712819531960,1712819530143,2029633,0
1712819531960,1712819530183,2030104,0
1712819531960,1712819530224,2030732,0
1712819531960,1712819530263,2032140,0
1712819531960,1712819530304,2033488,0
1712819531960,1712819530344,2035503,0
1712819531960,1712819530384,2037130,0
1712819531960,1712819530425,2028772,0
1712819531960,1712819530465,2009724,0
1712819531960,1712819530505,1991854,0
1712819531960,1712819530546,1979703,0
1712819531960,1712819530586,1969940,0
1712819531960,1712819530627,1962507,0
1712819531960,1712819530666,1957940,0
1712819531960,1712819530706,1953271,0
1712819531960,1712819530747,1949541,0
1712819531960,1712819530787,1948903,0
1712819531960,1712819530828,1952195,0
1712819531960,1712819530867,1956502,0
1712819531960,1712819530908,1962662,0
1712819531960,1712819530948,1968549,0
1712819531960,1712819530988,1973904,0
1712819531960,1712819531029,1978567,0
1712819531960,1712819531069,1983303,0
1712819531960,1712819531109,1988586,0
1712819531960,1712819531150,1993950,0
1712819531960,1712819531190,1999574,0
1712819531960,1712819531231,2004221,0
1712819531960,1712819531270,1996535,0
1712819531960,1712819531310,1981967,0
1712819531960,1712819531351,1971143,0
1712819531960,1712819531391,1964547,0
1712819531960,1712819531432,1959982,0
1712819531960,1712819531471,1957797,0
1712819531960,1712819531512,1955764,0
1712819531960,1712819531552,1953528,0
1712819531960,1712819531592,1950849,0
1712819531960,1712819531633,1949324,0
1712819531960,1712819531673,1949644,0
1712819531960,1712819531713,1950810,0
1712819531960,1712819531753,1953176,0
1712819531960,1712819531793,1957306,0
1712819531960,1712819531834,1963078,0
1712819531960,1712819531874,1968646,0
1712819531960,1712819531914,1975191,0
1712819544068,1712819531969,1981809,0
1712819544068,1712819532009,1991255,0
1712819544068,1712819532050,1999012,0
1712819544068,1712819532089,2001226,0
1712819544068,1712819532130,1999028,0
1712819544068,1712819532170,1998620,0
1712819544068,1712819532210,1999420,0
1712819544068,1712819532251,2001674,0
1712819544068,1712819532290,2005476,0
1712819544068,1712819532330,2003237,0
1712819544068,1712819532371,1997271,0
1712819544068,1712819532411,1994726,0
1712819544068,1712819532452,1994723,0
1712819544068,1712819532492,1996719,0
1712819544068,1712819532532,1998378,0
1712819544068,1712819532572,2000450,0
1712819544068,1712819532612,2002563,0
1712819544068,1712819532653,2005377,0
1712819544068,1712819532692,2008716,0
1712819544068,1712819532733,2012894,0
1712819544068,1712819532773,2016921,0
1712819544068,1712819532813,2011962,0
1712819544068,1712819532854,2000674,0
1712819544068,1712819532893,1993116,0
1712819544068,1712819532933,1988709,0
1712819544068,1712819532974,1986480,0
1712819544068,1712819533014,1986044,0
1712819544068,1712819533055,1984998,0
1712819544068,1712819533094,1984042,0
1712819544068,1712819533134,1981498,0
1712819544068,1712819533174,1980145,0
1712819544068,1712819533215,1980831,0
1712819544068,1712819533255,1981809,0
1712819544068,1712819533295,1979521,0
1712819544068,1712819533335,1978918,0
1712819544068,1712819533375,1981573,0
1712819544068,1712819533415,1985484,0
1712819544068,1712819533457,1990162,0
1712819544068,1712819533496,1995669,0
1712819544068,1712819533536,2002002,0
1712819544068,1712819533576,2008812,0
1712819544068,1712819533616,2015679,0
1712819544068,1712819533657,2012876,0
1712819544068,1712819533697,2007772,0
1712819544068,1712819533737,2006421,0
1712819544068,1712819533777,2007575,0
1712819544068,1712819533818,2008471,0
1712819544068,1712819533858,2011578,0
1712819544068,1712819533898,2014912,0
1712819544068,1712819533938,2017880,0
1712819544068,1712819533978,2020672,0
1712819544068,1712819534019,2023907,0
1712819544068,1712819534060,2028016,0
1712819544068,1712819534099,2032619,0
1712819544068,1712819534139,2037522,0
1712819544068,1712819534181,2042566,0
1712819544068,1712819534221,2047616,0
1712819544068,1712819534262,2052386,0
1712819544068,1712819534301,2056974,0
1712819544068,1712819534341,2061608,0
1712819544068,1712819534382,2066301,0
1712819544068,1712819534422,2070766,0
1712819544068,1712819534463,2071379,0
1712819544068,1712819534502,2065885,0
1712819544068,1712819534543,2060296,0
1712819544068,1712819534583,2058986,0
1712819544068,1712819534623,2060071,0
1712819544068,1712819534664,2062515,0
1712819544068,1712819534704,2060512,0
1712819544068,1712819534744,2052394,0
1712819544068,1712819534784,2048490,0
1712819544068,1712819534824,2047591,0
1712819544068,1712819534865,2050263,0
1712819544068,1712819534905,2054668,0
1712819544068,1712819534945,2053912,0
1712819544068,1712819534985,2052033,0
1712819544068,1712819535026,2048973,0
1712819544068,1712819535066,2046430,0
1712819544068,1712819535106,2043678,0
1712819544068,1712819535146,2041057,0
1712819544068,1712819535186,2037634,0
1712819544068,1712819535227,2029534,0
1712819544068,1712819535268,2018815,0
1712819544068,1712819535307,2012588,0
1712819544068,1712819535347,2010401,0
1712819544068,1712819535388,2008778,0
1712819544068,1712819535428,2007748,0
1712819544068,1712819535469,2005347,0
1712819544068,1712819535509,2002607,0
1712819544068,1712819535549,2003424,0
1712819544068,1712819535589,2004825,0
1712819544068,1712819535631,2011721,0
1712819544068,1712819535672,2021659,0
1712819544068,1712819535711,2030305,0
1712819544068,1712819535752,2039771,0
1712819544068,1712819535792,2043049,0
1712819544068,1712819535832,2042132,0
1712819544068,1712819535873,2042428,0
1712819544068,1712819535912,2043923,0
1712819544068,1712819535952,2044714,0
1712819544068,1712819535993,2032962,0
1712819544068,1712819536033,2012302,0
1712819544068,1712819536074,1992987,0
1712819544068,1712819536113,1979042,0
1712819544068,1712819536153,1970390,0
1712819544068,1712819536193,1969695,0
1712819544068,1712819536234,1971478,0
1712819544068,1712819536274,1974440,0
1712819544068,1712819536314,1976014,0
1712819544068,1712819536354,1976782,0
1712819544068,1712819536394,1977369,0
1712819544068,1712819536434,1979890,0
1712819544068,1712819536475,1982353,0
1712819544068,1712819536515,1986871,0
1712819544068,1712819536555,1990955,0
1712819544068,1712819536595,1994178,0
1712819544068,1712819536635,1997433,0
1712819544068,1712819536676,2000629,0
1712819544068,1712819536716,2004262,0
1712819544068,1712819536756,2008659,0
1712819544068,1712819536796,2012774,0
1712819544068,1712819536836,2002628,0
1712819544068,1712819536877,1990266,0
1712819544068,1712819536917,1987086,0
1712819544068,1712819536957,1989828,0
1712819544068,1712819536997,1995241,0
1712819544068,1712819537037,2002307,0
1712819544068,1712819537078,2007475,0
1712819544068,1712819537118,2004582,0
1712819544068,1712819537158,1998789,0
1712819544068,1712819537199,1997992,0
1712819544068,1712819537239,1998489,0
1712819544068,1712819537280,1998863,0
1712819544068,1712819537319,2000522,0
1712819544068,1712819537359,2002400,0
1712819544068,1712819537400,2004008,0
1712819544068,1712819537440,2006053,0
1712819544068,1712819537481,2008597,0
1712819544068,1712819537520,2012203,0
1712819544068,1712819537561,2015632,0
1712819544068,1712819537601,2014347,0
1712819544068,1712819537641,1999614,0
1712819544068,1712819537682,1984481,0
1712819544068,1712819537722,1975774,0
1712819544068,1712819537762,1972362,0
1712819544068,1712819537802,1971105,0
1712819544068,1712819537842,1973024,0
1712819544068,1712819537883,1970224,0
1712819544068,1712819537923,1961971,0
1712819544068,1712819537963,1947722,0
1712819544068,1712819538003,1935446,0
1712819544068,1712819538044,1927214,0
1712819544068,1712819538085,1923575,0
1712819544068,1712819538124,1925370,0
1712819544068,1712819538165,1929757,0
1712819544068,1712819538205,1934644,0
1712819544068,1712819538245,1938535,0
1712819544068,1712819538286,1943308,0
1712819544068,1712819538325,1948754,0
1712819544068,1712819538366,1953641,0
1712819544068,1712819538406,1958185,0
1712819544068,1712819538446,1949445,0
1712819544068,1712819538487,1922633,0
1712819544068,1712819538527,1899917,0
1712819544068,1712819538567,1884682,0
1712819544068,1712819538607,1873089,0
1712819544068,1712819538648,1859485,0
1712819544068,1712819538688,1859639,0
1712819544068,1712819538728,1852523,0
1712819544068,1712819538768,1848251,0
1712819544068,1712819538808,1851579,0
1712819544068,1712819538849,1852971,0
1712819544068,1712819538890,1855379,0
1712819544068,1712819538929,1857455,0
1712819544068,1712819538969,1862139,0
1712819544068,1712819539010,1873795,0
1712819544068,1712819539050,1875573,0
1712819544068,1712819539091,1878419,0
1712819544068,1712819539131,1882937,0
1712819544068,1712819539171,1889988,0
1712819544068,1712819539211,1896110,0
1712819544068,1712819539251,1889379,0
1712819544068,1712819539292,1876349,0
1712819544068,1712819539331,1868151,0
1712819544068,1712819539372,1863921,0
1712819544068,1712819539412,1861795,0
1712819544068,1712819539452,1863245,0
1712819544068,1712819539493,1867951,0
1712819544068,1712819539532,1869308,0
1712819544068,1712819539572,1867063,0
1712819544068,1712819539613,1866990,0
1712819544068,1712819539653,1870411,0
1712819544068,1712819539694,1874816,0
1712819544068,1712819539733,1880818,0
1712819544068,1712819539773,1889009,0
1712819544068,1712819539813,1897426,0
1712819544068,1712819539854,1905013,0
1712819544068,1712819539894,1915373,0
1712819544068,1712819539934,1926574,0
1712819544068,1712819539974,1936016,0
1712819544068,1712819540014,1941779,0
1712819544068,1712819540054,1945086,0
1712819544068,1712819540095,1932966,0
1712819544068,1712819540135,1917723,0
1712819544068,1712819540175,1909586,0
1712819544068,1712819540215,1905745,0
1712819544068,1712819540255,1903608,0
1712819544068,1712819540296,1907441,0
1712819544068,1712819540336,1915034,0
1712819544068,1712819540376,1921255,0
1712819544068,1712819540416,1927733,0
1712819544068,1712819540457,1933716,0
1712819544068,1712819540497,1937316,0
1712819544068,1712819540537,1940701,0
1712819544068,1712819540577,1944768,0
1712819544068,1712819540617,1949375,0
1712819544068,1712819540658,1953796,0
1712819544068,1712819540699,1958434,0
1712819544068,1712819540738,1963071,0
1712819544068,1712819540778,1968160,0
1712819544068,1712819540819,1971451,0
1712819544068,1712819540859,1963630,0
1712819544068,1712819540902,1951071,0
1712819544068,1712819540941,1944260,0
1712819544068,1712819540981,1941293,0
1712819544068,1712819541022,1940462,0
1712819544068,1712819541062,1942122,0
1712819544068,1712819541103,1942544,0
1712819544068,1712819541142,1937795,0
1712819544068,1712819541183,1931897,0
1712819544068,1712819541223,1923138,0
1712819544068,1712819541263,1916108,0
1712819544068,1712819541304,1914267,0
1712819544068,1712819541344,1914055,0
1712819544068,1712819541384,1913621,0
1712819544068,1712819541424,1911966,0
1712819544068,1712819541464,1909676,0
1712819544068,1712819541505,1908399,0
1712819544068,1712819541545,1908373,0
1712819544068,1712819541585,1908152,0
1712819544068,1712819541625,1906737,0
1712819544068,1712819541666,1904139,0
1712819544068,1712819541707,1901082,0
1712819544068,1712819541746,1898700,0
1712819544068,1712819541787,1896703,0
1712819544068,1712819541827,1896202,0
1712819544068,1712819541867,1897776,0
1712819544068,1712819541908,1899816,0
1712819544068,1712819541947,1902718,0
1712819544068,1712819541988,1905609,0
1712819544068,1712819542028,1908366,0
1712819544068,1712819542068,1913512,0
1712819544068,1712819542109,1919484,0
1712819544068,1712819542149,1927088,0
1712819544068,1712819542189,1938363,0
1712819544068,1712819542229,1947227,0
1712819544068,1712819542269,1954429,0
1712819544068,1712819542310,1959136,0
1712819544068,1712819542350,1964583,0
1712819544068,1712819542390,1969729,0
1712819544068,1712819542430,1973110,0
1712819544068,1712819542470,1962924,0
1712819544068,1712819542511,1949091,0
1712819544068,1712819542551,1942196,0
1712819544068,1712819542591,1937911,0
1712819544068,1712819542631,1933531,0
1712819544068,1712819542671,1927399,0
1712819544068,1712819542712,1923578,0
1712819544068,1712819542752,1928476,0
1712819544068,1712819542792,1936431,0
1712819544068,1712819542832,1943662,0
1712819544068,1712819542872,1953031,0
1712819544068,1712819542913,1961723,0
1712819544068,1712819542952,1971232,0
1712819544068,1712819542993,1980316,0
1712819544068,1712819543033,1989375,0
1712819544068,1712819543073,1998130,0
1712819544068,1712819543114,2004563,0
1712819544068,1712819543153,2010371,0
1712819544068,1712819543193,2017895,0
1712819544068,1712819543234,2026427,0
1712819544068,1712819543274,2023974,0
1712819544068,1712819543315,2005200,0
1712819544068,1712819543354,1992950,0
1712819544068,1712819543394,1987398,0
1712819544068,1712819543435,1985431,0
1712819544068,1712819543475,1989653,0
1712819544068,1712819543516,1994480,0
1712819544068,1712819543555,2001512,0
1712819544068,1712819543596,2007856,0
1712819544068,1712819543636,2013793,0
1712819544068,1712819543676,2017035,0
1712819544068,1712819543717,2019955,0
1712819544068,1712819543756,2023693,0
1712819544068,1712819543798,2028698,0
1712819544068,1712819543838,2032423,0
1712819544068,1712819543878,2034844,0
1712819544068,1712819543919,2037472,0
1712819544068,1712819543959,2041033,0
1712819544068,1712819543999,2046635,0
1712819556089,1712819544024,2047762,0
1712819556089,1712819544064,2032581,0
1712819556089,1712819544105,2024136,0
1712819556089,1712819544145,2025436,0
1712819556089,1712819544185,2029723,0
1712819556089,1712819544225,2033515,0
1712819556089,1712819544265,2036520,0
1712819556089,1712819544306,2039157,0
1712819556089,1712819544345,2041400,0
1712819556089,1712819544385,2043995,0
1712819556089,1712819544426,2047545,0
1712819556089,1712819544466,2051764,0
1712819556089,1712819544507,2055744,0
1712819556089,1712819544546,2060156,0
1712819556089,1712819544587,2064688,0
1712819556089,1712819544627,2068702,0
1712819556089,1712819544667,2073201,0
1712819556089,1712819544708,2077370,0
1712819556089,1712819544747,2081688,0
1712819556089,1712819544788,2086450,0
1712819556089,1712819544828,2085449,0
1712819556089,1712819544868,2069848,0
1712819556089,1712819544909,2057581,0
1712819556089,1712819544949,2051277,0
1712819556089,1712819544989,2047631,0
1712819556089,1712819545029,2045415,0
1712819556089,1712819545070,2044963,0
1712819556089,1712819545111,2044118,0
1712819556089,1712819545150,2041457,0
1712819556089,1712819545190,2038797,0
1712819556089,1712819545231,2036852,0
1712819556089,1712819545271,2036510,0
1712819556089,1712819545312,2035188,0
1712819556089,1712819545351,2032175,0
1712819556089,1712819545392,2029973,0
1712819556089,1712819545432,2027002,0
1712819556089,1712819545472,2024692,0
1712819556089,1712819545513,2023743,0
1712819556089,1712819545553,2022623,0
1712819556089,1712819545593,2022163,0
1712819556089,1712819545633,2018105,0
1712819556089,1712819545673,1977088,0
1712819556089,1712819545714,1958205,0
1712819556089,1712819545754,1942881,0
1712819556089,1712819545794,1930221,0
1712819556089,1712819545834,1919340,0
1712819556089,1712819545875,1908273,0
1712819556089,1712819545915,1895965,0
1712819556089,1712819545955,1884220,0
1712819556089,1712819545995,1874561,0
1712819556089,1712819546035,1867507,0
1712819556089,1712819546075,1862382,0
1712819556089,1712819546116,1857685,0
1712819556089,1712819546156,1854600,0
1712819556089,1712819546196,1851204,0
1712819556089,1712819546236,1848047,0
1712819556089,1712819546276,1845455,0
1712819556089,1712819546317,1842362,0
1712819556089,1712819546357,1837622,0
1712819556089,1712819546397,1823375,0
1712819556089,1712819546437,1797976,0
1712819556089,1712819546477,1773463,0
1712819556089,1712819546518,1754632,0
1712819556089,1712819546557,1739717,0
1712819556089,1712819546598,1727829,0
1712819556089,1712819546638,1717877,0
1712819556089,1712819546678,1707538,0
1712819556089,1712819546719,1697110,0
1712819556089,1712819546758,1687837,0
1712819556089,1712819546798,1681853,0
1712819556089,1712819546839,1678077,0
1712819556089,1712819546879,1675768,0
1712819556089,1712819546920,1675387,0
1712819556089,1712819546959,1676314,0
1712819556089,1712819546999,1677733,0
1712819556089,1712819547040,1679637,0
1712819556089,1712819547080,1681327,0
1712819556089,1712819547121,1672339,0
1712819556089,1712819547160,1652718,0
1712819556089,1712819547201,1634252,0
1712819556089,1712819547241,1620850,0
1712819556089,1712819547281,1610004,0
1712819556089,1712819547322,1601501,0
1712819556089,1712819547362,1593745,0
1712819556089,1712819547402,1586086,0
1712819556089,1712819547442,1579977,0
1712819556089,1712819547482,1576238,0
1712819556089,1712819547523,1575925,0
1712819556089,1712819547563,1577456,0
1712819556089,1712819547603,1580575,0
1712819556089,1712819547643,1583997,0
1712819556089,1712819547684,1587219,0
1712819556089,1712819547725,1590884,0
1712819556089,1712819547764,1594908,0
1712819556089,1712819547805,1600011,0
1712819556089,1712819547845,1601517,0
1712819556089,1712819547885,1591009,0
1712819556089,1712819547926,1577492,0
1712819556089,1712819547965,1568437,0
1712819556089,1712819548006,1563705,0
1712819556089,1712819548046,1562103,0
1712819556089,1712819548086,1564344,0
1712819556089,1712819548127,1569347,0
1712819556089,1712819548167,1576213,0
1712819556089,1712819548207,1583807,0
1712819556089,1712819548247,1592543,0
1712819556089,1712819548288,1602263,0
1712819556089,1712819548329,1612745,0
1712819556089,1712819548368,1622866,0
1712819556089,1712819548408,1632384,0
1712819556089,1712819548449,1641215,0
1712819556089,1712819548489,1649342,0
1712819556089,1712819548530,1657519,0
1712819556089,1712819548569,1665432,0
1712819556089,1712819548610,1667414,0
1712819556089,1712819548650,1658775,0
1712819556089,1712819548690,1648526,0
1712819556089,1712819548731,1641250,0
1712819556089,1712819548771,1635571,0
1712819556089,1712819548811,1632817,0
1712819556089,1712819548851,1633736,0
1712819556089,1712819548891,1637508,0
1712819556089,1712819548932,1641936,0
1712819556089,1712819548972,1645537,0
1712819556089,1712819549012,1650154,0
1712819556089,1712819549052,1654620,0
1712819556089,1712819549092,1659773,0
1712819556089,1712819549134,1665116,0
1712819556089,1712819549173,1667315,0
1712819556089,1712819549213,1667757,0
1712819556089,1712819549254,1668242,0
1712819556089,1712819549294,1668522,0
1712819556089,1712819549335,1664448,0
1712819556089,1712819549374,1652625,0
1712819556089,1712819549414,1640516,0
1712819556089,1712819549454,1632658,0
1712819556089,1712819549495,1629302,0
1712819556089,1712819549535,1631371,0
1712819556089,1712819549575,1635899,0
1712819556089,1712819549615,1639843,0
1712819556089,1712819549655,1644269,0
1712819556089,1712819549695,1649550,0
1712819556089,1712819549736,1656337,0
1712819556089,1712819549776,1664250,0
1712819556089,1712819549816,1673470,0
1712819556089,1712819549856,1683393,0
1712819556089,1712819549896,1694549,0
1712819556089,1712819549937,1706943,0
1712819556089,1712819549977,1718379,0
1712819556089,1712819550017,1729599,0
1712819556089,1712819550057,1737669,0
1712819556089,1712819550097,1736217,0
1712819556089,1712819550138,1734380,0
1712819556089,1712819550177,1735273,0
1712819556089,1712819550218,1739664,0
1712819556089,1712819550258,1746186,0
1712819556089,1712819550298,1754670,0
1712819556089,1712819550339,1760814,0
1712819556089,1712819550378,1763364,0
1712819556089,1712819550419,1762454,0
1712819556089,1712819550459,1759391,0
1712819556089,1712819550499,1761305,0
1712819556089,1712819550540,1764835,0
1712819556089,1712819550580,1767225,0
1712819556089,1712819550620,1768644,0
1712819556089,1712819550660,1771544,0
1712819556089,1712819550700,1777599,0
1712819556089,1712819550741,1786156,0
1712819556089,1712819550781,1798763,0
1712819556089,1712819550821,1802562,0
1712819556089,1712819550861,1806523,0
1712819556089,1712819550901,1811912,0
1712819556089,1712819550942,1815731,0
1712819556089,1712819550982,1816827,0
1712819556089,1712819551022,1817748,0
1712819556089,1712819551063,1818082,0
1712819556089,1712819551103,1816948,0
1712819556089,1712819551144,1815133,0
1712819556089,1712819551183,1814425,0
1712819556089,1712819551224,1814451,0
1712819556089,1712819551264,1814668,0
1712819556089,1712819551304,1815450,0
1712819556089,1712819551345,1816162,0
1712819556089,1712819551385,1817160,0
1712819556089,1712819551425,1818314,0
1712819556089,1712819551467,1819902,0
1712819556089,1712819551507,1818393,0
1712819556089,1712819551548,1808969,0
1712819556089,1712819551587,1798547,0
1712819556089,1712819551628,1791882,0
1712819556089,1712819551668,1789052,0
1712819556089,1712819551708,1789128,0
1712819556089,1712819551749,1791977,0
1712819556089,1712819551789,1794974,0
1712819556089,1712819551829,1797948,0
1712819556089,1712819551869,1801768,0
1712819556089,1712819551910,1806305,0
1712819556089,1712819551950,1809727,0
1712819556089,1712819551990,1810626,0
1712819556089,1712819552030,1811078,0
1712819556089,1712819552070,1811364,0
1712819556089,1712819552111,1814537,0
1712819556089,1712819552152,1818394,0
1712819556089,1712819552191,1818411,0
1712819556089,1712819552231,1811207,0
1712819556089,1712819552272,1795855,0
1712819556089,1712819552312,1791224,0
1712819556089,1712819552353,1790332,0
1712819556089,1712819552393,1791169,0
1712819556089,1712819552433,1793689,0
1712819556089,1712819552473,1796731,0
1712819556089,1712819552513,1800305,0
1712819556089,1712819552554,1806158,0
1712819556089,1712819552593,1813419,0
1712819556089,1712819552634,1820411,0
1712819556089,1712819552674,1828000,0
1712819556089,1712819552714,1835347,0
1712819556089,1712819552755,1841196,0
1712819556089,1712819552794,1847083,0
1712819556089,1712819552834,1852444,0
1712819556089,1712819552875,1851753,0
1712819556089,1712819552915,1852039,0
1712819556089,1712819552955,1857175,0
1712819556089,1712819552995,1865126,0
1712819556089,1712819553035,1875200,0
1712819556089,1712819553075,1885152,0
1712819556089,1712819553116,1892047,0
1712819556089,1712819553156,1896493,0
1712819556089,1712819553196,1897390,0
1712819556089,1712819553236,1897585,0
1712819556089,1712819553276,1897854,0
1712819556089,1712819553316,1898010,0
1712819556089,1712819553357,1898308,0
1712819556089,1712819553397,1897847,0
1712819556089,1712819553437,1896613,0
1712819556089,1712819553478,1895608,0
1712819556089,1712819553518,1893755,0
1712819556089,1712819553559,1883711,0
1712819556089,1712819553599,1869037,0
1712819556089,1712819553639,1856597,0
1712819556089,1712819553679,1847295,0
1712819556089,1712819553719,1839930,0
1712819556089,1712819553760,1834272,0
1712819556089,1712819553800,1828018,0
1712819556089,1712819553840,1820943,0
1712819556089,1712819553880,1814307,0
1712819556089,1712819553920,1809065,0
1712819556089,1712819553961,1804913,0
1712819556089,1712819554001,1801120,0
1712819556089,1712819554041,1797866,0
1712819556089,1712819554081,1795262,0
1712819556089,1712819554121,1792932,0
1712819556089,1712819554162,1791155,0
1712819556089,1712819554202,1784992,0
1712819556089,1712819554242,1769492,0
1712819556089,1712819554283,1753494,0
1712819556089,1712819554324,1741595,0
1712819556089,1712819554365,1732571,0
1712819556089,1712819554404,1726776,0
1712819556089,1712819554444,1721782,0
1712819556089,1712819554485,1716112,0
1712819556089,1712819554525,1710370,0
1712819556089,1712819554566,1706128,0
1712819556089,1712819554605,1703471,0
1712819556089,1712819554645,1702464,0
1712819556089,1712819554686,1702319,0
1712819556089,1712819554726,1702692,0
1712819556089,1712819554767,1703828,0
1712819556089,1712819554807,1705137,0
1712819556089,1712819554847,1706309,0
1712819556089,1712819554887,1700200,0
1712819556089,1712819554928,1685663,0
1712819556089,1712819554968,1672227,0
1712819556089,1712819555008,1663346,0
1712819556089,1712819555048,1656828,0
1712819556089,1712819555088,1653407,0
1712819556089,1712819555129,1650723,0
1712819556089,1712819555170,1647764,0
1712819556089,1712819555209,1645142,0
1712819556089,1712819555249,1643715,0
1712819556089,1712819555290,1643175,0
1712819556089,1712819555330,1643756,0
1712819556089,1712819555371,1644800,0
1712819556089,1712819555411,1647480,0
1712819556089,1712819555451,1650500,0
1712819556089,1712819555491,1654158,0
1712819556089,1712819555531,1657096,0
1712819556089,1712819555572,1651809,0
1712819556089,1712819555612,1640704,0
1712819556089,1712819555652,1632792,0
1712819556089,1712819555692,1630634,0
1712819556089,1712819555732,1632489,0
1712819556089,1712819555773,1637848,0
1712819556089,1712819555813,1642883,0
1712819556089,1712819555853,1645202,0
1712819556089,1712819555893,1646142,0
1712819556089,1712819555933,1647388,0
1712819556089,1712819555974,1649415,0
1712819556089,1712819556013,1652002,0
1712819556089,1712819556054,1654790,0
1712819568174,1712819556099,1657931,0
1712819568174,1712819556139,1661354,0
1712819568174,1712819556179,1665208,0
1712819568174,1712819556219,1664056,0
1712819568174,1712819556259,1654188,0
1712819568174,1712819556299,1644077,0
1712819568174,1712819556339,1638373,0
1712819568174,1712819556380,1635494,0
1712819568174,1712819556419,1635633,0
1712819568174,1712819556460,1636288,0
1712819568174,1712819556500,1635794,0
1712819568174,1712819556540,1635010,0
1712819568174,1712819556581,1635731,0
1712819568174,1712819556620,1638050,0
1712819568174,1712819556660,1641348,0
1712819568174,1712819556700,1645118,0
1712819568174,1712819556741,1649356,0
1712819568174,1712819556781,1653944,0
1712819568174,1712819556821,1658397,0
1712819568174,1712819556861,1656390,0
1712819568174,1712819556901,1646657,0
1712819568174,1712819556941,1637940,0
1712819568174,1712819556982,1632894,0
1712819568174,1712819557021,1630072,0
1712819568174,1712819557061,1630027,0
1712819568174,1712819557102,1630889,0
1712819568174,1712819557142,1631346,0
1712819568174,1712819557182,1631498,0
1712819568174,1712819557222,1632958,0
1712819568174,1712819557262,1635758,0
1712819568174,1712819557302,1639264,0
1712819568174,1712819557342,1643239,0
1712819568174,1712819557383,1647406,0
1712819568174,1712819557423,1651658,0
1712819568174,1712819557463,1656311,0
1712819568174,1712819557503,1657699,0
1712819568174,1712819557543,1650668,0
1712819568174,1712819557584,1641583,0
1712819568174,1712819557623,1635512,0
1712819568174,1712819557663,1631958,0
1712819568174,1712819557704,1630727,0
1712819568174,1712819557744,1631619,0
1712819568174,1712819557784,1632261,0
1712819568174,1712819557824,1632825,0
1712819568174,1712819557864,1634338,0
1712819568174,1712819557904,1637093,0
1712819568174,1712819557945,1641355,0
1712819568174,1712819557985,1646238,0
1712819568174,1712819558025,1651646,0
1712819568174,1712819558065,1656642,0
1712819568174,1712819558105,1661848,0
1712819568174,1712819558146,1667361,0
1712819568174,1712819558187,1669347,0
1712819568174,1712819558226,1664193,0
1712819568174,1712819558267,1658361,0
1712819568174,1712819558307,1655373,0
1712819568174,1712819558347,1654613,0
1712819568174,1712819558388,1656059,0
1712819568174,1712819558428,1659216,0
1712819568174,1712819558468,1662193,0
1712819568174,1712819558508,1665176,0
1712819568174,1712819558548,1670104,0
1712819568174,1712819558589,1679705,0
1712819568174,1712819558629,1691325,0
1712819568174,1712819558669,1702293,0
1712819568174,1712819558709,1712268,0
1712819568174,1712819558750,1721467,0
1712819568174,1712819558791,1729867,0
1712819568174,1712819558830,1737904,0
1712819568174,1712819558870,1744206,0
1712819568174,1712819558911,1742796,0
1712819568174,1712819558951,1736584,0
1712819568174,1712819558992,1732229,0
1712819568174,1712819559031,1731137,0
1712819568174,1712819559072,1732237,0
1712819568174,1712819559112,1735171,0
1712819568174,1712819559152,1738153,0
1712819568174,1712819559193,1740579,0
1712819568174,1712819559233,1744089,0
1712819568174,1712819559274,1748815,0
1712819568174,1712819559314,1754283,0
1712819568174,1712819559354,1760246,0
1712819568174,1712819559395,1765441,0
1712819568174,1712819559434,1770304,0
1712819568174,1712819559475,1774980,0
1712819568174,1712819559515,1779388,0
1712819568174,1712819559555,1782697,0
1712819568174,1712819559596,1776035,0
1712819568174,1712819559636,1768769,0
1712819568174,1712819559676,1763918,0
1712819568174,1712819559716,1760537,0
1712819568174,1712819559756,1759195,0
1712819568174,1712819559797,1759014,0
1712819568174,1712819559837,1758354,0
1712819568174,1712819559877,1757191,0
1712819568174,1712819559917,1756941,0
1712819568174,1712819559957,1757570,0
1712819568174,1712819559998,1759096,0
1712819568174,1712819560037,1761117,0
1712819568174,1712819560078,1763227,0
1712819568174,1712819560118,1765800,0
1712819568174,1712819560158,1767949,0
1712819568174,1712819560199,1770443,0
1712819568174,1712819560238,1772383,0
1712819568174,1712819560279,1774140,0
1712819568174,1712819560319,1770540,0
1712819568174,1712819560359,1762003,0
1712819568174,1712819560400,1753923,0
1712819568174,1712819560439,1748375,0
1712819568174,1712819560480,1744484,0
1712819568174,1712819560520,1742724,0
1712819568174,1712819560560,1742037,0
1712819568174,1712819560601,1741374,0
1712819568174,1712819560640,1740635,0
1712819568174,1712819560680,1740839,0
1712819568174,1712819560721,1742327,0
1712819568174,1712819560761,1744476,0
1712819568174,1712819560802,1747191,0
1712819568174,1712819560841,1749990,0
1712819568174,1712819560881,1752601,0
1712819568174,1712819560922,1755179,0
1712819568174,1712819560962,1757659,0
1712819568174,1712819561003,1760282,0
1712819568174,1712819561042,1763482,0
1712819568174,1712819561083,1767310,0
1712819568174,1712819561123,1770071,0
1712819568174,1712819561163,1766186,0
1712819568174,1712819561204,1758666,0
1712819568174,1712819561244,1752751,0
1712819568174,1712819561284,1749150,0
1712819568174,1712819561324,1747327,0
1712819568174,1712819561365,1747067,0
1712819568174,1712819561406,1747228,0
1712819568174,1712819561445,1746893,0
1712819568174,1712819561485,1746429,0
1712819568174,1712819561526,1746823,0
1712819568174,1712819561566,1748511,0
1712819568174,1712819561607,1750802,0
1712819568174,1712819561646,1753614,0
1712819568174,1712819561687,1756351,0
1712819568174,1712819561727,1759213,0
1712819568174,1712819561767,1762305,0
1712819568174,1712819561808,1765007,0
1712819568174,1712819561848,1767935,0
1712819568174,1712819561888,1771343,0
1712819568174,1712819561928,1775086,0
1712819568174,1712819561968,1775694,0
1712819568174,1712819562010,1769668,0
1712819568174,1712819562049,1762084,0
1712819568174,1712819562089,1757118,0
1712819568174,1712819562130,1754048,0
1712819568174,1712819562170,1752524,0
1712819568174,1712819562211,1752352,0
1712819568174,1712819562250,1751570,0
1712819568174,1712819562291,1750210,0
1712819568174,1712819562331,1749618,0
1712819568174,1712819562371,1750300,0
1712819568174,1712819562412,1751772,0
1712819568174,1712819562452,1753785,0
1712819568174,1712819562492,1755907,0
1712819568174,1712819562533,1758440,0
1712819568174,1712819562573,1760973,0
1712819568174,1712819562614,1763759,0
1712819568174,1712819562653,1766537,0
1712819568174,1712819562693,1769757,0
1712819568174,1712819562734,1772965,0
1712819568174,1712819562774,1771513,0
1712819568174,1712819562815,1763294,0
1712819568174,1712819562854,1754644,0
1712819568174,1712819562895,1748682,0
1712819568174,1712819562935,1744718,0
1712819568174,1712819562975,1742238,0
1712819568174,1712819563016,1741235,0
1712819568174,1712819563055,1739854,0
1712819568174,1712819563096,1738027,0
1712819568174,1712819563136,1736781,0
1712819568174,1712819563176,1736926,0
1712819568174,1712819563217,1738078,0
1712819568174,1712819563256,1739816,0
1712819568174,1712819563296,1742116,0
1712819568174,1712819563337,1744410,0
1712819568174,1712819563377,1746675,0
1712819568174,1712819563418,1749292,0
1712819568174,1712819563457,1752552,0
1712819568174,1712819563497,1756294,0
1712819568174,1712819563537,1760838,0
1712819568174,1712819563578,1765551,0
1712819568174,1712819563619,1766345,0
1712819568174,1712819563658,1759159,0
1712819568174,1712819563698,1750309,0
1712819568174,1712819563738,1743987,0
1712819568174,1712819563778,1739880,0
1712819568174,1712819563819,1737931,0
1712819568174,1712819563859,1736582,0
1712819568174,1712819563899,1734943,0
1712819568174,1712819563939,1733179,0
1712819568174,1712819563979,1731868,0
1712819568174,1712819564020,1732603,0
1712819568174,1712819564060,1735808,0
1712819568174,1712819564100,1742036,0
1712819568174,1712819564140,1749680,0
1712819568174,1712819564180,1758540,0
1712819568174,1712819564221,1767435,0
1712819568174,1712819564261,1776629,0
1712819568174,1712819564301,1785767,0
1712819568174,1712819564342,1794358,0
1712819568174,1712819564382,1801148,0
1712819568174,1712819564423,1807580,0
1712819568174,1712819564462,1813471,0
1712819568174,1712819564502,1812102,0
1712819568174,1712819564543,1805640,0
1712819568174,1712819564583,1800204,0
1712819568174,1712819564624,1797420,0
1712819568174,1712819564663,1795782,0
1712819568174,1712819564704,1796339,0
1712819568174,1712819564744,1797905,0
1712819568174,1712819564784,1798301,0
1712819568174,1712819564825,1798352,0
1712819568174,1712819564865,1798975,0
1712819568174,1712819564905,1800531,0
1712819568174,1712819564945,1802483,0
1712819568174,1712819564986,1804892,0
1712819568174,1712819565026,1807536,0
1712819568174,1712819565066,1810372,0
1712819568174,1712819565106,1813340,0
1712819568174,1712819565147,1816140,0
1712819568174,1712819565187,1818904,0
1712819568174,1712819565228,1821556,0
1712819568174,1712819565267,1817537,0
1712819568174,1712819565308,1807875,0
1712819568174,1712819565348,1798483,0
1712819568174,1712819565389,1791804,0
1712819568174,1712819565430,1786276,0
1712819568174,1712819565470,1781673,0
1712819568174,1712819565510,1776931,0
1712819568174,1712819565550,1772076,0
1712819568174,1712819565591,1766273,0
1712819568174,1712819565632,1760448,0
1712819568174,1712819565671,1756008,0
1712819568174,1712819565711,1753630,0
1712819568174,1712819565752,1753107,0
1712819568174,1712819565792,1754202,0
1712819568174,1712819565833,1756064,0
1712819568174,1712819565872,1758294,0
1712819568174,1712819565913,1760774,0
1712819568174,1712819565953,1763419,0
1712819568174,1712819565993,1766312,0
1712819568174,1712819566034,1752827,0
1712819568174,1712819566074,1742965,0
1712819568174,1712819566114,1735871,0
1712819568174,1712819566155,1730835,0
1712819568174,1712819566195,1727101,0
1712819568174,1712819566235,1724420,0
1712819568174,1712819566275,1721120,0
1712819568174,1712819566315,1717360,0
1712819568174,1712819566355,1714182,0
1712819568174,1712819566395,1712617,0
1712819568174,1712819566436,1712090,0
1712819568174,1712819566476,1711767,0
1712819568174,1712819566516,1712266,0
1712819568174,1712819566556,1712694,0
1712819568174,1712819566596,1713129,0
1712819568174,1712819566637,1714024,0
1712819568174,1712819566676,1715299,0
1712819568174,1712819566717,1717599,0
1712819568174,1712819566757,1718399,0
1712819568174,1712819566797,1711975,0
1712819568174,1712819566838,1704415,0
1712819568174,1712819566877,1699452,0
1712819568174,1712819566918,1698424,0
1712819568174,1712819566958,1698603,0
1712819568174,1712819566998,1700572,0
1712819568174,1712819567039,1702415,0
1712819568174,1712819567078,1702734,0
1712819568174,1712819567119,1701910,0
1712819568174,1712819567159,1701667,0
1712819568174,1712819567199,1703340,0
1712819568174,1712819567240,1706752,0
1712819568174,1712819567279,1711060,0
1712819568174,1712819567320,1717050,0
1712819568174,1712819567360,1722845,0
1712819568174,1712819567400,1729083,0
1712819568174,1712819567441,1733621,0
1712819568174,1712819567481,1734774,0
1712819568174,1712819567521,1726830,0
1712819568174,1712819567561,1718638,0
1712819568174,1712819567601,1712968,0
1712819568174,1712819567642,1709837,0
1712819568174,1712819567682,1708186,0
1712819568174,1712819567722,1708652,0
1712819568174,1712819567762,1708731,0
1712819568174,1712819567802,1708727,0
1712819568174,1712819567844,1710198,0
1712819568174,1712819567883,1713604,0
1712819568174,1712819567923,1717481,0
1712819568174,1712819567964,1723310,0
1712819568174,1712819568004,1728859,0
1712819568174,1712819568045,1736035,0
1712819568174,1712819568084,1744250,0
1712819568174,1712819568124,1753440,0
1712819580254,1712819568163,1763121,0
1712819580254,1712819568204,1765165,0
1712819580254,1712819568244,1762046,0
1712819580254,1712819568284,1761487,0
1712819580254,1712819568324,1760611,0
1712819580254,1712819568364,1759600,0
1712819580254,1712819568404,1759725,0
1712819580254,1712819568445,1759681,0
1712819580254,1712819568485,1758582,0
1712819580254,1712819568525,1757276,0
1712819580254,1712819568565,1757022,0
1712819580254,1712819568605,1757954,0
1712819580254,1712819568646,1760187,0
1712819580254,1712819568686,1763066,0
1712819580254,1712819568726,1766394,0
1712819580254,1712819568766,1769235,0
1712819580254,1712819568807,1772808,0
1712819580254,1712819568847,1778715,0
1712819580254,1712819568887,1775142,0
1712819580254,1712819568927,1763159,0
1712819580254,1712819568967,1756141,0
1712819580254,1712819569008,1753958,0
1712819580254,1712819569049,1754204,0
1712819580254,1712819569088,1755872,0
1712819580254,1712819569128,1757302,0
1712819580254,1712819569169,1758735,0
1712819580254,1712819569209,1760132,0
1712819580254,1712819569250,1760832,0
1712819580254,1712819569290,1761614,0
1712819580254,1712819569330,1763321,0
1712819580254,1712819569370,1765985,0
1712819580254,1712819569410,1768992,0
1712819580254,1712819569451,1771971,0
1712819580254,1712819569491,1775090,0
1712819580254,1712819569531,1777946,0
1712819580254,1712819569571,1776958,0
1712819580254,1712819569611,1767454,0
1712819580254,1712819569653,1756126,0
1712819580254,1712819569692,1748110,0
1712819580254,1712819569732,1742474,0
1712819580254,1712819569773,1738829,0
1712819580254,1712819569813,1737472,0
1712819580254,1712819569854,1737166,0
1712819580254,1712819569893,1736854,0
1712819580254,1712819569933,1736980,0
1712819580254,1712819569973,1738676,0
1712819580254,1712819570014,1741336,0
1712819580254,1712819570054,1744412,0
1712819580254,1712819570094,1748309,0
1712819580254,1712819570134,1752727,0
1712819580254,1712819570174,1757905,0
1712819580254,1712819570214,1763263,0
1712819580254,1712819570255,1769504,0
1712819580254,1712819570295,1774249,0
1712819580254,1712819570335,1771018,0
1712819580254,1712819570375,1764282,0
1712819580254,1712819570415,1759612,0
1712819580254,1712819570456,1757252,0
1712819580254,1712819570496,1756270,0
1712819580254,1712819570536,1756916,0
1712819580254,1712819570576,1757917,0
1712819580254,1712819570616,1758535,0
1712819580254,1712819570657,1759271,0
1712819580254,1712819570696,1760890,0
1712819580254,1712819570737,1763395,0
1712819580254,1712819570777,1766543,0
1712819580254,1712819570817,1770010,0
1712819580254,1712819570858,1773652,0
1712819580254,1712819570897,1777227,0
1712819580254,1712819570937,1780652,0
1712819580254,1712819570978,1784245,0
1712819580254,1712819571018,1787890,0
1712819580254,1712819571059,1788451,0
1712819580254,1712819571098,1781976,0
1712819580254,1712819571138,1773898,0
1712819580254,1712819571179,1769003,0
1712819580254,1712819571219,1766591,0
1712819580254,1712819571260,1766468,0
1712819580254,1712819571300,1767286,0
1712819580254,1712819571340,1767460,0
1712819580254,1712819571380,1767027,0
1712819580254,1712819571420,1767745,0
1712819580254,1712819571461,1770525,0
1712819580254,1712819571501,1775229,0
1712819580254,1712819571541,1780741,0
1712819580254,1712819571581,1787076,0
1712819580254,1712819571621,1793362,0
1712819580254,1712819571662,1798772,0
1712819580254,1712819571702,1803735,0
1712819580254,1712819571742,1807410,0
1712819580254,1712819571783,1803993,0
1712819580254,1712819571823,1795123,0
1712819580254,1712819571864,1786751,0
1712819580254,1712819571903,1782184,0
1712819580254,1712819571944,1780147,0
1712819580254,1712819571984,1780298,0
1712819580254,1712819572024,1781042,0
1712819580254,1712819572065,1780895,0
1712819580254,1712819572105,1781372,0
1712819580254,1712819572145,1783600,0
1712819580254,1712819572185,1786792,0
1712819580254,1712819572225,1790059,0
1712819580254,1712819572266,1792897,0
1712819580254,1712819572306,1795271,0
1712819580254,1712819572346,1797429,0
1712819580254,1712819572386,1799426,0
1712819580254,1712819572427,1801362,0
1712819580254,1712819572468,1804049,0
1712819580254,1712819572507,1805430,0
1712819580254,1712819572548,1801753,0
1712819580254,1712819572589,1797652,0
1712819580254,1712819572629,1796242,0
1712819580254,1712819572670,1795640,0
1712819580254,1712819572709,1795033,0
1712819580254,1712819572750,1795182,0
1712819580254,1712819572790,1795391,0
1712819580254,1712819572830,1795208,0
1712819580254,1712819572871,1795555,0
1712819580254,1712819572911,1797091,0
1712819580254,1712819572951,1797469,0
1712819580254,1712819572991,1798010,0
1712819580254,1712819573032,1799305,0
1712819580254,1712819573073,1800458,0
1712819580254,1712819573112,1801388,0
1712819580254,1712819573152,1802505,0
1712819580254,1712819573192,1804224,0
1712819580254,1712819573232,1803136,0
1712819580254,1712819573274,1794130,0
1712819580254,1712819573313,1782621,0
1712819580254,1712819573353,1773825,0
1712819580254,1712819573393,1767877,0
1712819580254,1712819573433,1763470,0
1712819580254,1712819573474,1761085,0
1712819580254,1712819573514,1758895,0
1712819580254,1712819573554,1756266,0
1712819580254,1712819573594,1754610,0
1712819580254,1712819573634,1755056,0
1712819580254,1712819573675,1757482,0
1712819580254,1712819573715,1761343,0
1712819580254,1712819573755,1766177,0
1712819580254,1712819573795,1771976,0
1712819580254,1712819573835,1778509,0
1712819580254,1712819573876,1784893,0
1712819580254,1712819573915,1791282,0
1712819580254,1712819573956,1797414,0
1712819580254,1712819573996,1798447,0
1712819580254,1712819574036,1792279,0
1712819580254,1712819574077,1784834,0
1712819580254,1712819574117,1780474,0
1712819580254,1712819574157,1778877,0
1712819580254,1712819574197,1779072,0
1712819580254,1712819574237,1780270,0
1712819580254,1712819574278,1780809,0
1712819580254,1712819574318,1779906,0
1712819580254,1712819574358,1779509,0
1712819580254,1712819574398,1779593,0
1712819580254,1712819574438,1780735,0
1712819580254,1712819574480,1782408,0
1712819580254,1712819574519,1784643,0
1712819580254,1712819574559,1787110,0
1712819580254,1712819574600,1789391,0
1712819580254,1712819574640,1791694,0
1712819580254,1712819574681,1794759,0
1712819580254,1712819574720,1798586,0
1712819580254,1712819574760,1798391,0
1712819580254,1712819574801,1791264,0
1712819580254,1712819574841,1782561,0
1712819580254,1712819574882,1776292,0
1712819580254,1712819574921,1772283,0
1712819580254,1712819574962,1770108,0
1712819580254,1712819575002,1770826,0
1712819580254,1712819575042,1773309,0
1712819580254,1712819575083,1775869,0
1712819580254,1712819575123,1778675,0
1712819580254,1712819575163,1781775,0
1712819580254,1712819575206,1784503,0
1712819580254,1712819575243,1787008,0
1712819580254,1712819575284,1789396,0
1712819580254,1712819575324,1792207,0
1712819580254,1712819575364,1795556,0
1712819580254,1712819575405,1799110,0
1712819580254,1712819575445,1803462,0
1712819580254,1712819575486,1808010,0
1712819580254,1712819575525,1811027,0
1712819580254,1712819575566,1805637,0
1712819580254,1712819575606,1797416,0
1712819580254,1712819575646,1791271,0
1712819580254,1712819575687,1788386,0
1712819580254,1712819575727,1786925,0
1712819580254,1712819575767,1786926,0
1712819580254,1712819575807,1786771,0
1712819580254,1712819575847,1785748,0
1712819580254,1712819575888,1785109,0
1712819580254,1712819575929,1782756,0
1712819580254,1712819575969,1780789,0
1712819580254,1712819576009,1780526,0
1712819580254,1712819576050,1781706,0
1712819580254,1712819576091,1784237,0
1712819580254,1712819576130,1787147,0
1712819580254,1712819576171,1790248,0
1712819580254,1712819576211,1793146,0
1712819580254,1712819576251,1795781,0
1712819580254,1712819576292,1797552,0
1712819580254,1712819576331,1791138,0
1712819580254,1712819576371,1782159,0
1712819580254,1712819576412,1776120,0
1712819580254,1712819576452,1774341,0
1712819580254,1712819576493,1775648,0
1712819580254,1712819576533,1778631,0
1712819580254,1712819576573,1780728,0
1712819580254,1712819576613,1780878,0
1712819580254,1712819576653,1781294,0
1712819580254,1712819576694,1783244,0
1712819580254,1712819576733,1786610,0
1712819580254,1712819576774,1790749,0
1712819580254,1712819576814,1794898,0
1712819580254,1712819576854,1798473,0
1712819580254,1712819576895,1801567,0
1712819580254,1712819576934,1805269,0
1712819580254,1712819576974,1809272,0
1712819580254,1712819577015,1806950,0
1712819580254,1712819577055,1800200,0
1712819580254,1712819577096,1795212,0
1712819580254,1712819577135,1793976,0
1712819580254,1712819577175,1795356,0
1712819580254,1712819577216,1798256,0
1712819580254,1712819577256,1800807,0
1712819580254,1712819577297,1801779,0
1712819580254,1712819577336,1802213,0
1712819580254,1712819577377,1803702,0
1712819580254,1712819577420,1806769,0
1712819580254,1712819577457,1811085,0
1712819580254,1712819577498,1815423,0
1712819580254,1712819577538,1818966,0
1712819580254,1712819577578,1820933,0
1712819580254,1712819577618,1822301,0
1712819580254,1712819577658,1823409,0
1712819580254,1712819577699,1820815,0
1712819580254,1712819577739,1811246,0
1712819580254,1712819577779,1802732,0
1712819580254,1712819577819,1799279,0
1712819580254,1712819577860,1799169,0
1712819580254,1712819577901,1801129,0
1712819580254,1712819577940,1803544,0
1712819580254,1712819577980,1804273,0
1712819580254,1712819578021,1804034,0
1712819580254,1712819578061,1804330,0
1712819580254,1712819578102,1806121,0
1712819580254,1712819578141,1808846,0
1712819580254,1712819578182,1811701,0
1712819580254,1712819578222,1814710,0
1712819580254,1712819578262,1817348,0
1712819580254,1712819578303,1820302,0
1712819580254,1712819578343,1823706,0
1712819580254,1712819578383,1827266,0
1712819580254,1712819578423,1823632,0
1712819580254,1712819578464,1814215,0
1712819580254,1712819578505,1805730,0
1712819580254,1712819578544,1800838,0
1712819580254,1712819578585,1798283,0
1712819580254,1712819578625,1797574,0
1712819580254,1712819578665,1796727,0
1712819580254,1712819578706,1794345,0
1712819580254,1712819578746,1791525,0
1712819580254,1712819578786,1790038,0
1712819580254,1712819578826,1790013,0
1712819580254,1712819578866,1791225,0
1712819580254,1712819578907,1793216,0
1712819580254,1712819578947,1795580,0
1712819580254,1712819578987,1798139,0
1712819580254,1712819579027,1800939,0
1712819580254,1712819579068,1803386,0
1712819580254,1712819579108,1799562,0
1712819580254,1712819579148,1791046,0
1712819580254,1712819579188,1784310,0
1712819580254,1712819579228,1781384,0
1712819580254,1712819579269,1781066,0
1712819580254,1712819579310,1784379,0
1712819580254,1712819579350,1784406,0
1712819580254,1712819579390,1784550,0
1712819580254,1712819579430,1786362,0
1712819580254,1712819579470,1789454,0
1712819580254,1712819579511,1792918,0
1712819580254,1712819579551,1796150,0
1712819580254,1712819579591,1798606,0
1712819580254,1712819579633,1801080,0
1712819580254,1712819579671,1804219,0
1712819580254,1712819579712,1807016,0
1712819580254,1712819579751,1802013,0
1712819580254,1712819579792,1794356,0
1712819580254,1712819579832,1789201,0
1712819580254,1712819579873,1787274,0
1712819580254,1712819579914,1786444,0
1712819580254,1712819579953,1786790,0
1712819580254,1712819579993,1786091,0
1712819580254,1712819580033,1784704,0
1712819580254,1712819580073,1784018,0
1712819580254,1712819580114,1785225,0
1712819580254,1712819580154,1787777,0
1712819580254,1712819580194,1791135,0
1712819592369,1712819580240,1794741,0
1712819592369,1712819580280,1798233,0
1712819592369,1712819580321,1801634,0
1712819592369,1712819580360,1804876,0
1712819592369,1712819580401,1808320,0
1712819592369,1712819580441,1805439,0
1712819592369,1712819580481,1797092,0
1712819592369,1712819580522,1789364,0
1712819592369,1712819580561,1785047,0
1712819592369,1712819580601,1782672,0
1712819592369,1712819580641,1782360,0
1712819592369,1712819580681,1781671,0
1712819592369,1712819580722,1780175,0
1712819592369,1712819580762,1778898,0
1712819592369,1712819580802,1779347,0
1712819592369,1712819580842,1781422,0
1712819592369,1712819580883,1784328,0
1712819592369,1712819580924,1787642,0
1712819592369,1712819580963,1791111,0
1712819592369,1712819581003,1794508,0
1712819592369,1712819581044,1797719,0
1712819592369,1712819581084,1801368,0
1712819592369,1712819581125,1804702,0
1712819592369,1712819581164,1800674,0
1712819592369,1712819581205,1792536,0
1712819592369,1712819581245,1787521,0
1712819592369,1712819581285,1787819,0
1712819592369,1712819581326,1790346,0
1712819592369,1712819581366,1792998,0
1712819592369,1712819581406,1791883,0
1712819592369,1712819581446,1787616,0
1712819592369,1712819581487,1783667,0
1712819592369,1712819581527,1783034,0
1712819592369,1712819581567,1783931,0
1712819592369,1712819581607,1786247,0
1712819592369,1712819581647,1791001,0
1712819592369,1712819581688,1796701,0
1712819592369,1712819581729,1802397,0
1712819592369,1712819581768,1807465,0
1712819592369,1712819581808,1809388,0
1712819592369,1712819581849,1800643,0
1712819592369,1712819581889,1788395,0
1712819592369,1712819581930,1778307,0
1712819592369,1712819581970,1771338,0
1712819592369,1712819582010,1765925,0
1712819592369,1712819582050,1762410,0
1712819592369,1712819582090,1758545,0
1712819592369,1712819582131,1753766,0
1712819592369,1712819582171,1749698,0
1712819592369,1712819582211,1748168,0
1712819592369,1712819582251,1748816,0
1712819592369,1712819582291,1750380,0
1712819592369,1712819582333,1751784,0
1712819592369,1712819582372,1752579,0
1712819592369,1712819582412,1753289,0
1712819592369,1712819582453,1754419,0
1712819592369,1712819582493,1757493,0
1712819592369,1712819582534,1757359,0
1712819592369,1712819582573,1751303,0
1712819592369,1712819582613,1746142,0
1712819592369,1712819582654,1744559,0
1712819592369,1712819582694,1744483,0
1712819592369,1712819582735,1745305,0
1712819592369,1712819582774,1745878,0
1712819592369,1712819582815,1745261,0
1712819592369,1712819582855,1743913,0
1712819592369,1712819582895,1743358,0
1712819592369,1712819582936,1745002,0
1712819592369,1712819582975,1748448,0
1712819592369,1712819583016,1753516,0
1712819592369,1712819583056,1758877,0
1712819592369,1712819583096,1763877,0
1712819592369,1712819583137,1767727,0
1712819592369,1712819583176,1770703,0
1712819592369,1712819583216,1773773,0
1712819592369,1712819583257,1771984,0
1712819592369,1712819583297,1763231,0
1712819592369,1712819583338,1754297,0
1712819592369,1712819583377,1748170,0
1712819592369,1712819583417,1743924,0
1712819592369,1712819583457,1740847,0
1712819592369,1712819583498,1738699,0
1712819592369,1712819583539,1736056,0
1712819592369,1712819583578,1733897,0
1712819592369,1712819583618,1734699,0
1712819592369,1712819583659,1738912,0
1712819592369,1712819583699,1744620,0
1712819592369,1712819583740,1749814,0
1712819592369,1712819583779,1753389,0
1712819592369,1712819583819,1755068,0
1712819592369,1712819583860,1755953,0
1712819592369,1712819583900,1758470,0
1712819592369,1712819583941,1761041,0
1712819592369,1712819583980,1756747,0
1712819592369,1712819584021,1748653,0
1712819592369,1712819584061,1742321,0
1712819592369,1712819584101,1739806,0
1712819592369,1712819584142,1741262,0
1712819592369,1712819584181,1746535,0
1712819592369,1712819584222,1751365,0
1712819592369,1712819584262,1753647,0
1712819592369,1712819584302,1754524,0
1712819592369,1712819584343,1755901,0
1712819592369,1712819584383,1758810,0
1712819592369,1712819584423,1763020,0
1712819592369,1712819584463,1767733,0
1712819592369,1712819584504,1771929,0
1712819592369,1712819584544,1775115,0
1712819592369,1712819584585,1777356,0
1712819592369,1712819584626,1779698,0
1712819592369,1712819584666,1781164,0
1712819592369,1712819584706,1775226,0
1712819592369,1712819584747,1767104,0
1712819592369,1712819584787,1763123,0
1712819592369,1712819584827,1762436,0
1712819592369,1712819584867,1762579,0
1712819592369,1712819584907,1758732,0
1712819592369,1712819584948,1752100,0
1712819592369,1712819584988,1744590,0
1712819592369,1712819585028,1738730,0
1712819592369,1712819585068,1734933,0
1712819592369,1712819585109,1731958,0
1712819592369,1712819585150,1727595,0
1712819592369,1712819585189,1724652,0
1712819592369,1712819585229,1724792,0
1712819592369,1712819585269,1725549,0
1712819592369,1712819585310,1727598,0
1712819592369,1712819585351,1733438,0
1712819592369,1712819585390,1740861,0
1712819592369,1712819585431,1742535,0
1712819592369,1712819585471,1736824,0
1712819592369,1712819585511,1730009,0
1712819592369,1712819585552,1725325,0
1712819592369,1712819585592,1721283,0
1712819592369,1712819585632,1719582,0
1712819592369,1712819585672,1718724,0
1712819592369,1712819585713,1717631,0
1712819592369,1712819585753,1715278,0
1712819592369,1712819585793,1712388,0
1712819592369,1712819585833,1709698,0
1712819592369,1712819585874,1707106,0
1712819592369,1712819585914,1711629,0
1712819592369,1712819585955,1713937,0
1712819592369,1712819585994,1713081,0
1712819592369,1712819586036,1710597,0
1712819592369,1712819586076,1708546,0
1712819592369,1712819586116,1701480,0
1712819592369,1712819586157,1688275,0
1712819592369,1712819586196,1676264,0
1712819592369,1712819586236,1669047,0
1712819592369,1712819586277,1666913,0
1712819592369,1712819586317,1667641,0
1712819592369,1712819586358,1668572,0
1712819592369,1712819586397,1667490,0
1712819592369,1712819586437,1664752,0
1712819592369,1712819586478,1661054,0
1712819592369,1712819586519,1657877,0
