dataReceived,timestamp,ppg,status
1710832220408,1710832208331,2216358,0
1710832220408,1710832208371,2212900,0
1710832220408,1710832208414,2210722,0
1710832220408,1710832208451,2209254,0
1710832220408,1710832208492,2208161,0
1710832220408,1710832208531,2208140,0
1710832220408,1710832208572,2208171,0
1710832220408,1710832208612,2208443,0
1710832220408,1710832208652,2209174,0
1710832220408,1710832208693,2210757,0
1710832220408,1710832208732,2212473,0
1710832220408,1710832208772,2214452,0
1710832220408,1710832208813,2216516,0
1710832220408,1710832208853,2218597,0
1710832220408,1710832208894,2221006,0
1710832220408,1710832208933,2223759,0
1710832220408,1710832208973,2222997,0
1710832220408,1710832209013,2218651,0
1710832220408,1710832209054,2215836,0
1710832220408,1710832209095,2214731,0
1710832220408,1710832209134,2214237,0
1710832220408,1710832209174,2214175,0
1710832220408,1710832209214,2215010,0
1710832220408,1710832209254,2215657,0
1710832220408,1710832209295,2216735,0
1710832220408,1710832209335,2218310,0
1710832220408,1710832209375,2220051,0
1710832220408,1710832209415,2221541,0
1710832220408,1710832209455,2223616,0
1710832220408,1710832209496,2226090,0
1710832220408,1710832209535,2229062,0
1710832220408,1710832209575,2231748,0
1710832220408,1710832209616,2234639,0
1710832220408,1710832209656,2234772,0
1710832220408,1710832209697,2231645,0
1710832220408,1710832209736,2230208,0
1710832220408,1710832209776,2230591,0
1710832220408,1710832209816,2231324,0
1710832220408,1710832209856,2232147,0
1710832220408,1710832209897,2233331,0
1710832220408,1710832209936,2234393,0
1710832220408,1710832209976,2235193,0
1710832220408,1710832210017,2236458,0
1710832220408,1710832210057,2238115,0
1710832220408,1710832210098,2240131,0
1710832220408,1710832210137,2242059,0
1710832220408,1710832210177,2244183,0
1710832220408,1710832210217,2246225,0
1710832220408,1710832210257,2247769,0
1710832220408,1710832210300,2245052,0
1710832220408,1710832210337,2242534,0
1710832220408,1710832210378,2242136,0
1710832220408,1710832210418,2242367,0
1710832220408,1710832210458,2242770,0
1710832220408,1710832210499,2243463,0
1710832220408,1710832210538,2244420,0
1710832220408,1710832210578,2245353,0
1710832220408,1710832210621,2246168,0
1710832220408,1710832210658,2247777,0
1710832220408,1710832210700,2249593,0
1710832220408,1710832210739,2251291,0
1710832220408,1710832210779,2253227,0
1710832220408,1710832210819,2255080,0
1710832220408,1710832210859,2256880,0
1710832220408,1710832210900,2256123,0
1710832220408,1710832210939,2252601,0
1710832220408,1710832210979,2250541,0
1710832220408,1710832211019,2249664,0
1710832220408,1710832211059,2248817,0
1710832220408,1710832211101,2248182,0
1710832220408,1710832211140,2248616,0
1710832220408,1710832211180,2249172,0
1710832220408,1710832211220,2249709,0
1710832220408,1710832211260,2250593,0
1710832220408,1710832211302,2251847,0
1710832220408,1710832211340,2253128,0
1710832220408,1710832211380,2254635,0
1710832220408,1710832211420,2256016,0
1710832220408,1710832211461,2257594,0
1710832220408,1710832211502,2259091,0
1710832220408,1710832211541,2258329,0
1710832220408,1710832211581,2254547,0
1710832220408,1710832211621,2252147,0
1710832220408,1710832211661,2250728,0
1710832220408,1710832211702,2249273,0
1710832220408,1710832211741,2248171,0
1710832220408,1710832211781,2248192,0
1710832220408,1710832211822,2248572,0
1710832220408,1710832211862,2249081,0
1710832220408,1710832211903,2249662,0
1710832220408,1710832211942,2250622,0
1710832220408,1710832211982,2251842,0
1710832220408,1710832212022,2253243,0
1710832220408,1710832212062,2254730,0
1710832220408,1710832212103,2256029,0
1710832220408,1710832212142,2257360,0
1710832220408,1710832212183,2258979,0
1710832220408,1710832212223,2260673,0
1710832220408,1710832212263,2260631,0
1710832220408,1710832212305,2256856,0
1710832220408,1710832212343,2254399,0
1710832220408,1710832212383,2252929,0
1710832220408,1710832212423,2251570,0
1710832220408,1710832212463,2250475,0
1710832220408,1710832212504,2250624,0
1710832220408,1710832212544,2251162,0
1710832220408,1710832212584,2251565,0
1710832220408,1710832212624,2252147,0
1710832220408,1710832212664,2253236,0
1710832220408,1710832212705,2254403,0
1710832220408,1710832212744,2255848,0
1710832220408,1710832212784,2257261,0
1710832220408,1710832212827,2258650,0
1710832220408,1710832212865,2260162,0
1710832220408,1710832212906,2261487,0
1710832220408,1710832212945,2263138,0
1710832220408,1710832212985,2264825,0
1710832220408,1710832213025,2266419,0
1710832220408,1710832213065,2264236,0
1710832220408,1710832213106,2261218,0
1710832220408,1710832213145,2259700,0
1710832220408,1710832213185,2258990,0
1710832220408,1710832213226,2258293,0
1710832220408,1710832213266,2258074,0
1710832220408,1710832213308,2258716,0
1710832220408,1710832213346,2259458,0
1710832220408,1710832213386,2260071,0
1710832220408,1710832213426,2260952,0
1710832220408,1710832213467,2262246,0
1710832220408,1710832213508,2263606,0
1710832220408,1710832213547,2264902,0
1710832220408,1710832213587,2266456,0
1710832220408,1710832213627,2267832,0
1710832220408,1710832213667,2269449,0
1710832220408,1710832213708,2270958,0
1710832220408,1710832213748,2272823,0
1710832220408,1710832213788,2274343,0
1710832220408,1710832213828,2276041,0
1710832220408,1710832213868,2277841,0
1710832220408,1710832213909,2278071,0
1710832220408,1710832213948,2274530,0
1710832220408,1710832213988,2272680,0
1710832220408,1710832214028,2272342,0
1710832220408,1710832214068,2272490,0
1710832220408,1710832214110,2272325,0
1710832220408,1710832214149,2272825,0
1710832220408,1710832214189,2273763,0
1710832220408,1710832214229,2274596,0
1710832220408,1710832214269,2275403,0
1710832220408,1710832214312,2276662,0
1710832220408,1710832214350,2277969,0
1710832220408,1710832214390,2279425,0
1710832220408,1710832214430,2281020,0
1710832220408,1710832214470,2282374,0
1710832220408,1710832214511,2283848,0
1710832220408,1710832214550,2285299,0
1710832220408,1710832214590,2286764,0
1710832220408,1710832214630,2288413,0
1710832220408,1710832214671,2289943,0
1710832220408,1710832214712,2291580,0
1710832220408,1710832214751,2293169,0
1710832220408,1710832214791,2292449,0
1710832220408,1710832214831,2288919,0
1710832220408,1710832214871,2287805,0
1710832220408,1710832214912,2287732,0
1710832220408,1710832214952,2288244,0
1710832220408,1710832214992,2288171,0
1710832220408,1710832215032,2289055,0
1710832220408,1710832215072,2289775,0
1710832220408,1710832215113,2290584,0
1710832220408,1710832215152,2291509,0
1710832220408,1710832215193,2292755,0
1710832220408,1710832215233,2294027,0
1710832220408,1710832215273,2295550,0
1710832220408,1710832215315,2296654,0
1710832220408,1710832215353,2297823,0
1710832220408,1710832215393,2299229,0
1710832220408,1710832215434,2300497,0
1710832220408,1710832215474,2301838,0
1710832220408,1710832215515,2303301,0
1710832220408,1710832215554,2304663,0
1710832220408,1710832215594,2306111,0
1710832220408,1710832215634,2304111,0
1710832220408,1710832215674,2300465,0
1710832220408,1710832215715,2299078,0
1710832220408,1710832215755,2298851,0
1710832220408,1710832215795,2298545,0
1710832220408,1710832215835,2298303,0
1710832220408,1710832215875,2298648,0
1710832220408,1710832215916,2299197,0
1710832220408,1710832215955,2299349,0
1710832220408,1710832215995,2300111,0
1710832220408,1710832216035,2300972,0
1710832220408,1710832216075,2302245,0
1710832220408,1710832216116,2303481,0
1710832220408,1710832216156,2304774,0
1710832220408,1710832216196,2305976,0
1710832220408,1710832216236,2306996,0
1710832220408,1710832216276,2307802,0
1710832220408,1710832216318,2308668,0
1710832220408,1710832216356,2310046,0
1710832220408,1710832216396,2309875,0
1710832220408,1710832216436,2305611,0
1710832220408,1710832216476,2302304,0
1710832220408,1710832216517,2300807,0
1710832220408,1710832216556,2300201,0
1710832220408,1710832216597,2299498,0
1710832220408,1710832216637,2299158,0
1710832220408,1710832216677,2298925,0
1710832220408,1710832216718,2298628,0
1710832220408,1710832216757,2298278,0
1710832220408,1710832216797,2298348,0
1710832220408,1710832216837,2299004,0
1710832220408,1710832216877,2299669,0
1710832220408,1710832216918,2300476,0
1710832220408,1710832216958,2301103,0
1710832220408,1710832216998,2301828,0
1710832220408,1710832217038,2302627,0
1710832220408,1710832217078,2299725,0
1710832220408,1710832217119,2294317,0
1710832220408,1710832217158,2290894,0
1710832220408,1710832217198,2289065,0
1710832220408,1710832217238,2287648,0
1710832220408,1710832217278,2286628,0
1710832220408,1710832217322,2285986,0
1710832220408,1710832217359,2285099,0
1710832220408,1710832217399,2284378,0
1710832220408,1710832217439,2284505,0
1710832220408,1710832217479,2285023,0
1710832220408,1710832217520,2285783,0
1710832220408,1710832217559,2286399,0
1710832220408,1710832217599,2287406,0
1710832220408,1710832217639,2288856,0
1710832220408,1710832217679,2289384,0
1710832220408,1710832217721,2285410,0
1710832220408,1710832217760,2280826,0
1710832220408,1710832217800,2278275,0
1710832220408,1710832217840,2276501,0
1710832220408,1710832217880,2274921,0
1710832220408,1710832217921,2274162,0
1710832220408,1710832217960,2275586,0
1710832220408,1710832218000,2276347,0
1710832220408,1710832218040,2276997,0
1710832220408,1710832218081,2276740,0
1710832220408,1710832218122,2277138,0
1710832220408,1710832218161,2277254,0
1710832220408,1710832218201,2277306,0
1710832220408,1710832218241,2276626,0
1710832220408,1710832218281,2277166,0
1710832220408,1710832218324,2277540,0
1710832220408,1710832218361,2274202,0
1710832220408,1710832218402,2264549,0
1710832220408,1710832218442,2257869,0
1710832220408,1710832218482,2257253,0
1710832220408,1710832218523,2252919,0
1710832220408,1710832218562,2243990,0
1710832220408,1710832218602,2238123,0
1710832220408,1710832218642,2232990,0
1710832220408,1710832218683,2228674,0
1710832220408,1710832218723,2223955,0
1710832220408,1710832218763,2220503,0
1710832220408,1710832218803,2217735,0
1710832220408,1710832218843,2216033,0
1710832220408,1710832218883,2215143,0
1710832220408,1710832218924,2214033,0
1710832220408,1710832218963,2213251,0
1710832220408,1710832219003,2212660,0
1710832220408,1710832219044,2209422,0
1710832220408,1710832219084,2199212,0
1710832220408,1710832219125,2189162,0
1710832220408,1710832219164,2179226,0
1710832220408,1710832219204,2169259,0
1710832220408,1710832219244,2159610,0
1710832220408,1710832219284,2152230,0
1710832220408,1710832219327,2148042,0
1710832220408,1710832219365,2144785,0
1710832220408,1710832219405,2142099,0
1710832220408,1710832219445,2140558,0
1710832220408,1710832219485,2139336,0
1710832220408,1710832219526,2136573,0
1710832220408,1710832219565,2131219,0
1710832220408,1710832219605,2126529,0
1710832220408,1710832219646,2122883,0
1710832220408,1710832219686,2119112,0
1710832220408,1710832219727,2116395,0
1710832220408,1710832219766,2113151,0
1710832220408,1710832219806,2103411,0
1710832220408,1710832219846,2091078,0
1710832220408,1710832219886,2079875,0
1710832220408,1710832219927,2068922,0
1710832220408,1710832219966,2058373,0
1710832220408,1710832220007,2050134,0
1710832220408,1710832220047,2044597,0
1710832220408,1710832220087,2040061,0
1710832220408,1710832220128,2036236,0
1710832220408,1710832220167,2033197,0
1710832220408,1710832220207,2031330,0
1710832220408,1710832220247,2030555,0
1710832220408,1710832220287,2030257,0
1710832220408,1710832220331,2030440,0
1710832232462,1710832220368,2030939,0
1710832232462,1710832220408,2031865,0
1710832232462,1710832220448,2033347,0
1710832232462,1710832220488,2035630,0
1710832232462,1710832220529,2033112,0
1710832232462,1710832220568,2024535,0
1710832232462,1710832220609,2017293,0
1710832232462,1710832220649,2011849,0
1710832232462,1710832220689,2006704,0
1710832232462,1710832220730,2003193,0
1710832232462,1710832220769,2002204,0
1710832232462,1710832220809,2002007,0
1710832232462,1710832220850,2002037,0
1710832232462,1710832220890,2003110,0
1710832232462,1710832220931,2004991,0
1710832232462,1710832220970,2007456,0
1710832232462,1710832221010,2010399,0
1710832232462,1710832221050,2013691,0
1710832232462,1710832221091,2017344,0
1710832232462,1710832221131,2020772,0
1710832232462,1710832221171,2024269,0
1710832232462,1710832221211,2027963,0
1710832232462,1710832221251,2030349,0
1710832232462,1710832221291,2024532,0
1710832232462,1710832221332,2017439,0
1710832232462,1710832221371,2011515,0
1710832232462,1710832221412,2006233,0
1710832232462,1710832221452,2000094,0
1710832232462,1710832221492,1994952,0
1710832232462,1710832221533,1991189,0
1710832232462,1710832221572,1987584,0
1710832232462,1710832221612,1984645,0
1710832232462,1710832221652,1982951,0
1710832232462,1710832221693,1981561,0
1710832232462,1710832221734,1981904,0
1710832232462,1710832221773,1983209,0
1710832232462,1710832221813,1985709,0
1710832232462,1710832221853,1989219,0
1710832232462,1710832221893,1992569,0
1710832232462,1710832221934,1996527,0
1710832232462,1710832221973,2000464,0
1710832232462,1710832222013,2002236,0
1710832232462,1710832222053,1998296,0
1710832232462,1710832222093,1993369,0
1710832232462,1710832222134,1990250,0
1710832232462,1710832222174,1987451,0
1710832232462,1710832222214,1984599,0
1710832232462,1710832222254,1983386,0
1710832232462,1710832222294,1983780,0
1710832232462,1710832222335,1984614,0
1710832232462,1710832222374,1986095,0
1710832232462,1710832222414,1987999,0
1710832232462,1710832222454,1990586,0
1710832232462,1710832222494,1993743,0
1710832232462,1710832222536,1997157,0
1710832232462,1710832222574,2000658,0
1710832232462,1710832222615,2004638,0
1710832232462,1710832222655,2008398,0
1710832232462,1710832222695,2012287,0
1710832232462,1710832222736,2016649,0
1710832232462,1710832222775,2019617,0
1710832232462,1710832222815,2016790,0
1710832232462,1710832222855,2013873,0
1710832232462,1710832222896,2013024,0
1710832232462,1710832222936,2012549,0
1710832232462,1710832222976,2012369,0
1710832232462,1710832223016,2013326,0
1710832232462,1710832223056,2014992,0
1710832232462,1710832223096,2016925,0
1710832232462,1710832223137,2019009,0
1710832232462,1710832223176,2021739,0
1710832232462,1710832223216,2025338,0
1710832232462,1710832223256,2029467,0
1710832232462,1710832223296,2034162,0
1710832232462,1710832223339,2039175,0
1710832232462,1710832223377,2045619,0
1710832232462,1710832223417,2053732,0
1710832232462,1710832223457,2063745,0
1710832232462,1710832223497,2072309,0
1710832232462,1710832223538,2079014,0
1710832232462,1710832223577,2086961,0
1710832232462,1710832223617,2094237,0
1710832232462,1710832223657,2100505,0
1710832232462,1710832223697,2105853,0
1710832232462,1710832223738,2111214,0
1710832232462,1710832223777,2116696,0
1710832232462,1710832223818,2121024,0
1710832232462,1710832223858,2125401,0
1710832232462,1710832223898,2130240,0
1710832232462,1710832223939,2134652,0
1710832232462,1710832223978,2139201,0
1710832232462,1710832224018,2143274,0
1710832232462,1710832224058,2147462,0
1710832232462,1710832224098,2152050,0
1710832232462,1710832224139,2156049,0
1710832232462,1710832224178,2156032,0
1710832232462,1710832224219,2155202,0
1710832232462,1710832224258,2156223,0
1710832232462,1710832224299,2157776,0
1710832232462,1710832224339,2158939,0
1710832232462,1710832224379,2160620,0
1710832232462,1710832224419,2163195,0
1710832232462,1710832224459,2165763,0
1710832232462,1710832224499,2168392,0
1710832232462,1710832224540,2171173,0
1710832232462,1710832224579,2174212,0
1710832232462,1710832224619,2177169,0
1710832232462,1710832224659,2180288,0
1710832232462,1710832224700,2183516,0
1710832232462,1710832224740,2186589,0
1710832232462,1710832224780,2189596,0
1710832232462,1710832224820,2192820,0
1710832232462,1710832224860,2194167,0
1710832232462,1710832224900,2191995,0
1710832232462,1710832224941,2191985,0
1710832232462,1710832224980,2192870,0
1710832232462,1710832225020,2194036,0
1710832232462,1710832225060,2195072,0
1710832232462,1710832225100,2196972,0
1710832232462,1710832225141,2199194,0
1710832232462,1710832225181,2201307,0
1710832232462,1710832225221,2203417,0
1710832232462,1710832225261,2205672,0
1710832232462,1710832225301,2208683,0
1710832232462,1710832225342,2211313,0
1710832232462,1710832225381,2214230,0
1710832232462,1710832225421,2216720,0
1710832232462,1710832225461,2219586,0
1710832232462,1710832225501,2222574,0
1710832232462,1710832225542,2225637,0
1710832232462,1710832225582,2226338,0
1710832232462,1710832225622,2223899,0
1710832232462,1710832225662,2224255,0
1710832232462,1710832225702,2225948,0
1710832232462,1710832225743,2227320,0
1710832232462,1710832225782,2229008,0
1710832232462,1710832225822,2231116,0
1710832232462,1710832225862,2233227,0
1710832232462,1710832225903,2235098,0
1710832232462,1710832225943,2237230,0
1710832232462,1710832225983,2239521,0
1710832232462,1710832226023,2242183,0
1710832232462,1710832226063,2244646,0
1710832232462,1710832226103,2246967,0
1710832232462,1710832226144,2249487,0
1710832232462,1710832226183,2251745,0
1710832232462,1710832226223,2254331,0
1710832232462,1710832226264,2253096,0
1710832232462,1710832226304,2250989,0
1710832232462,1710832226346,2251359,0
1710832232462,1710832226384,2252700,0
1710832232462,1710832226424,2253805,0
1710832232462,1710832226464,2255045,0
1710832232462,1710832226504,2256950,0
1710832232462,1710832226545,2258685,0
1710832232462,1710832226584,2260315,0
1710832232462,1710832226625,2262048,0
1710832232462,1710832226665,2264067,0
1710832232462,1710832226705,2266303,0
1710832232462,1710832226746,2268473,0
1710832232462,1710832226785,2270338,0
1710832232462,1710832226825,2272252,0
1710832232462,1710832226865,2274246,0
1710832232462,1710832226905,2275613,0
1710832232462,1710832226946,2272320,0
1710832232462,1710832226985,2270088,0
1710832232462,1710832227025,2269788,0
1710832232462,1710832227066,2270401,0
1710832232462,1710832227106,2270336,0
1710832232462,1710832227147,2271157,0
1710832232462,1710832227186,2273653,0
1710832232462,1710832227226,2275455,0
1710832232462,1710832227266,2277845,0
1710832232462,1710832227306,2280331,0
1710832232462,1710832227347,2283359,0
1710832232462,1710832227387,2287165,0
1710832232462,1710832227427,2290869,0
1710832232462,1710832227467,2293732,0
1710832232462,1710832227507,2296981,0
1710832232462,1710832227548,2299854,0
1710832232462,1710832227587,2301399,0
1710832232462,1710832227627,2297126,0
1710832232462,1710832227668,2293613,0
1710832232462,1710832227708,2292718,0
1710832232462,1710832227748,2292620,0
1710832232462,1710832227788,2292153,0
1710832232462,1710832227828,2292151,0
1710832232462,1710832227868,2292675,0
1710832232462,1710832227908,2293357,0
1710832232462,1710832227949,2294021,0
1710832232462,1710832227989,2295029,0
1710832232462,1710832228029,2296619,0
1710832232462,1710832228069,2298263,0
1710832232462,1710832228109,2299404,0
1710832232462,1710832228150,2300910,0
1710832232462,1710832228189,2301834,0
1710832232462,1710832228229,2303283,0
1710832232462,1710832228270,2304611,0
1710832232462,1710832228310,2306342,0
1710832232462,1710832228350,2301017,0
1710832232462,1710832228390,2293269,0
1710832232462,1710832228430,2287165,0
1710832232462,1710832228470,2282734,0
1710832232462,1710832228510,2278456,0
1710832232462,1710832228551,2276082,0
1710832232462,1710832228591,2275018,0
1710832232462,1710832228631,2273655,0
1710832232462,1710832228671,2272885,0
1710832232462,1710832228711,2272328,0
1710832232462,1710832228752,2273015,0
1710832232462,1710832228791,2274381,0
1710832232462,1710832228831,2275246,0
1710832232462,1710832228871,2276334,0
1710832232462,1710832228912,2276618,0
1710832232462,1710832228952,2272177,0
1710832232462,1710832228992,2266988,0
1710832232462,1710832229032,2263693,0
1710832232462,1710832229072,2261462,0
1710832232462,1710832229112,2259396,0
1710832232462,1710832229153,2258671,0
1710832232462,1710832229192,2258540,0
1710832232462,1710832229232,2258111,0
1710832232462,1710832229272,2258077,0
1710832232462,1710832229312,2258322,0
1710832232462,1710832229354,2258749,0
1710832232462,1710832229393,2259567,0
1710832232462,1710832229433,2260347,0
1710832232462,1710832229473,2261157,0
1710832232462,1710832229513,2262404,0
1710832232462,1710832229554,2263637,0
1710832232462,1710832229593,2260999,0
1710832232462,1710832229633,2255347,0
1710832232462,1710832229673,2251775,0
1710832232462,1710832229713,2249300,0
1710832232462,1710832229754,2246924,0
1710832232462,1710832229793,2245228,0
1710832232462,1710832229833,2244223,0
1710832232462,1710832229874,2243852,0
1710832232462,1710832229914,2243120,0
1710832232462,1710832229954,2242807,0
1710832232462,1710832229994,2242598,0
1710832232462,1710832230034,2242906,0
1710832232462,1710832230074,2243473,0
1710832232462,1710832230114,2243955,0
1710832232462,1710832230155,2244787,0
1710832232462,1710832230194,2246645,0
1710832232462,1710832230234,2245336,0
1710832232462,1710832230274,2243110,0
1710832232462,1710832230314,2242472,0
1710832232462,1710832230355,2250332,0
1710832232462,1710832230395,2254204,0
1710832232462,1710832230435,2253250,0
1710832232462,1710832230475,2251647,0
1710832232462,1710832230515,2250531,0
1710832232462,1710832230556,2249337,0
1710832232462,1710832230595,2251528,0
1710832232462,1710832230635,2253406,0
1710832232462,1710832230675,2252847,0
1710832232462,1710832230716,2266846,0
1710832232462,1710832230756,2270726,0
1710832232462,1710832230796,2277124,0
1710832232462,1710832230836,2278669,0
1710832232462,1710832230876,2274544,0
1710832232462,1710832230916,2271273,0
1710832232462,1710832230957,2270176,0
1710832232462,1710832230996,2271173,0
1710832232462,1710832231036,2270911,0
1710832232462,1710832231077,2271292,0
1710832232462,1710832231117,2271496,0
1710832232462,1710832231157,2272089,0
1710832232462,1710832231197,2272920,0
1710832232462,1710832231237,2274410,0
1710832232462,1710832231277,2275908,0
1710832232462,1710832231317,2277121,0
1710832232462,1710832231358,2278401,0
1710832232462,1710832231397,2279764,0
1710832232462,1710832231437,2280844,0
1710832232462,1710832231477,2280501,0
1710832232462,1710832231518,2279120,0
1710832232462,1710832231558,2278380,0
1710832232462,1710832231598,2278459,0
1710832232462,1710832231638,2278989,0
1710832232462,1710832231678,2279529,0
1710832232462,1710832231718,2280302,0
1710832232462,1710832231759,2281053,0
1710832232462,1710832231798,2281450,0
1710832232462,1710832231838,2282535,0
1710832232462,1710832231878,2283632,0
1710832232462,1710832231919,2284814,0
1710832232462,1710832231959,2286301,0
1710832232462,1710832231999,2287515,0
1710832232462,1710832232039,2288729,0
1710832232462,1710832232079,2287822,0
1710832232462,1710832232119,2285606,0
1710832232462,1710832232160,2285122,0
1710832232462,1710832232199,2285259,0
1710832232462,1710832232240,2285527,0
1710832232462,1710832232280,2286166,0
1710832232462,1710832232320,2286946,0
1710832232462,1710832232362,2287577,0
1710832244487,1710832232402,2288283,0
1710832244487,1710832232442,2289418,0
1710832244487,1710832232482,2290486,0
1710832244487,1710832232522,2291679,0
1710832244487,1710832232563,2292910,0
1710832244487,1710832232603,2294234,0
1710832244487,1710832232643,2294336,0
1710832244487,1710832232683,2291987,0
1710832244487,1710832232723,2290146,0
1710832244487,1710832232764,2289578,0
1710832244487,1710832232803,2289288,0
1710832244487,1710832232843,2289279,0
1710832244487,1710832232884,2289489,0
1710832244487,1710832232924,2290029,0
1710832244487,1710832232964,2290105,0
1710832244487,1710832233004,2290688,0
1710832244487,1710832233044,2291264,0
1710832244487,1710832233084,2291958,0
1710832244487,1710832233124,2292874,0
1710832244487,1710832233165,2293982,0
1710832244487,1710832233204,2294974,0
1710832244487,1710832233245,2295581,0
1710832244487,1710832233284,2293545,0
1710832244487,1710832233325,2290931,0
1710832244487,1710832233366,2290122,0
1710832244487,1710832233405,2290103,0
1710832244487,1710832233445,2289902,0
1710832244487,1710832233485,2290296,0
1710832244487,1710832233525,2290841,0
1710832244487,1710832233566,2291389,0
1710832244487,1710832233605,2291874,0
1710832244487,1710832233645,2292902,0
1710832244487,1710832233686,2293978,0
1710832244487,1710832233726,2295342,0
1710832244487,1710832233767,2296864,0
1710832244487,1710832233806,2298180,0
1710832244487,1710832233846,2299673,0
1710832244487,1710832233886,2300072,0
1710832244487,1710832233926,2298258,0
1710832244487,1710832233967,2296305,0
1710832244487,1710832234007,2295703,0
1710832244487,1710832234047,2295618,0
1710832244487,1710832234087,2295883,0
1710832244487,1710832234127,2296290,0
1710832244487,1710832234168,2296598,0
1710832244487,1710832234208,2296930,0
1710832244487,1710832234247,2297446,0
1710832244487,1710832234288,2298271,0
1710832244487,1710832234328,2299262,0
1710832244487,1710832234369,2300508,0
1710832244487,1710832234408,2301885,0
1710832244487,1710832234448,2303227,0
1710832244487,1710832234488,2304315,0
1710832244487,1710832234528,2302944,0
1710832244487,1710832234569,2300549,0
1710832244487,1710832234609,2299698,0
1710832244487,1710832234649,2300078,0
1710832244487,1710832234689,2300947,0
1710832244487,1710832234729,2302619,0
1710832244487,1710832234770,2304430,0
1710832244487,1710832234809,2306090,0
1710832244487,1710832234849,2308220,0
1710832244487,1710832234889,2310361,0
1710832244487,1710832234930,2312383,0
1710832244487,1710832234970,2314734,0
1710832244487,1710832235010,2317143,0
1710832244487,1710832235050,2319382,0
1710832244487,1710832235090,2320229,0
1710832244487,1710832235130,2316602,0
1710832244487,1710832235171,2313650,0
1710832244487,1710832235211,2313230,0
1710832244487,1710832235251,2313978,0
1710832244487,1710832235291,2314538,0
1710832244487,1710832235331,2315836,0
1710832244487,1710832235373,2317044,0
1710832244487,1710832235411,2318018,0
1710832244487,1710832235451,2319224,0
1710832244487,1710832235491,2321073,0
1710832244487,1710832235532,2323041,0
1710832244487,1710832235572,2324941,0
1710832244487,1710832235612,2326821,0
1710832244487,1710832235652,2328736,0
1710832244487,1710832235692,2326797,0
1710832244487,1710832235732,2321187,0
1710832244487,1710832235773,2318395,0
1710832244487,1710832235812,2317507,0
1710832244487,1710832235852,2316871,0
1710832244487,1710832235892,2316607,0
1710832244487,1710832235932,2317222,0
1710832244487,1710832235973,2317938,0
1710832244487,1710832236013,2318725,0
1710832244487,1710832236053,2319461,0
1710832244487,1710832236093,2320764,0
1710832244487,1710832236133,2321878,0
1710832244487,1710832236174,2323123,0
1710832244487,1710832236213,2324145,0
1710832244487,1710832236253,2325161,0
1710832244487,1710832236293,2325442,0
1710832244487,1710832236333,2319964,0
1710832244487,1710832236374,2315944,0
1710832244487,1710832236413,2314473,0
1710832244487,1710832236454,2313791,0
1710832244487,1710832236494,2313513,0
1710832244487,1710832236534,2313810,0
1710832244487,1710832236575,2314104,0
1710832244487,1710832236614,2314470,0
1710832244487,1710832236654,2314852,0
1710832244487,1710832236694,2315575,0
1710832244487,1710832236734,2316365,0
1710832244487,1710832236775,2317364,0
1710832244487,1710832236814,2318608,0
1710832244487,1710832236855,2319798,0
1710832244487,1710832236895,2320690,0
1710832244487,1710832236935,2321803,0
1710832244487,1710832236976,2319952,0
1710832244487,1710832237015,2314961,0
1710832244487,1710832237055,2312384,0
1710832244487,1710832237095,2311071,0
1710832244487,1710832237135,2310548,0
1710832244487,1710832237176,2310681,0
1710832244487,1710832237215,2310928,0
1710832244487,1710832237255,2311300,0
1710832244487,1710832237295,2311805,0
1710832244487,1710832237336,2312540,0
1710832244487,1710832237376,2313701,0
1710832244487,1710832237416,2314803,0
1710832244487,1710832237456,2315893,0
1710832244487,1710832237496,2317148,0
1710832244487,1710832237536,2318238,0
1710832244487,1710832237577,2319460,0
1710832244487,1710832237616,2320325,0
1710832244487,1710832237656,2320632,0
1710832244487,1710832237697,2317188,0
1710832244487,1710832237737,2313416,0
1710832244487,1710832237777,2311963,0
1710832244487,1710832237817,2311467,0
1710832244487,1710832237857,2311395,0
1710832244487,1710832237897,2311981,0
1710832244487,1710832237937,2312905,0
1710832244487,1710832237978,2313576,0
1710832244487,1710832238017,2314858,0
1710832244487,1710832238057,2316129,0
1710832244487,1710832238097,2317504,0
1710832244487,1710832238138,2319474,0
1710832244487,1710832238178,2321471,0
1710832244487,1710832238218,2323329,0
1710832244487,1710832238258,2325843,0
1710832244487,1710832238298,2328146,0
1710832244487,1710832238338,2330382,0
1710832244487,1710832238380,2330440,0
1710832244487,1710832238418,2326897,0
1710832244487,1710832238458,2326401,0
1710832244487,1710832238498,2327920,0
1710832244487,1710832238539,2330015,0
1710832244487,1710832238579,2332650,0
1710832244487,1710832238619,2335210,0
1710832244487,1710832238659,2337386,0
1710832244487,1710832238699,2339193,0
1710832244487,1710832238739,2341168,0
1710832244487,1710832238780,2343150,0
1710832244487,1710832238819,2344665,0
1710832244487,1710832238859,2346365,0
1710832244487,1710832238900,2347950,0
1710832244487,1710832238940,2349441,0
1710832244487,1710832238980,2350865,0
1710832244487,1710832239020,2352269,0
1710832244487,1710832239060,2353670,0
1710832244487,1710832239100,2350392,0
1710832244487,1710832239140,2347178,0
1710832244487,1710832239181,2346852,0
1710832244487,1710832239220,2347637,0
1710832244487,1710832239260,2348661,0
1710832244487,1710832239300,2349467,0
1710832244487,1710832239341,2350207,0
1710832244487,1710832239382,2350973,0
1710832244487,1710832239421,2351348,0
1710832244487,1710832239461,2352285,0
1710832244487,1710832239501,2352976,0
1710832244487,1710832239541,2353580,0
1710832244487,1710832239582,2354787,0
1710832244487,1710832239622,2355571,0
1710832244487,1710832239662,2356392,0
1710832244487,1710832239702,2357558,0
1710832244487,1710832239742,2358211,0
1710832244487,1710832239783,2355936,0
1710832244487,1710832239822,2352748,0
1710832244487,1710832239862,2352187,0
1710832244487,1710832239902,2353001,0
1710832244487,1710832239942,2354113,0
1710832244487,1710832239983,2355407,0
1710832244487,1710832240023,2356128,0
1710832244487,1710832240063,2356647,0
1710832244487,1710832240103,2357574,0
1710832244487,1710832240143,2358896,0
1710832244487,1710832240184,2359871,0
1710832244487,1710832240223,2361139,0
1710832244487,1710832240263,2362168,0
1710832244487,1710832240304,2363338,0
1710832244487,1710832240344,2364477,0
1710832244487,1710832240385,2362557,0
1710832244487,1710832240424,2358761,0
1710832244487,1710832240464,2357736,0
1710832244487,1710832240504,2358086,0
1710832244487,1710832240544,2358583,0
1710832244487,1710832240585,2359595,0
1710832244487,1710832240625,2360192,0
1710832244487,1710832240665,2360918,0
1710832244487,1710832240705,2361895,0
1710832244487,1710832240745,2363128,0
1710832244487,1710832240786,2364821,0
1710832244487,1710832240825,2366246,0
1710832244487,1710832240865,2367865,0
1710832244487,1710832240905,2369523,0
1710832244487,1710832240946,2371521,0
1710832244487,1710832240987,2372433,0
1710832244487,1710832241026,2367110,0
1710832244487,1710832241066,2362438,0
1710832244487,1710832241106,2360362,0
1710832244487,1710832241146,2359058,0
1710832244487,1710832241187,2357460,0
1710832244487,1710832241227,2357050,0
1710832244487,1710832241267,2357639,0
1710832244487,1710832241307,2358097,0
1710832244487,1710832241347,2359030,0
1710832244487,1710832241389,2360296,0
1710832244487,1710832241427,2361933,0
1710832244487,1710832241467,2363592,0
1710832244487,1710832241508,2365661,0
1710832244487,1710832241548,2367309,0
1710832244487,1710832241589,2369264,0
1710832244487,1710832241628,2371088,0
1710832244487,1710832241668,2365485,0
1710832244487,1710832241708,2359034,0
1710832244487,1710832241748,2354846,0
1710832244487,1710832241789,2351763,0
1710832244487,1710832241829,2348795,0
1710832244487,1710832241869,2346935,0
1710832244487,1710832241909,2346726,0
1710832244487,1710832241949,2347164,0
1710832244487,1710832241990,2347721,0
1710832244487,1710832242030,2349009,0
1710832244487,1710832242070,2352484,0
1710832244487,1710832242110,2354166,0
1710832244487,1710832242150,2355384,0
1710832244487,1710832242191,2356454,0
1710832244487,1710832242230,2357451,0
1710832244487,1710832242270,2358828,0
1710832244487,1710832242310,2359641,0
1710832244487,1710832242350,2352391,0
1710832244487,1710832242391,2344565,0
1710832244487,1710832242430,2339658,0
1710832244487,1710832242471,2335585,0
1710832244487,1710832242511,2331642,0
1710832244487,1710832242551,2329333,0
1710832244487,1710832242591,2328364,0
1710832244487,1710832242631,2327147,0
1710832244487,1710832242671,2326246,0
1710832244487,1710832242711,2326152,0
1710832244487,1710832242751,2326673,0
1710832244487,1710832242792,2327388,0
1710832244487,1710832242831,2328230,0
1710832244487,1710832242872,2329142,0
1710832244487,1710832242911,2330188,0
1710832244487,1710832242952,2331666,0
1710832244487,1710832242993,2330930,0
1710832244487,1710832243032,2322882,0
1710832244487,1710832243072,2315000,0
1710832244487,1710832243112,2308873,0
1710832244487,1710832243152,2302729,0
1710832244487,1710832243193,2297013,0
1710832244487,1710832243232,2293608,0
1710832244487,1710832243272,2291656,0
1710832244487,1710832243312,2289695,0
1710832244487,1710832243353,2288258,0
1710832244487,1710832243393,2287399,0
1710832244487,1710832243433,2287017,0
1710832244487,1710832243473,2287202,0
1710832244487,1710832243513,2287411,0
1710832244487,1710832243553,2287608,0
1710832244487,1710832243594,2287955,0
1710832244487,1710832243633,2288825,0
1710832244487,1710832243673,2289161,0
1710832244487,1710832243714,2281497,0
1710832244487,1710832243754,2270472,0
1710832244487,1710832243794,2260524,0
1710832244487,1710832243834,2250828,0
1710832244487,1710832243874,2241077,0
1710832244487,1710832243914,2233778,0
1710832244487,1710832243954,2229441,0
1710832244487,1710832243995,2226089,0
1710832244487,1710832244034,2223328,0
1710832244487,1710832244075,2221525,0
1710832244487,1710832244115,2220559,0
1710832244487,1710832244155,2219940,0
1710832244487,1710832244196,2220169,0
1710832244487,1710832244235,2221005,0
1710832244487,1710832244275,2222037,0
1710832244487,1710832244315,2223182,0
1710832244487,1710832244355,2224508,0
1710832244487,1710832244398,2226445,0
1710832256532,1710832244435,2228130,0
1710832256532,1710832244475,2221717,0
1710832256532,1710832244515,2210953,0
1710832256532,1710832244555,2202055,0
1710832256532,1710832244596,2193997,0
1710832256532,1710832244635,2186139,0
1710832256532,1710832244675,2180298,0
1710832256532,1710832244715,2178321,0
1710832256532,1710832244755,2177245,0
1710832256532,1710832244796,2176264,0
1710832256532,1710832244836,2175703,0
1710832256532,1710832244876,2176418,0
1710832256532,1710832244916,2177671,0
1710832256532,1710832244956,2179364,0
1710832256532,1710832244997,2181778,0
1710832256532,1710832245037,2184561,0
1710832256532,1710832245076,2187950,0
1710832256532,1710832245117,2191603,0
1710832256532,1710832245157,2195454,0
1710832256532,1710832245197,2199082,0
1710832256532,1710832245237,2202817,0
1710832256532,1710832245277,2205174,0
1710832256532,1710832245317,2198612,0
1710832256532,1710832245357,2190531,0
1710832256532,1710832245398,2184848,0
1710832256532,1710832245438,2180092,0
1710832256532,1710832245478,2175268,0
1710832256532,1710832245518,2172618,0
1710832256532,1710832245558,2172090,0
1710832256532,1710832245599,2171976,0
1710832256532,1710832245638,2172356,0
1710832256532,1710832245678,2173500,0
1710832256532,1710832245718,2175531,0
1710832256532,1710832245758,2177763,0
1710832256532,1710832245799,2180334,0
1710832256532,1710832245839,2182818,0
1710832256532,1710832245879,2185437,0
1710832256532,1710832245919,2188134,0
1710832256532,1710832245959,2190933,0
1710832256532,1710832246000,2193569,0
1710832256532,1710832246039,2196523,0
1710832256532,1710832246079,2199562,0
1710832256532,1710832246119,2202386,0
1710832256532,1710832246159,2199527,0
1710832256532,1710832246200,2192818,0
1710832256532,1710832246240,2188659,0
1710832256532,1710832246280,2185925,0
1710832256532,1710832246320,2183262,0
1710832256532,1710832246360,2181265,0
1710832256532,1710832246401,2181169,0
1710832256532,1710832246440,2181160,0
1710832256532,1710832246481,2180827,0
1710832256532,1710832246520,2180846,0
1710832256532,1710832246561,2181293,0
1710832256532,1710832246602,2182127,0
1710832256532,1710832246641,2182977,0
1710832256532,1710832246681,2183501,0
1710832256532,1710832246721,2184446,0
1710832256532,1710832246761,2186079,0
1710832256532,1710832246802,2187804,0
1710832256532,1710832246842,2189872,0
1710832256532,1710832246882,2192138,0
1710832256532,1710832246922,2193476,0
1710832256532,1710832246962,2189637,0
1710832256532,1710832247003,2184990,0
1710832256532,1710832247042,2183239,0
1710832256532,1710832247082,2182389,0
1710832256532,1710832247122,2181555,0
1710832256532,1710832247163,2182180,0
1710832256532,1710832247203,2183533,0
1710832256532,1710832247243,2185518,0
1710832256532,1710832247283,2187596,0
1710832256532,1710832247323,2190678,0
1710832256532,1710832247363,2193439,0
1710832256532,1710832247405,2196363,0
1710832256532,1710832247443,2199766,0
1710832256532,1710832247484,2202862,0
1710832256532,1710832247524,2206032,0
1710832256532,1710832247564,2209125,0
1710832256532,1710832247605,2212479,0
1710832256532,1710832247644,2213972,0
1710832256532,1710832247684,2210207,0
1710832256532,1710832247724,2206819,0
1710832256532,1710832247764,2205585,0
1710832256532,1710832247805,2204592,0
1710832256532,1710832247845,2203753,0
1710832256532,1710832247885,2204099,0
1710832256532,1710832247925,2205086,0
1710832256532,1710832247965,2206186,0
1710832256532,1710832248006,2207145,0
1710832256532,1710832248045,2208656,0
1710832256532,1710832248086,2210341,0
1710832256532,1710832248126,2212516,0
1710832256532,1710832248166,2214841,0
1710832256532,1710832248207,2216912,0
1710832256532,1710832248246,2219430,0
1710832256532,1710832248286,2222340,0
1710832256532,1710832248326,2224932,0
1710832256532,1710832248366,2225177,0
1710832256532,1710832248408,2220771,0
1710832256532,1710832248447,2217476,0
1710832256532,1710832248487,2215964,0
1710832256532,1710832248527,2214635,0
1710832256532,1710832248567,2213863,0
1710832256532,1710832248608,2214804,0
1710832256532,1710832248647,2216512,0
1710832256532,1710832248687,2218341,0
1710832256532,1710832248727,2220369,0
1710832256532,1710832248767,2222611,0
1710832256532,1710832248808,2225364,0
1710832256532,1710832248847,2228037,0
1710832256532,1710832248888,2230584,0
1710832256532,1710832248928,2233212,0
1710832256532,1710832248968,2235404,0
1710832256532,1710832249009,2238286,0
1710832256532,1710832249048,2240815,0
1710832256532,1710832249088,2243436,0
1710832256532,1710832249128,2244056,0
1710832256532,1710832249168,2239516,0
1710832256532,1710832249209,2236087,0
1710832256532,1710832249249,2234840,0
1710832256532,1710832249288,2233692,0
1710832256532,1710832249329,2232939,0
1710832256532,1710832249369,2233103,0
1710832256532,1710832249409,2233560,0
1710832256532,1710832249449,2234253,0
1710832256532,1710832249489,2235283,0
1710832256532,1710832249529,2236855,0
1710832256532,1710832249569,2238806,0
1710832256532,1710832249610,2240817,0
1710832256532,1710832249649,2242630,0
1710832256532,1710832249690,2244689,0
1710832256532,1710832249730,2246602,0
1710832256532,1710832249770,2247917,0
1710832256532,1710832249810,2248942,0
1710832256532,1710832249850,2250703,0
1710832256532,1710832249890,2251272,0
1710832256532,1710832249930,2249115,0
1710832256532,1710832249970,2246837,0
1710832256532,1710832250011,2246066,0
1710832256532,1710832250050,2246036,0
1710832256532,1710832250091,2246284,0
1710832256532,1710832250131,2246840,0
1710832256532,1710832250171,2247609,0
1710832256532,1710832250212,2248795,0
1710832256532,1710832250251,2249862,0
1710832256532,1710832250291,2251471,0
1710832256532,1710832250331,2253267,0
1710832256532,1710832250371,2255045,0
1710832256532,1710832250414,2257121,0
1710832256532,1710832250452,2259129,0
1710832256532,1710832250492,2261233,0
1710832256532,1710832250532,2263377,0
1710832256532,1710832250572,2265810,0
1710832256532,1710832250613,2267722,0
1710832256532,1710832250652,2264852,0
1710832256532,1710832250692,2259632,0
1710832256532,1710832250732,2256648,0
1710832256532,1710832250772,2254878,0
1710832256532,1710832250813,2253173,0
1710832256532,1710832250853,2252030,0
1710832256532,1710832250893,2252301,0
1710832256532,1710832250933,2252118,0
1710832256532,1710832250973,2251617,0
1710832256532,1710832251014,2252029,0
1710832256532,1710832251053,2252639,0
1710832256532,1710832251093,2253440,0
1710832256532,1710832251134,2254719,0
1710832256532,1710832251174,2255917,0
1710832256532,1710832251214,2257540,0
1710832256532,1710832251254,2259262,0
1710832256532,1710832251294,2260968,0
1710832256532,1710832251334,2263341,0
1710832256532,1710832251374,2265421,0
1710832256532,1710832251415,2262839,0
1710832256532,1710832251454,2257762,0
1710832256532,1710832251494,2254401,0
1710832256532,1710832251535,2252419,0
1710832256532,1710832251575,2250478,0
1710832256532,1710832251615,2249375,0
1710832256532,1710832251655,2249198,0
1710832256532,1710832251695,2249231,0
1710832256532,1710832251735,2249181,0
1710832256532,1710832251775,2249673,0
1710832256532,1710832251816,2250610,0
1710832256532,1710832251855,2252123,0
1710832256532,1710832251895,2253750,0
1710832256532,1710832251935,2255382,0
1710832256532,1710832251976,2257113,0
1710832256532,1710832252017,2259052,0
1710832256532,1710832252056,2261327,0
1710832256532,1710832252096,2263856,0
1710832256532,1710832252136,2266670,0
1710832256532,1710832252176,2266260,0
1710832256532,1710832252217,2259150,0
1710832256532,1710832252256,2253647,0
1710832256532,1710832252296,2251271,0
1710832256532,1710832252337,2249277,0
1710832256532,1710832252377,2247454,0
1710832256532,1710832252417,2247110,0
1710832256532,1710832252457,2247208,0
1710832256532,1710832252497,2247205,0
1710832256532,1710832252537,2247385,0
1710832256532,1710832252577,2248412,0
1710832256532,1710832252618,2249815,0
1710832256532,1710832252657,2251782,0
1710832256532,1710832252697,2253621,0
1710832256532,1710832252738,2255452,0
1710832256532,1710832252778,2257346,0
1710832256532,1710832252819,2259322,0
1710832256532,1710832252858,2261515,0
1710832256532,1710832252898,2263600,0
1710832256532,1710832252938,2259726,0
1710832256532,1710832252978,2252153,0
1710832256532,1710832253019,2247989,0
1710832256532,1710832253058,2246035,0
1710832256532,1710832253099,2244389,0
1710832256532,1710832253139,2243223,0
1710832256532,1710832253179,2242598,0
1710832256532,1710832253220,2241944,0
1710832256532,1710832253259,2241409,0
1710832256532,1710832253299,2241745,0
1710832256532,1710832253339,2242681,0
1710832256532,1710832253379,2244484,0
1710832256532,1710832253421,2246440,0
1710832256532,1710832253460,2248266,0
1710832256532,1710832253500,2250283,0
1710832256532,1710832253540,2252261,0
1710832256532,1710832253580,2254120,0
1710832256532,1710832253621,2256320,0
1710832256532,1710832253660,2257432,0
1710832256532,1710832253700,2249948,0
1710832256532,1710832253740,2242098,0
1710832256532,1710832253780,2237198,0
1710832256532,1710832253821,2233649,0
1710832256532,1710832253861,2229753,0
1710832256532,1710832253901,2226869,0
1710832256532,1710832253941,2225463,0
1710832256532,1710832253981,2224349,0
1710832256532,1710832254022,2223243,0
1710832256532,1710832254061,2222975,0
1710832256532,1710832254101,2223286,0
1710832256532,1710832254142,2224357,0
1710832256532,1710832254182,2225608,0
1710832256532,1710832254222,2226749,0
1710832256532,1710832254262,2227962,0
1710832256532,1710832254302,2229213,0
1710832256532,1710832254342,2231147,0
1710832256532,1710832254382,2232742,0
1710832256532,1710832254423,2229732,0
1710832256532,1710832254463,2220670,0
1710832256532,1710832254503,2213806,0
1710832256532,1710832254543,2209095,0
1710832256532,1710832254583,2204531,0
1710832256532,1710832254624,2200667,0
1710832256532,1710832254663,2198716,0
1710832256532,1710832254703,2197614,0
1710832256532,1710832254744,2196832,0
1710832256532,1710832254784,2196722,0
1710832256532,1710832254824,2197440,0
1710832256532,1710832254864,2199017,0
1710832256532,1710832254904,2200849,0
1710832256532,1710832254944,2202830,0
1710832256532,1710832254984,2204865,0
1710832256532,1710832255025,2207067,0
1710832256532,1710832255065,2209406,0
1710832256532,1710832255105,2212048,0
1710832256532,1710832255145,2214923,0
1710832256532,1710832255185,2202597,0
1710832256532,1710832255226,2197778,0
1710832256532,1710832255265,2194950,0
1710832256532,1710832255305,2192292,0
1710832256532,1710832255345,2190494,0
1710832256532,1710832255386,2190163,0
1710832256532,1710832255426,2190347,0
1710832256532,1710832255466,2190534,0
1710832256532,1710832255506,2191246,0
1710832256532,1710832255546,2193063,0
1710832256532,1710832255586,2195548,0
1710832256532,1710832255627,2198174,0
1710832256532,1710832255666,2200850,0
1710832256532,1710832255706,2203457,0
1710832256532,1710832255746,2206022,0
1710832256532,1710832255786,2208747,0
1710832256532,1710832255827,2211577,0
1710832256532,1710832255866,2210784,0
1710832256532,1710832255906,2203368,0
1710832256532,1710832255946,2197852,0
1710832256532,1710832255987,2195668,0
1710832256532,1710832256027,2194091,0
1710832256532,1710832256067,2193252,0
1710832256532,1710832256107,2193341,0
1710832256532,1710832256147,2193175,0
1710832256532,1710832256187,2193364,0
1710832256532,1710832256228,2194061,0
1710832256532,1710832256267,2195064,0
1710832256532,1710832256307,2196683,0
1710832256532,1710832256348,2199153,0
1710832256532,1710832256388,2201881,0
1710832256532,1710832256430,2204981,0
1710832268561,1710832256470,2207830,0
1710832268561,1710832256510,2211228,0
1710832268561,1710832256550,2214389,0
1710832268561,1710832256590,2210802,0
1710832268561,1710832256631,2202214,0
1710832268561,1710832256670,2196071,0
1710832268561,1710832256711,2191874,0
1710832268561,1710832256750,2188024,0
1710832268561,1710832256791,2184921,0
1710832268561,1710832256832,2183366,0
1710832268561,1710832256871,2182369,0
1710832268561,1710832256911,2181784,0
1710832268561,1710832256951,2182376,0
1710832268561,1710832256991,2183315,0
1710832268561,1710832257032,2184063,0
1710832268561,1710832257071,2184437,0
1710832268561,1710832257111,2185268,0
1710832268561,1710832257151,2186254,0
1710832268561,1710832257192,2187887,0
1710832268561,1710832257232,2189786,0
1710832268561,1710832257272,2191659,0
1710832268561,1710832257312,2188753,0
1710832268561,1710832257352,2181702,0
1710832268561,1710832257392,2176163,0
1710832268561,1710832257433,2172004,0
1710832268561,1710832257472,2167473,0
1710832268561,1710832257512,2164399,0
1710832268561,1710832257553,2163179,0
1710832268561,1710832257592,2162320,0
1710832268561,1710832257633,2162017,0
1710832268561,1710832257673,2162345,0
1710832268561,1710832257713,2163175,0
1710832268561,1710832257753,2165038,0
1710832268561,1710832257793,2167014,0
1710832268561,1710832257834,2168789,0
1710832268561,1710832257873,2170507,0
1710832268561,1710832257913,2172406,0
1710832268561,1710832257954,2174460,0
1710832268561,1710832257994,2177142,0
1710832268561,1710832258035,2177614,0
1710832268561,1710832258074,2172067,0
1710832268561,1710832258114,2166332,0
1710832268561,1710832258154,2162164,0
1710832268561,1710832258194,2158808,0
1710832268561,1710832258235,2155982,0
1710832268561,1710832258275,2154802,0
1710832268561,1710832258315,2154579,0
1710832268561,1710832258355,2154484,0
1710832268561,1710832258395,2154477,0
1710832268561,1710832258436,2155308,0
1710832268561,1710832258475,2156158,0
1710832268561,1710832258515,2158105,0
1710832268561,1710832258555,2160508,0
1710832268561,1710832258595,2163152,0
1710832268561,1710832258636,2165762,0
1710832268561,1710832258676,2168662,0
1710832268561,1710832258716,2171854,0
1710832268561,1710832258756,2175174,0
1710832268561,1710832258796,2174870,0
1710832268561,1710832258837,2168170,0
1710832268561,1710832258876,2163065,0
1710832268561,1710832258916,2159985,0
1710832268561,1710832258957,2156963,0
1710832268561,1710832258997,2154470,0
1710832268561,1710832259038,2154102,0
1710832268561,1710832259077,2154043,0
1710832268561,1710832259117,2153889,0
1710832268561,1710832259157,2154051,0
1710832268561,1710832259197,2155266,0
1710832268561,1710832259238,2156454,0
1710832268561,1710832259278,2158284,0
1710832268561,1710832259318,2160641,0
1710832268561,1710832259358,2163378,0
1710832268561,1710832259398,2166084,0
1710832268561,1710832259440,2169528,0
1710832268561,1710832259478,2173373,0
1710832268561,1710832259518,2178490,0
1710832268561,1710832259559,2182354,0
1710832268561,1710832259599,2180782,0
1710832268561,1710832259640,2180647,0
1710832268561,1710832259679,2183495,0
1710832268561,1710832259719,2185736,0
1710832268561,1710832259759,2185320,0
1710832268561,1710832259799,2187245,0
1710832268561,1710832259840,2186904,0
1710832268561,1710832259880,2184396,0
1710832268561,1710832259920,2182107,0
1710832268561,1710832259960,2182053,0
1710832268561,1710832260000,2181179,0
1710832268561,1710832260041,2179995,0
1710832268561,1710832260081,2178942,0
1710832268561,1710832260121,2177910,0
1710832268561,1710832260161,2176253,0
1710832268561,1710832260201,2176418,0
1710832268561,1710832260242,2176773,0
1710832268561,1710832260281,2177500,0
1710832268561,1710832260321,2180712,0
1710832268561,1710832260361,2183467,0
1710832268561,1710832260402,2180613,0
1710832268561,1710832260442,2186412,0
1710832268561,1710832260482,2180175,0
1710832268561,1710832260522,2172987,0
1710832268561,1710832260562,2168696,0
1710832268561,1710832260602,2165364,0
1710832268561,1710832260643,2166085,0
1710832268561,1710832260683,2174086,0
1710832268561,1710832260723,2185191,0
1710832268561,1710832260763,2199178,0
1710832268561,1710832260803,2206246,0
1710832268561,1710832260844,2215172,0
1710832268561,1710832260883,2222247,0
1710832268561,1710832260924,2223393,0
1710832268561,1710832260963,2222800,0
1710832268561,1710832261004,2222404,0
1710832268561,1710832261045,2223003,0
1710832268561,1710832261084,2222983,0
1710832268561,1710832261124,2227233,0
1710832268561,1710832261164,2230583,0
1710832268561,1710832261204,2234260,0
1710832268561,1710832261245,2236379,0
1710832268561,1710832261285,2237707,0
1710832268561,1710832261325,2237806,0
1710832268561,1710832261365,2236278,0
1710832268561,1710832261405,2236129,0
1710832268561,1710832261446,2237160,0
1710832268561,1710832261485,2238826,0
1710832268561,1710832261525,2241855,0
1710832268561,1710832261565,2244155,0
1710832268561,1710832261605,2246609,0
1710832268561,1710832261646,2249483,0
1710832268561,1710832261686,2249458,0
1710832268561,1710832261726,2240524,0
1710832268561,1710832261766,2231865,0
1710832268561,1710832261806,2226000,0
1710832268561,1710832261847,2225852,0
1710832268561,1710832261886,2226393,0
1710832268561,1710832261926,2229387,0
1710832268561,1710832261966,2231217,0
1710832268561,1710832262006,2231470,0
1710832268561,1710832262047,2235829,0
1710832268561,1710832262086,2244936,0
1710832268561,1710832262127,2250329,0
1710832268561,1710832262167,2253013,0
1710832268561,1710832262207,2253418,0
1710832268561,1710832262248,2255163,0
1710832268561,1710832262287,2258434,0
1710832268561,1710832262327,2257333,0
1710832268561,1710832262367,2249660,0
1710832268561,1710832262407,2246095,0
1710832268561,1710832262449,2252515,0
1710832268561,1710832262488,2256557,0
1710832268561,1710832262527,2263862,0
1710832268561,1710832262567,2270888,0
1710832268561,1710832262608,2273438,0
1710832268561,1710832262648,2273612,0
1710832268561,1710832262688,2258718,0
1710832268561,1710832262728,2248161,0
1710832268561,1710832262768,2240368,0
1710832268561,1710832262808,2239535,0
1710832268561,1710832262849,2243147,0
1710832268561,1710832262888,2248282,0
1710832268561,1710832262928,2253663,0
1710832268561,1710832262969,2251204,0
1710832268561,1710832263009,2243688,0
1710832268561,1710832263049,2242187,0
1710832268561,1710832263089,2245014,0
1710832268561,1710832263129,2245142,0
1710832268561,1710832263169,2243069,0
1710832268561,1710832263209,2240941,0
1710832268561,1710832263250,2238099,0
1710832268561,1710832263289,2233780,0
1710832268561,1710832263330,2228583,0
1710832268561,1710832263370,2223876,0
1710832268561,1710832263410,2220243,0
1710832268561,1710832263451,2218635,0
1710832268561,1710832263490,2217651,0
1710832268561,1710832263530,2216551,0
1710832268561,1710832263573,2213300,0
1710832268561,1710832263610,2199144,0
1710832268561,1710832263651,2184369,0
1710832268561,1710832263691,2173916,0
1710832268561,1710832263731,2165631,0
1710832268561,1710832263771,2158275,0
1710832268561,1710832263811,2152533,0
1710832268561,1710832263852,2148814,0
1710832268561,1710832263891,2145096,0
1710832268561,1710832263931,2141039,0
1710832268561,1710832263971,2138332,0
1710832268561,1710832264011,2138673,0
1710832268561,1710832264052,2146104,0
1710832268561,1710832264092,2158972,0
1710832268561,1710832264132,2179226,0
1710832268561,1710832264172,2191420,0
1710832268561,1710832264212,2199525,0
1710832268561,1710832264253,2202582,0
1710832268561,1710832264292,2201614,0
1710832268561,1710832264332,2197802,0
1710832268561,1710832264372,2187652,0
1710832268561,1710832264413,2177685,0
1710832268561,1710832264453,2169523,0
1710832268561,1710832264493,2163157,0
1710832268561,1710832264533,2156574,0
1710832268561,1710832264573,2150584,0
1710832268561,1710832264613,2146119,0
1710832268561,1710832264654,2142711,0
1710832268561,1710832264693,2140427,0
1710832268561,1710832264733,2138958,0
1710832268561,1710832264774,2138387,0
1710832268561,1710832264814,2134548,0
1710832268561,1710832264854,2119960,0
1710832268561,1710832264894,2105333,0
1710832268561,1710832264934,2095280,0
1710832268561,1710832264974,2087428,0
1710832268561,1710832265014,2080315,0
1710832268561,1710832265055,2075247,0
1710832268561,1710832265094,2072079,0
1710832268561,1710832265135,2069786,0
1710832268561,1710832265175,2068507,0
1710832268561,1710832265215,2068776,0
1710832268561,1710832265256,2070443,0
1710832268561,1710832265295,2072648,0
1710832268561,1710832265335,2074302,0
1710832268561,1710832265375,2075721,0
1710832268561,1710832265415,2077060,0
1710832268561,1710832265458,2075616,0
1710832268561,1710832265496,2064003,0
1710832268561,1710832265536,2052485,0
1710832268561,1710832265576,2045982,0
1710832268561,1710832265616,2042103,0
1710832268561,1710832265657,2039287,0
1710832268561,1710832265696,2037826,0
1710832268561,1710832265736,2037006,0
1710832268561,1710832265779,2036158,0
1710832268561,1710832265817,2035376,0
1710832268561,1710832265858,2035526,0
1710832268561,1710832265897,2036658,0
1710832268561,1710832265937,2038522,0
1710832268561,1710832265977,2039913,0
1710832268561,1710832266017,2040515,0
1710832268561,1710832266058,2040991,0
1710832268561,1710832266098,2032805,0
1710832268561,1710832266138,2019443,0
1710832268561,1710832266178,2010046,0
1710832268561,1710832266218,2004709,0
1710832268561,1710832266259,2000283,0
1710832268561,1710832266298,1995554,0
1710832268561,1710832266338,1990670,0
1710832268561,1710832266378,1986879,0
1710832268561,1710832266418,1985339,0
1710832268561,1710832266459,1986770,0
1710832268561,1710832266499,1990105,0
1710832268561,1710832266539,1994279,0
1710832268561,1710832266579,1998834,0
1710832268561,1710832266619,2003994,0
1710832268561,1710832266660,2009034,0
1710832268561,1710832266700,2010532,0
1710832268561,1710832266740,2004459,0
1710832268561,1710832266780,2000221,0
1710832268561,1710832266820,1997707,0
1710832268561,1710832266861,1995397,0
1710832268561,1710832266900,1993624,0
1710832268561,1710832266941,1994043,0
1710832268561,1710832266980,1995597,0
1710832268561,1710832267021,1997275,0
1710832268561,1710832267062,1999252,0
1710832268561,1710832267101,2002036,0
1710832268561,1710832267141,2005106,0
1710832268561,1710832267181,2007612,0
1710832268561,1710832267221,2009547,0
1710832268561,1710832267262,2010872,0
1710832268561,1710832267302,2011714,0
1710832268561,1710832267342,2008861,0
1710832268561,1710832267382,1997613,0
1710832268561,1710832267422,1987921,0
1710832268561,1710832267463,1979551,0
1710832268561,1710832267502,1970656,0
1710832268561,1710832267543,1961533,0
1710832268561,1710832267583,1954284,0
1710832268561,1710832267623,1948842,0
1710832268561,1710832267664,1945512,0
1710832268561,1710832267703,1943708,0
1710832268561,1710832267743,1944269,0
1710832268561,1710832267784,1947858,0
1710832268561,1710832267824,1960192,0
1710832268561,1710832267864,1966589,0
1710832268561,1710832267904,1970949,0
1710832268561,1710832267944,1975475,0
1710832268561,1710832267987,1977139,0
1710832268561,1710832268024,1978698,0
1710832268561,1710832268065,1982116,0
1710832268561,1710832268104,1986583,0
1710832268561,1710832268144,1987624,0
1710832268561,1710832268184,1987727,0
1710832268561,1710832268224,1986851,0
1710832268561,1710832268265,1984872,0
1710832268561,1710832268305,1983895,0
1710832268561,1710832268345,1985767,0
1710832268561,1710832268385,1990020,0
1710832268561,1710832268425,1995257,0
1710832268561,1710832268467,1998060,0
1710832280558,1710832268504,1999746,0
1710832280558,1710832268544,2001240,0
1710832280558,1710832268584,1999559,0
1710832280558,1710832268625,1992381,0
1710832280558,1710832268665,1985928,0
1710832280558,1710832268705,1980733,0
1710832280558,1710832268745,1974497,0
1710832280558,1710832268785,1967896,0
1710832280558,1710832268825,1963703,0
1710832280558,1710832268866,1960971,0
1710832280558,1710832268905,1958927,0
1710832280558,1710832268945,1957157,0
1710832280558,1710832268986,1956874,0
1710832280558,1710832269026,1957085,0
1710832280558,1710832269066,1958519,0
1710832280558,1710832269106,1960797,0
1710832280558,1710832269146,1962391,0
1710832280558,1710832269186,1963838,0
1710832280558,1710832269226,1960456,0
1710832280558,1710832269267,1954314,0
1710832280558,1710832269306,1949660,0
1710832280558,1710832269346,1946966,0
1710832280558,1710832269386,1945046,0
1710832280558,1710832269427,1943062,0
1710832280558,1710832269467,1942192,0
1710832280558,1710832269507,1941734,0
1710832280558,1710832269547,1941992,0
1710832280558,1710832269587,1943537,0
1710832280558,1710832269627,1946625,0
1710832280558,1710832269668,1951229,0
1710832280558,1710832269707,1956228,0
1710832280558,1710832269747,1961218,0
1710832280558,1710832269787,1965488,0
1710832280558,1710832269828,1969271,0
1710832280558,1710832269868,1967944,0
1710832280558,1710832269908,1963648,0
1710832280558,1710832269948,1961758,0
1710832280558,1710832269988,1961609,0
1710832280558,1710832270028,1962090,0
1710832280558,1710832270069,1963164,0
1710832280558,1710832270108,1965205,0
1710832280558,1710832270148,1967325,0
1710832280558,1710832270189,1969695,0
1710832280558,1710832270229,1972862,0
1710832280558,1710832270270,1977572,0
1710832280558,1710832270309,1984259,0
1710832280558,1710832270349,1992311,0
1710832280558,1710832270389,2000346,0
1710832280558,1710832270429,2007606,0
1710832280558,1710832270470,2011740,0
1710832280558,1710832270510,2009429,0
1710832280558,1710832270550,2008052,0
1710832280558,1710832270590,2008259,0
1710832280558,1710832270630,2007892,0
1710832280558,1710832270671,2006106,0
1710832280558,1710832270710,2004067,0
1710832280558,1710832270750,2002733,0
1710832280558,1710832270791,2002514,0
1710832280558,1710832270831,2003198,0
1710832280558,1710832270871,2005186,0
1710832280558,1710832270911,2008057,0
1710832280558,1710832270951,2011638,0
1710832280558,1710832270991,2015296,0
1710832280558,1710832271031,2019388,0
1710832280558,1710832271072,2023413,0
1710832280558,1710832271112,2021661,0
1710832280558,1710832271152,2017911,0
1710832280558,1710832271192,2015790,0
1710832280558,1710832271232,2015311,0
1710832280558,1710832271273,2014601,0
1710832280558,1710832271312,2014345,0
1710832280558,1710832271352,2014776,0
1710832280558,1710832271392,2015048,0
1710832280558,1710832271433,2015176,0
1710832280558,1710832271475,2015588,0
1710832280558,1710832271513,2016635,0
1710832280558,1710832271553,2018177,0
1710832280558,1710832271593,2019724,0
1710832280558,1710832271633,2021246,0
1710832280558,1710832271674,2023082,0
1710832280558,1710832271713,2025200,0
1710832280558,1710832271754,2024235,0
1710832280558,1710832271794,2018410,0
1710832280558,1710832271834,2013778,0
1710832280558,1710832271875,2011151,0
1710832280558,1710832271914,2008996,0
1710832280558,1710832271954,2006859,0
1710832280558,1710832271995,2006011,0
1710832280558,1710832272034,2005469,0
1710832280558,1710832272075,2005128,0
1710832280558,1710832272115,2005219,0
1710832280558,1710832272155,2006169,0
1710832280558,1710832272195,2008266,0
1710832280558,1710832272235,2010987,0
1710832280558,1710832272276,2014667,0
1710832280558,1710832272315,2018087,0
1710832280558,1710832272356,2021260,0
1710832280558,1710832272396,2024658,0
1710832280558,1710832272436,2026362,0
1710832280558,1710832272477,2021925,0
1710832280558,1710832272516,2017541,0
1710832280558,1710832272556,2015110,0
1710832280558,1710832272596,2013538,0
1710832280558,1710832272636,2011955,0
1710832280558,1710832272677,2011632,0
1710832280558,1710832272717,2012298,0
1710832280558,1710832272757,2013884,0
1710832280558,1710832272797,2016359,0
1710832280558,1710832272837,2019713,0
1710832280558,1710832272878,2023730,0
1710832280558,1710832272917,2028830,0
1710832280558,1710832272958,2035185,0
1710832280558,1710832272998,2041987,0
1710832280558,1710832273038,2047784,0
1710832280558,1710832273079,2051751,0
1710832280558,1710832273118,2053847,0
1710832280558,1710832273158,2050036,0
1710832280558,1710832273199,2045393,0
1710832280558,1710832273238,2043567,0
1710832280558,1710832273279,2043590,0
1710832280558,1710832273319,2043550,0
1710832280558,1710832273359,2043769,0
1710832280558,1710832273399,2043945,0
1710832280558,1710832273439,2043776,0
1710832280558,1710832273480,2044462,0
1710832280558,1710832273519,2048124,0
1710832280558,1710832273560,2054055,0
1710832280558,1710832273600,2061497,0
1710832280558,1710832273640,2070083,0
1710832280558,1710832273681,2077934,0
1710832280558,1710832273720,2084740,0
1710832280558,1710832273760,2091157,0
1710832280558,1710832273801,2096753,0
1710832280558,1710832273841,2096454,0
1710832280558,1710832273881,2094293,0
1710832280558,1710832273921,2093307,0
1710832280558,1710832273961,2093232,0
1710832280558,1710832274001,2093666,0
1710832280558,1710832274041,2095190,0
1710832280558,1710832274082,2097686,0
1710832280558,1710832274121,2099510,0
1710832280558,1710832274161,2101134,0
1710832280558,1710832274201,2102798,0
1710832280558,1710832274241,2104511,0
1710832280558,1710832274282,2106238,0
1710832280558,1710832274322,2107446,0
1710832280558,1710832274362,2107786,0
1710832280558,1710832274402,2107605,0
1710832280558,1710832274442,2106637,0
1710832280558,1710832274484,2105928,0
1710832280558,1710832274522,2102644,0
1710832280558,1710832274562,2096533,0
1710832280558,1710832274602,2092877,0
1710832280558,1710832274643,2090979,0
1710832280558,1710832274683,2089814,0
1710832280558,1710832274723,2088793,0
1710832280558,1710832274763,2088471,0
1710832280558,1710832274803,2088315,0
1710832280558,1710832274843,2088123,0
1710832280558,1710832274884,2088555,0
1710832280558,1710832274923,2090183,0
1710832280558,1710832274963,2092554,0
1710832280558,1710832275003,2094877,0
1710832280558,1710832275043,2096919,0
1710832280558,1710832275084,2098603,0
1710832280558,1710832275124,2099931,0
1710832280558,1710832275164,2101237,0
1710832280558,1710832275204,2103084,0
1710832280558,1710832275244,2104718,0
1710832280558,1710832275285,2101661,0
1710832280558,1710832275324,2098468,0
1710832280558,1710832275365,2097244,0
1710832280558,1710832275404,2096787,0
1710832280558,1710832275445,2096513,0
1710832280558,1710832275485,2096728,0
1710832280558,1710832275525,2097380,0
1710832280558,1710832275565,2097917,0
1710832280558,1710832275605,2098613,0
1710832280558,1710832275645,2099575,0
1710832280558,1710832275686,2101330,0
1710832280558,1710832275725,2104390,0
1710832280558,1710832275765,2108392,0
1710832280558,1710832275806,2112411,0
1710832280558,1710832275846,2116066,0
1710832280558,1710832275886,2119940,0
1710832280558,1710832275926,2124001,0
1710832280558,1710832275966,2128321,0
1710832280558,1710832276006,2130262,0
1710832280558,1710832276046,2128438,0
1710832280558,1710832276087,2127618,0
1710832280558,1710832276126,2128102,0
1710832280558,1710832276166,2128557,0
1710832280558,1710832276207,2128804,0
1710832280558,1710832276247,2129645,0
1710832280558,1710832276287,2130083,0
1710832280558,1710832276327,2130218,0
1710832280558,1710832276367,2130586,0
1710832280558,1710832276407,2131482,0
1710832280558,1710832276447,2132694,0
1710832280558,1710832276488,2134180,0
1710832280558,1710832276528,2135491,0
1710832280558,1710832276568,2136878,0
1710832280558,1710832276608,2138370,0
1710832280558,1710832276648,2140056,0
1710832280558,1710832276689,2142064,0
1710832280558,1710832276728,2144121,0
1710832280558,1710832276768,2142939,0
1710832280558,1710832276809,2139148,0
1710832280558,1710832276848,2137306,0
1710832280558,1710832276889,2137046,0
1710832280558,1710832276929,2137266,0
1710832280558,1710832276969,2137800,0
1710832280558,1710832277009,2138939,0
1710832280558,1710832277049,2140019,0
1710832280558,1710832277090,2141366,0
1710832280558,1710832277129,2143129,0
1710832280558,1710832277169,2145321,0
1710832280558,1710832277210,2147836,0
1710832280558,1710832277250,2150253,0
1710832280558,1710832277291,2152362,0
1710832280558,1710832277330,2154209,0
1710832280558,1710832277370,2155855,0
1710832280558,1710832277410,2157561,0
1710832280558,1710832277450,2159335,0
1710832280558,1710832277493,2160918,0
1710832280558,1710832277531,2158728,0
1710832280558,1710832277571,2154687,0
1710832280558,1710832277611,2152861,0
1710832280558,1710832277651,2152747,0
1710832280558,1710832277692,2152812,0
1710832280558,1710832277731,2153201,0
1710832280558,1710832277771,2153681,0
1710832280558,1710832277811,2154000,0
1710832280558,1710832277852,2154526,0
1710832280558,1710832277892,2155380,0
1710832280558,1710832277932,2157195,0
1710832280558,1710832277972,2159156,0
1710832280558,1710832278012,2161015,0
1710832280558,1710832278052,2162852,0
1710832280558,1710832278093,2164819,0
1710832280558,1710832278132,2166779,0
1710832280558,1710832278172,2168932,0
1710832280558,1710832278213,2168973,0
1710832280558,1710832278253,2165086,0
1710832280558,1710832278293,2162813,0
1710832280558,1710832278333,2162144,0
1710832280558,1710832278373,2161574,0
1710832280558,1710832278413,2161268,0
1710832280558,1710832278453,2161282,0
1710832280558,1710832278494,2160916,0
1710832280558,1710832278533,2160226,0
1710832280558,1710832278574,2160099,0
1710832280558,1710832278614,2160453,0
1710832280558,1710832278654,2161131,0
1710832280558,1710832278695,2161568,0
1710832280558,1710832278734,2162158,0
1710832280558,1710832278774,2162638,0
1710832280558,1710832278815,2163318,0
1710832280558,1710832278855,2163397,0
1710832280558,1710832278896,2158479,0
1710832280558,1710832278935,2152793,0
1710832280558,1710832278975,2148762,0
1710832280558,1710832279015,2145197,0
1710832280558,1710832279055,2141302,0
1710832280558,1710832279096,2138004,0
1710832280558,1710832279136,2135740,0
1710832280558,1710832279176,2133662,0
1710832280558,1710832279216,2131519,0
1710832280558,1710832279256,2130090,0
1710832280558,1710832279297,2129099,0
1710832280558,1710832279336,2128558,0
1710832280558,1710832279376,2128213,0
1710832280558,1710832279417,2127947,0
1710832280558,1710832279457,2127437,0
1710832280558,1710832279497,2127302,0
1710832280558,1710832279537,2127566,0
1710832280558,1710832279577,2123351,0
1710832280558,1710832279617,2116314,0
1710832280558,1710832279657,2110601,0
1710832280558,1710832279698,2105802,0
1710832280558,1710832279738,2100808,0
1710832280558,1710832279778,2096242,0
1710832280558,1710832279818,2093388,0
1710832280558,1710832279858,2091352,0
1710832280558,1710832279899,2089817,0
1710832280558,1710832279938,2088393,0
1710832280558,1710832279979,2087668,0
1710832280558,1710832280019,2087594,0
1710832280558,1710832280059,2087662,0
1710832280558,1710832280100,2088101,0
1710832280558,1710832280139,2089069,0
1710832280558,1710832280179,2089877,0
1710832280558,1710832280219,2091049,0
1710832280558,1710832280259,2092099,0
1710832280558,1710832280300,2089092,0
1710832280558,1710832280339,2082810,0
1710832280558,1710832280379,2077816,0
1710832280558,1710832280420,2073756,0
1710832280558,1710832280460,2069407,0
1710832280558,1710832280502,2065667,0
1710832292638,1710832280540,2063785,0
1710832292638,1710832280580,2062380,0
1710832292638,1710832280620,2061377,0
1710832292638,1710832280660,2060661,0
1710832292638,1710832280701,2060269,0
1710832292638,1710832280740,2060368,0
1710832292638,1710832280780,2060815,0
1710832292638,1710832280820,2061444,0
1710832292638,1710832280861,2062214,0
1710832292638,1710832280901,2063346,0
1710832292638,1710832280941,2064734,0
1710832292638,1710832280981,2066646,0
1710832292638,1710832281021,2069200,0
1710832292638,1710832281061,2071969,0
1710832292638,1710832281102,2075206,0
1710832292638,1710832281141,2074150,0
1710832292638,1710832281181,2070647,0
1710832292638,1710832281221,2068322,0
1710832292638,1710832281262,2066106,0
1710832292638,1710832281302,2063208,0
1710832292638,1710832281342,2060052,0
1710832292638,1710832281382,2058541,0
1710832292638,1710832281422,2057342,0
1710832292638,1710832281462,2056397,0
1710832292638,1710832281503,2055652,0
1710832292638,1710832281542,2055606,0
1710832292638,1710832281582,2056136,0
1710832292638,1710832281623,2057067,0
1710832292638,1710832281663,2058320,0
1710832292638,1710832281703,2059868,0
1710832292638,1710832281743,2061642,0
1710832292638,1710832281783,2063662,0
1710832292638,1710832281823,2065849,0
1710832292638,1710832281863,2068564,0
1710832292638,1710832281904,2071453,0
1710832292638,1710832281943,2074025,0
1710832292638,1710832281984,2072369,0
1710832292638,1710832282023,2069994,0
1710832292638,1710832282064,2069485,0
1710832292638,1710832282105,2069307,0
1710832292638,1710832282144,2069099,0
1710832292638,1710832282184,2069877,0
1710832292638,1710832282224,2070989,0
1710832292638,1710832282264,2071849,0
1710832292638,1710832282305,2072783,0
1710832292638,1710832282345,2074115,0
1710832292638,1710832282384,2075734,0
1710832292638,1710832282425,2077562,0
1710832292638,1710832282465,2079528,0
1710832292638,1710832282505,2081585,0
1710832292638,1710832282545,2083758,0
1710832292638,1710832282585,2086310,0
1710832292638,1710832282625,2089106,0
1710832292638,1710832282665,2092018,0
1710832292638,1710832282706,2094645,0
1710832292638,1710832282745,2093388,0
1710832292638,1710832282786,2091352,0
1710832292638,1710832282826,2090260,0
1710832292638,1710832282866,2089463,0
1710832292638,1710832282907,2088217,0
1710832292638,1710832282946,2087506,0
1710832292638,1710832282986,2087554,0
1710832292638,1710832283026,2087333,0
1710832292638,1710832283067,2087127,0
1710832292638,1710832283107,2087510,0
1710832292638,1710832283147,2088256,0
1710832292638,1710832283187,2089292,0
1710832292638,1710832283227,2090438,0
1710832292638,1710832283267,2091643,0
1710832292638,1710832283308,2092766,0
1710832292638,1710832283347,2093772,0
1710832292638,1710832283387,2095047,0
1710832292638,1710832283428,2096313,0
1710832292638,1710832283467,2097573,0
1710832292638,1710832283510,2096546,0
1710832292638,1710832283548,2092310,0
1710832292638,1710832283588,2089060,0
1710832292638,1710832283628,2086486,0
1710832292638,1710832283668,2083884,0
1710832292638,1710832283709,2081391,0
1710832292638,1710832283748,2080004,0
1710832292638,1710832283788,2079046,0
1710832292638,1710832283828,2078509,0
1710832292638,1710832283868,2077863,0
1710832292638,1710832283909,2077741,0
1710832292638,1710832283949,2077932,0
1710832292638,1710832283989,2078311,0
1710832292638,1710832284029,2079044,0
1710832292638,1710832284069,2079894,0
1710832292638,1710832284110,2080728,0
1710832292638,1710832284150,2081973,0
1710832292638,1710832284190,2083423,0
1710832292638,1710832284230,2085306,0
1710832292638,1710832284270,2087147,0
1710832292638,1710832284311,2089241,0
1710832292638,1710832284350,2088663,0
1710832292638,1710832284390,2086531,0
1710832292638,1710832284430,2086100,0
1710832292638,1710832284470,2086906,0
1710832292638,1710832284511,2087728,0
1710832292638,1710832284551,2088757,0
1710832292638,1710832284591,2090495,0
1710832292638,1710832284631,2092465,0
1710832292638,1710832284671,2094158,0
1710832292638,1710832284712,2095927,0
1710832292638,1710832284751,2097475,0
1710832292638,1710832284791,2098852,0
1710832292638,1710832284831,2100115,0
1710832292638,1710832284872,2101621,0
1710832292638,1710832284912,2103256,0
1710832292638,1710832284952,2104807,0
1710832292638,1710832284992,2106401,0
1710832292638,1710832285032,2107919,0
1710832292638,1710832285072,2109274,0
1710832292638,1710832285113,2110679,0
1710832292638,1710832285152,2111720,0
1710832292638,1710832285192,2112732,0
1710832292638,1710832285233,2113543,0
1710832292638,1710832285273,2114370,0
1710832292638,1710832285314,2114398,0
1710832292638,1710832285353,2110393,0
1710832292638,1710832285393,2107036,0
1710832292638,1710832285433,2105073,0
1710832292638,1710832285474,2103512,0
1710832292638,1710832285514,2101668,0
1710832292638,1710832285554,2100561,0
1710832292638,1710832285594,2100249,0
1710832292638,1710832285634,2100228,0
1710832292638,1710832285674,2100483,0
1710832292638,1710832285715,2100928,0
1710832292638,1710832285754,2101872,0
1710832292638,1710832285794,2102983,0
1710832292638,1710832285835,2104236,0
1710832292638,1710832285875,2105071,0
1710832292638,1710832285915,2105843,0
1710832292638,1710832285955,2106459,0
1710832292638,1710832285995,2107118,0
1710832292638,1710832286035,2108360,0
1710832292638,1710832286075,2109875,0
1710832292638,1710832286116,2111704,0
1710832292638,1710832286156,2113940,0
1710832292638,1710832286196,2116473,0
1710832292638,1710832286236,2119165,0
1710832292638,1710832286276,2121888,0
1710832292638,1710832286317,2121881,0
1710832292638,1710832286356,2120685,0
1710832292638,1710832286396,2121430,0
1710832292638,1710832286437,2123279,0
1710832292638,1710832286477,2125494,0
1710832292638,1710832286519,2127816,0
1710832292638,1710832286557,2130495,0
1710832292638,1710832286597,2132974,0
1710832292638,1710832286637,2135312,0
1710832292638,1710832286677,2137800,0
1710832292638,1710832286718,2140415,0
1710832292638,1710832286757,2143209,0
1710832292638,1710832286798,2145996,0
1710832292638,1710832286837,2148658,0
1710832292638,1710832286878,2151140,0
1710832292638,1710832286918,2153654,0
1710832292638,1710832286958,2155999,0
1710832292638,1710832286998,2158444,0
1710832292638,1710832287038,2161102,0
1710832292638,1710832287078,2163582,0
1710832292638,1710832287119,2165950,0
1710832292638,1710832287158,2165899,0
1710832292638,1710832287198,2163652,0
1710832292638,1710832287238,2163010,0
1710832292638,1710832287278,2162985,0
1710832292638,1710832287319,2163163,0
1710832292638,1710832287358,2163049,0
1710832292638,1710832287399,2163366,0
1710832292638,1710832287439,2163516,0
1710832292638,1710832287479,2163683,0
1710832292638,1710832287520,2163724,0
1710832292638,1710832287559,2164104,0
1710832292638,1710832287599,2164662,0
1710832292638,1710832287639,2165378,0
1710832292638,1710832287679,2165970,0
1710832292638,1710832287720,2166501,0
1710832292638,1710832287760,2167164,0
1710832292638,1710832287800,2167525,0
1710832292638,1710832287840,2168263,0
1710832292638,1710832287880,2168957,0
1710832292638,1710832287920,2169576,0
1710832292638,1710832287960,2170404,0
1710832292638,1710832288000,2169353,0
1710832292638,1710832288040,2164690,0
1710832292638,1710832288080,2161016,0
1710832292638,1710832288121,2158449,0
1710832292638,1710832288160,2156057,0
1710832292638,1710832288200,2153042,0
1710832292638,1710832288241,2150723,0
1710832292638,1710832288281,2149045,0
1710832292638,1710832288321,2147531,0
1710832292638,1710832288361,2145874,0
1710832292638,1710832288401,2144360,0
1710832292638,1710832288441,2143392,0
1710832292638,1710832288481,2142741,0
1710832292638,1710832288522,2142177,0
1710832292638,1710832288561,2141669,0
1710832292638,1710832288601,2141147,0
1710832292638,1710832288641,2140792,0
1710832292638,1710832288682,2140372,0
1710832292638,1710832288722,2140154,0
1710832292638,1710832288762,2140033,0
1710832292638,1710832288802,2140131,0
1710832292638,1710832288842,2140309,0
1710832292638,1710832288882,2138957,0
1710832292638,1710832288923,2132895,0
1710832292638,1710832288962,2127122,0
1710832292638,1710832289002,2122598,0
1710832292638,1710832289042,2118250,0
1710832292638,1710832289082,2113238,0
1710832292638,1710832289123,2109477,0
1710832292638,1710832289163,2106741,0
1710832292638,1710832289203,2104230,0
1710832292638,1710832289243,2101934,0
1710832292638,1710832289283,2100200,0
1710832292638,1710832289324,2098708,0
1710832292638,1710832289363,2097907,0
1710832292638,1710832289403,2097255,0
1710832292638,1710832289443,2096995,0
1710832292638,1710832289483,2097025,0
1710832292638,1710832289525,2097175,0
1710832292638,1710832289564,2097889,0
1710832292638,1710832289604,2098798,0
1710832292638,1710832289644,2100155,0
1710832292638,1710832289684,2102013,0
1710832292638,1710832289725,2103854,0
1710832292638,1710832289764,2105428,0
1710832292638,1710832289804,2101904,0
1710832292638,1710832289844,2097799,0
1710832292638,1710832289884,2095226,0
1710832292638,1710832289925,2093343,0
1710832292638,1710832289965,2090928,0
1710832292638,1710832290005,2089400,0
1710832292638,1710832290045,2088897,0
1710832292638,1710832290085,2088308,0
1710832292638,1710832290126,2087955,0
1710832292638,1710832290165,2087981,0
1710832292638,1710832290205,2088489,0
1710832292638,1710832290245,2089220,0
1710832292638,1710832290286,2090239,0
1710832292638,1710832290326,2091480,0
1710832292638,1710832290366,2092591,0
1710832292638,1710832290406,2094017,0
1710832292638,1710832290446,2095423,0
1710832292638,1710832290486,2096978,0
1710832292638,1710832290527,2098881,0
1710832292638,1710832290566,2100963,0
1710832292638,1710832290606,2100078,0
1710832292638,1710832290647,2096098,0
1710832292638,1710832290687,2093889,0
1710832292638,1710832290727,2092594,0
1710832292638,1710832290767,2090799,0
1710832292638,1710832290807,2089508,0
1710832292638,1710832290847,2089284,0
1710832292638,1710832290887,2089101,0
1710832292638,1710832290928,2088664,0
1710832292638,1710832290967,2088489,0
1710832292638,1710832291008,2088444,0
1710832292638,1710832291048,2088508,0
1710832292638,1710832291088,2088303,0
1710832292638,1710832291129,2087955,0
1710832292638,1710832291168,2088013,0
1710832292638,1710832291208,2088039,0
1710832292638,1710832291249,2088346,0
1710832292638,1710832291288,2088669,0
1710832292638,1710832291329,2089237,0
1710832292638,1710832291369,2089844,0
1710832292638,1710832291409,2087796,0
1710832292638,1710832291449,2081946,0
1710832292638,1710832291489,2077371,0
1710832292638,1710832291530,2073173,0
1710832292638,1710832291569,2068752,0
1710832292638,1710832291610,2064366,0
1710832292638,1710832291650,2061471,0
1710832292638,1710832291690,2059520,0
1710832292638,1710832291731,2057641,0
1710832292638,1710832291770,2056175,0
1710832292638,1710832291810,2054903,0
1710832292638,1710832291850,2054124,0
1710832292638,1710832291890,2053828,0
1710832292638,1710832291931,2053531,0
1710832292638,1710832291971,2053711,0
1710832292638,1710832292011,2053875,0
1710832292638,1710832292051,2054323,0
1710832292638,1710832292091,2055038,0
1710832292638,1710832292132,2055930,0
1710832292638,1710832292171,2057051,0
1710832292638,1710832292212,2058112,0
1710832292638,1710832292252,2059227,0
1710832292638,1710832292292,2059270,0
1710832292638,1710832292333,2054835,0
1710832292638,1710832292372,2050545,0
1710832292638,1710832292412,2047148,0
1710832292638,1710832292452,2043603,0
1710832292638,1710832292492,2039760,0
1710832292638,1710832292535,2036948,0
1710832304661,1710832292572,2035666,0
1710832304661,1710832292612,2034656,0
1710832304661,1710832292652,2033794,0
1710832304661,1710832292692,2033410,0
1710832304661,1710832292733,2033170,0
1710832304661,1710832292772,2033281,0
1710832304661,1710832292812,2033731,0
1710832304661,1710832292852,2034522,0
1710832304661,1710832292893,2035332,0
1710832304661,1710832292934,2036415,0
1710832304661,1710832292973,2037546,0
1710832304661,1710832293013,2039035,0
1710832304661,1710832293053,2040777,0
1710832304661,1710832293093,2042498,0
1710832304661,1710832293134,2044349,0
1710832304661,1710832293174,2046244,0
1710832304661,1710832293214,2048068,0
1710832304661,1710832293254,2048483,0
1710832304661,1710832293294,2045185,0
1710832304661,1710832293335,2040490,0
1710832304661,1710832293374,2038379,0
1710832304661,1710832293414,2036020,0
1710832304661,1710832293454,2034661,0
1710832304661,1710832293494,2034314,0
1710832304661,1710832293535,2034157,0
1710832304661,1710832293575,2034404,0
1710832304661,1710832293615,2034474,0
1710832304661,1710832293655,2034872,0
1710832304661,1710832293695,2035658,0
1710832304661,1710832293736,2036637,0
1710832304661,1710832293775,2037853,0
1710832304661,1710832293815,2039125,0
1710832304661,1710832293855,2040329,0
1710832304661,1710832293896,2042030,0
1710832304661,1710832293936,2043535,0
1710832304661,1710832293976,2045564,0
1710832304661,1710832294016,2047642,0
1710832304661,1710832294056,2049565,0
1710832304661,1710832294096,2051476,0
1710832304661,1710832294137,2053644,0
1710832304661,1710832294176,2053147,0
1710832304661,1710832294216,2050503,0
1710832304661,1710832294256,2049066,0
1710832304661,1710832294296,2048489,0
1710832304661,1710832294337,2047741,0
1710832304661,1710832294377,2047150,0
1710832304661,1710832294417,2047425,0
1710832304661,1710832294457,2048611,0
1710832304661,1710832294497,2049727,0
1710832304661,1710832294538,2050931,0
1710832304661,1710832294577,2052188,0
1710832304661,1710832294617,2053907,0
1710832304661,1710832294657,2055469,0
1710832304661,1710832294697,2057461,0
1710832304661,1710832294738,2059337,0
1710832304661,1710832294777,2061327,0
1710832304661,1710832294818,2063222,0
1710832304661,1710832294858,2065422,0
1710832304661,1710832294898,2067877,0
1710832304661,1710832294939,2070309,0
1710832304661,1710832294978,2073031,0
1710832304661,1710832295018,2075658,0
1710832304661,1710832295058,2078197,0
1710832304661,1710832295098,2077559,0
1710832304661,1710832295139,2076006,0
1710832304661,1710832295178,2075815,0
1710832304661,1710832295218,2075943,0
1710832304661,1710832295258,2076311,0
1710832304661,1710832295299,2076843,0
1710832304661,1710832295340,2077924,0
1710832304661,1710832295379,2078980,0
1710832304661,1710832295419,2080002,0
1710832304661,1710832295459,2081022,0
1710832304661,1710832295499,2082293,0
1710832304661,1710832295541,2083786,0
1710832304661,1710832295580,2085410,0
1710832304661,1710832295619,2087316,0
1710832304661,1710832295660,2088876,0
1710832304661,1710832295700,2090622,0
1710832304661,1710832295740,2092327,0
1710832304661,1710832295780,2094209,0
1710832304661,1710832295820,2096423,0
1710832304661,1710832295860,2098488,0
1710832304661,1710832295900,2099837,0
1710832304661,1710832295941,2098333,0
1710832304661,1710832295980,2097552,0
1710832304661,1710832296020,2097819,0
1710832304661,1710832296061,2098251,0
1710832304661,1710832296101,2098411,0
1710832304661,1710832296142,2098767,0
1710832304661,1710832296181,2099117,0
1710832304661,1710832296221,2099464,0
1710832304661,1710832296261,2099745,0
1710832304661,1710832296301,2100026,0
1710832304661,1710832296342,2100520,0
1710832304661,1710832296382,2100891,0
1710832304661,1710832296422,2101304,0
1710832304661,1710832296462,2101519,0
1710832304661,1710832296502,2101472,0
1710832304661,1710832296543,2101479,0
1710832304661,1710832296582,2101659,0
1710832304661,1710832296622,2101926,0
1710832304661,1710832296662,2102268,0
1710832304661,1710832296702,2102687,0
1710832304661,1710832296743,2102277,0
1710832304661,1710832296783,2097917,0
1710832304661,1710832296823,2093520,0
1710832304661,1710832296863,2090271,0
1710832304661,1710832296903,2087054,0
1710832304661,1710832296944,2083263,0
1710832304661,1710832296983,2080084,0
1710832304661,1710832297023,2077673,0
1710832304661,1710832297063,2075639,0
1710832304661,1710832297104,2073631,0
1710832304661,1710832297145,2071773,0
1710832304661,1710832297184,2070245,0
1710832304661,1710832297224,2069166,0
1710832304661,1710832297264,2068355,0
1710832304661,1710832297304,2067723,0
1710832304661,1710832297345,2067010,0
1710832304661,1710832297385,2066508,0
1710832304661,1710832297425,2066254,0
1710832304661,1710832297465,2065753,0
1710832304661,1710832297505,2065322,0
1710832304661,1710832297546,2065235,0
1710832304661,1710832297585,2065782,0
1710832304661,1710832297625,2066227,0
1710832304661,1710832297665,2061697,0
1710832304661,1710832297706,2055997,0
1710832304661,1710832297747,2050987,0
1710832304661,1710832297786,2046362,0
1710832304661,1710832297826,2041516,0
1710832304661,1710832297866,2037404,0
1710832304661,1710832297906,2034784,0
1710832304661,1710832297947,2032692,0
1710832304661,1710832297987,2030706,0
1710832304661,1710832298026,2028726,0
1710832304661,1710832298067,2027249,0
1710832304661,1710832298107,2026151,0
1710832304661,1710832298148,2025464,0
1710832304661,1710832298187,2025196,0
1710832304661,1710832298227,2025258,0
1710832304661,1710832298267,2025600,0
1710832304661,1710832298307,2026092,0
1710832304661,1710832298348,2026899,0
1710832304661,1710832298388,2027852,0
1710832304661,1710832298428,2029366,0
1710832304661,1710832298468,2030750,0
1710832304661,1710832298508,2032165,0
1710832304661,1710832298550,2029043,0
1710832304661,1710832298588,2023673,0
1710832304661,1710832298628,2019818,0
1710832304661,1710832298668,2017173,0
1710832304661,1710832298709,2013988,0
1710832304661,1710832298749,2011573,0
1710832304661,1710832298789,2010622,0
1710832304661,1710832298829,2010185,0
1710832304661,1710832298869,2010057,0
1710832304661,1710832298909,2010179,0
1710832304661,1710832298950,2010776,0
1710832304661,1710832298989,2011963,0
1710832304661,1710832299030,2013551,0
1710832304661,1710832299070,2015347,0
1710832304661,1710832299110,2017302,0
1710832304661,1710832299151,2019272,0
1710832304661,1710832299190,2021463,0
1710832304661,1710832299230,2024021,0
1710832304661,1710832299270,2026793,0
1710832304661,1710832299311,2029733,0
1710832304661,1710832299351,2031277,0
1710832304661,1710832299391,2027792,0
1710832304661,1710832299431,2024432,0
1710832304661,1710832299471,2022764,0
1710832304661,1710832299511,2021484,0
1710832304661,1710832299552,2020253,0
1710832304661,1710832299592,2019792,0
1710832304661,1710832299632,2019910,0
1710832304661,1710832299672,2019878,0
1710832304661,1710832299712,2019949,0
1710832304661,1710832299753,2020493,0
1710832304661,1710832299792,2021398,0
1710832304661,1710832299832,2022463,0
1710832304661,1710832299872,2023995,0
1710832304661,1710832299912,2025564,0
1710832304661,1710832299953,2027013,0
1710832304661,1710832299992,2028518,0
1710832304661,1710832300033,2030484,0
1710832304661,1710832300073,2032341,0
1710832304661,1710832300113,2034297,0
1710832304661,1710832300154,2034435,0
1710832304661,1710832300193,2029855,0
1710832304661,1710832300233,2025311,0
1710832304661,1710832300273,2022019,0
1710832304661,1710832300313,2018972,0
1710832304661,1710832300354,2015839,0
1710832304661,1710832300394,2013924,0
1710832304661,1710832300434,2013110,0
1710832304661,1710832300474,2012519,0
1710832304661,1710832300514,2012220,0
1710832304661,1710832300555,2012081,0
1710832304661,1710832300594,2012159,0
1710832304661,1710832300634,2012658,0
1710832304661,1710832300674,2013327,0
1710832304661,1710832300714,2014277,0
1710832304661,1710832300755,2015305,0
1710832304661,1710832300794,2016491,0
1710832304661,1710832300834,2017578,0
1710832304661,1710832300875,2019087,0
1710832304661,1710832300915,2020561,0
1710832304661,1710832300956,2022201,0
1710832304661,1710832300995,2023908,0
1710832304661,1710832301035,2022513,0
1710832304661,1710832301075,2018501,0
1710832304661,1710832301115,2015496,0
1710832304661,1710832301156,2013528,0
1710832304661,1710832301195,2011090,0
1710832304661,1710832301236,2008855,0
1710832304661,1710832301276,2007989,0
1710832304661,1710832301316,2007854,0
1710832304661,1710832301357,2007967,0
1710832304661,1710832301396,2008280,0
1710832304661,1710832301436,2008644,0
1710832304661,1710832301476,2009218,0
1710832304661,1710832301516,2010183,0
1710832304661,1710832301558,2011424,0
1710832304661,1710832301597,2012665,0
1710832304661,1710832301636,2013964,0
1710832304661,1710832301677,2015348,0
1710832304661,1710832301717,2016997,0
1710832304661,1710832301758,2019015,0
1710832304661,1710832301797,2021558,0
1710832304661,1710832301837,2024612,0
1710832304661,1710832301877,2027512,0
1710832304661,1710832301917,2030108,0
1710832304661,1710832301958,2029323,0
1710832304661,1710832301997,2026925,0
1710832304661,1710832302037,2025471,0
1710832304661,1710832302078,2024163,0
1710832304661,1710832302118,2022452,0
1710832304661,1710832302159,2020752,0
1710832304661,1710832302198,2019939,0
1710832304661,1710832302238,2019328,0
1710832304661,1710832302278,2018718,0
1710832304661,1710832302318,2018255,0
1710832304661,1710832302359,2018181,0
1710832304661,1710832302399,2018426,0
1710832304661,1710832302439,2019071,0
1710832304661,1710832302479,2019823,0
1710832304661,1710832302519,2020588,0
1710832304661,1710832302560,2021404,0
1710832304661,1710832302599,2022594,0
1710832304661,1710832302639,2024104,0
1710832304661,1710832302679,2025637,0
1710832304661,1710832302719,2027346,0
1710832304661,1710832302760,2029456,0
1710832304661,1710832302800,2031660,0
1710832304661,1710832302840,2033821,0
1710832304661,1710832302880,2033390,0
1710832304661,1710832302920,2031345,0
1710832304661,1710832302961,2030899,0
1710832304661,1710832303000,2031206,0
1710832304661,1710832303040,2031603,0
1710832304661,1710832303080,2031766,0
1710832304661,1710832303120,2032751,0
1710832304661,1710832303161,2033882,0
1710832304661,1710832303201,2035595,0
1710832304661,1710832303241,2037313,0
1710832304661,1710832303281,2039026,0
1710832304661,1710832303321,2040918,0
1710832304661,1710832303362,2043137,0
1710832304661,1710832303401,2045489,0
1710832304661,1710832303441,2048156,0
1710832304661,1710832303481,2050948,0
1710832304661,1710832303522,2053356,0
1710832304661,1710832303562,2055921,0
1710832304661,1710832303602,2058919,0
1710832304661,1710832303642,2062090,0
1710832304661,1710832303682,2064720,0
1710832304661,1710832303722,2066837,0
1710832304661,1710832303763,2066166,0
1710832304661,1710832303802,2064580,0
1710832304661,1710832303842,2064435,0
1710832304661,1710832303883,2065108,0
1710832304661,1710832303923,2066178,0
1710832304661,1710832303964,2067576,0
1710832304661,1710832304003,2069436,0
1710832304661,1710832304043,2071101,0
1710832304661,1710832304083,2072906,0
1710832304661,1710832304123,2074807,0
1710832304661,1710832304164,2076796,0
1710832304661,1710832304204,2078844,0
1710832304661,1710832304244,2081368,0
1710832304661,1710832304284,2083938,0
1710832304661,1710832304324,2086399,0
1710832304661,1710832304365,2089163,0
1710832304661,1710832304404,2092016,0
1710832304661,1710832304444,2095063,0
1710832304661,1710832304485,2098032,0
1710832304661,1710832304525,2100726,0
1710832304661,1710832304567,2101183,0
1710832316691,1710832304605,2099870,0
1710832316691,1710832304645,2099499,0
1710832316691,1710832304685,2099601,0
1710832316691,1710832304726,2099793,0
1710832316691,1710832304766,2099775,0
1710832316691,1710832304806,2100064,0
1710832316691,1710832304846,2100415,0
1710832316691,1710832304886,2100659,0
1710832316691,1710832304926,2100588,0
1710832316691,1710832304967,2100432,0
1710832316691,1710832305006,2100323,0
1710832316691,1710832305046,2100487,0
1710832316691,1710832305087,2100356,0
1710832316691,1710832305127,2100125,0
1710832316691,1710832305168,2099521,0
1710832316691,1710832305207,2099466,0
1710832316691,1710832305247,2099528,0
1710832316691,1710832305287,2100225,0
1710832316691,1710832305328,2100907,0
1710832316691,1710832305368,2101150,0
1710832316691,1710832305408,2098665,0
1710832316691,1710832305448,2095491,0
1710832316691,1710832305488,2093655,0
1710832316691,1710832305528,2092089,0
1710832316691,1710832305569,2089929,0
1710832316691,1710832305608,2087485,0
1710832316691,1710832305649,2086304,0
1710832316691,1710832305689,2085764,0
1710832316691,1710832305729,2085557,0
1710832316691,1710832305770,2085041,0
1710832316691,1710832305809,2084452,0
1710832316691,1710832305849,2083920,0
1710832316691,1710832305890,2083650,0
1710832316691,1710832305930,2083710,0
1710832316691,1710832305970,2084110,0
1710832316691,1710832306010,2084249,0
1710832316691,1710832306050,2084579,0
1710832316691,1710832306090,2085166,0
1710832316691,1710832306130,2089139,0
1710832316691,1710832306171,2092727,0
1710832316691,1710832306210,2097043,0
1710832316691,1710832306250,2099737,0
1710832316691,1710832306291,2100371,0
1710832316691,1710832306331,2101971,0
1710832316691,1710832306371,2103911,0
1710832316691,1710832306411,2105201,0
1710832316691,1710832306451,2105412,0
1710832316691,1710832306491,2106216,0
1710832316691,1710832306531,2107850,0
1710832316691,1710832306572,2109277,0
1710832316691,1710832306611,2110325,0
1710832316691,1710832306651,2111459,0
1710832316691,1710832306691,2112663,0
1710832316691,1710832306731,2114239,0
1710832316691,1710832306772,2116590,0
1710832316691,1710832306812,2119047,0
1710832316691,1710832306852,2121316,0
1710832316691,1710832306892,2123470,0
1710832316691,1710832306932,2126143,0
1710832316691,1710832306973,2128938,0
1710832316691,1710832307012,2131220,0
1710832316691,1710832307052,2130538,0
1710832316691,1710832307092,2128619,0
1710832316691,1710832307132,2127275,0
1710832316691,1710832307173,2126372,0
1710832316691,1710832307212,2125417,0
1710832316691,1710832307253,2124551,0
1710832316691,1710832307293,2124375,0
1710832316691,1710832307333,2123849,0
1710832316691,1710832307374,2123176,0
1710832316691,1710832307413,2122572,0
1710832316691,1710832307453,2121902,0
1710832316691,1710832307493,2121170,0
1710832316691,1710832307533,2120622,0
1710832316691,1710832307575,2119834,0
1710832316691,1710832307614,2119143,0
1710832316691,1710832307653,2118566,0
1710832316691,1710832307694,2118031,0
1710832316691,1710832307734,2117739,0
1710832316691,1710832307775,2117782,0
1710832316691,1710832307814,2118105,0
1710832316691,1710832307854,2117586,0
1710832316691,1710832307894,2114341,0
1710832316691,1710832307934,2112181,0
1710832316691,1710832307975,2111098,0
1710832316691,1710832308015,2110089,0
1710832316691,1710832308055,2108454,0
1710832316691,1710832308095,2107426,0
1710832316691,1710832308135,2106953,0
1710832316691,1710832308176,2106317,0
1710832316691,1710832308215,2104507,0
1710832316691,1710832308255,2102516,0
1710832316691,1710832308295,2100740,0
1710832316691,1710832308336,2098962,0
1710832316691,1710832308376,2097444,0
1710832316691,1710832308416,2095817,0
1710832316691,1710832308456,2093996,0
1710832316691,1710832308496,2092682,0
1710832316691,1710832308536,2091723,0
1710832316691,1710832308577,2091413,0
1710832316691,1710832308616,2091533,0
1710832316691,1710832308656,2091796,0
1710832316691,1710832308697,2091000,0
1710832316691,1710832308737,2087704,0
1710832316691,1710832308778,2085482,0
1710832316691,1710832308817,2083977,0
1710832316691,1710832308857,2082094,0
1710832316691,1710832308897,2079726,0
1710832316691,1710832308938,2078140,0
1710832316691,1710832308978,2076640,0
1710832316691,1710832309018,2075368,0
1710832316691,1710832309058,2074504,0
1710832316691,1710832309098,2074116,0
1710832316691,1710832309138,2074368,0
1710832316691,1710832309179,2075190,0
1710832316691,1710832309218,2076127,0
1710832316691,1710832309258,2077026,0
1710832316691,1710832309298,2077857,0
1710832316691,1710832309339,2078788,0
1710832316691,1710832309379,2079940,0
1710832316691,1710832309419,2081192,0
1710832316691,1710832309459,2081608,0
1710832316691,1710832309499,2078780,0
1710832316691,1710832309539,2075760,0
1710832316691,1710832309580,2073943,0
1710832316691,1710832309619,2072543,0
1710832316691,1710832309660,2071219,0
1710832316691,1710832309700,2070438,0
1710832316691,1710832309740,2070321,0
1710832316691,1710832309781,2070259,0
1710832316691,1710832309820,2070101,0
1710832316691,1710832309860,2070052,0
1710832316691,1710832309900,2069827,0
1710832316691,1710832309940,2069895,0
1710832316691,1710832309981,2070114,0
1710832316691,1710832310021,2070356,0
1710832316691,1710832310061,2070611,0
1710832316691,1710832310101,2071026,0
1710832316691,1710832310141,2071760,0
1710832316691,1710832310182,2072726,0
1710832316691,1710832310221,2073206,0
1710832316691,1710832310262,2070564,0
1710832316691,1710832310302,2068141,0
1710832316691,1710832310342,2067152,0
1710832316691,1710832310383,2066600,0
1710832316691,1710832310422,2066419,0
1710832316691,1710832310462,2066812,0
1710832316691,1710832310503,2067668,0
1710832316691,1710832310543,2068334,0
1710832316691,1710832310585,2069063,0
1710832316691,1710832310623,2069665,0
1710832316691,1710832310663,2070467,0
1710832316691,1710832310703,2071254,0
1710832316691,1710832310743,2072252,0
1710832316691,1710832310784,2073307,0
1710832316691,1710832310824,2074345,0
1710832316691,1710832310864,2075537,0
1710832316691,1710832310904,2076921,0
1710832316691,1710832310944,2078505,0
1710832316691,1710832310985,2080397,0
1710832316691,1710832311024,2081787,0
1710832316691,1710832311064,2080444,0
1710832316691,1710832311105,2078716,0
1710832316691,1710832311145,2078253,0
1710832316691,1710832311186,2078596,0
1710832316691,1710832311225,2078749,0
1710832316691,1710832311265,2079585,0
1710832316691,1710832311305,2080727,0
1710832316691,1710832311345,2082087,0
1710832316691,1710832311386,2083330,0
1710832316691,1710832311426,2084746,0
1710832316691,1710832311466,2085941,0
1710832316691,1710832311506,2087275,0
1710832316691,1710832311546,2088804,0
1710832316691,1710832311587,2090416,0
1710832316691,1710832311626,2091971,0
1710832316691,1710832311667,2093851,0
1710832316691,1710832311707,2095682,0
1710832316691,1710832311747,2097843,0
1710832316691,1710832311788,2099551,0
1710832316691,1710832311827,2102148,0
1710832316691,1710832311868,2103340,0
1710832316691,1710832311908,2103203,0
1710832316691,1710832311948,2105222,0
1710832316691,1710832311989,2109949,0
1710832316691,1710832312028,2115412,0
1710832316691,1710832312068,2122130,0
1710832316691,1710832312108,2127705,0
1710832316691,1710832312149,2132141,0
1710832316691,1710832312189,2137492,0
1710832316691,1710832312229,2143752,0
1710832316691,1710832312269,2151082,0
1710832316691,1710832312309,2158289,0
1710832316691,1710832312349,2163919,0
1710832316691,1710832312390,2167452,0
1710832316691,1710832312429,2169705,0
1710832316691,1710832312469,2171826,0
1710832316691,1710832312509,2174424,0
1710832316691,1710832312549,2177067,0
1710832316691,1710832312590,2179431,0
1710832316691,1710832312630,2179516,0
1710832316691,1710832312670,2178226,0
1710832316691,1710832312710,2178011,0
1710832316691,1710832312750,2178052,0
1710832316691,1710832312791,2177042,0
1710832316691,1710832312830,2175241,0
1710832316691,1710832312870,2173962,0
1710832316691,1710832312910,2173244,0
1710832316691,1710832312950,2172256,0
1710832316691,1710832312991,2171122,0
1710832316691,1710832313031,2169877,0
1710832316691,1710832313071,2168618,0
1710832316691,1710832313111,2168166,0
1710832316691,1710832313151,2167542,0
1710832316691,1710832313192,2167120,0
1710832316691,1710832313231,2167004,0
1710832316691,1710832313271,2167623,0
1710832316691,1710832313311,2168150,0
1710832316691,1710832313352,2167943,0
1710832316691,1710832313392,2167215,0
1710832316691,1710832313432,2166225,0
1710832316691,1710832313472,2163280,0
1710832316691,1710832313512,2159841,0
1710832316691,1710832313552,2157692,0
1710832316691,1710832313594,2156278,0
1710832316691,1710832313632,2155435,0
1710832316691,1710832313672,2155035,0
1710832316691,1710832313712,2155777,0
1710832316691,1710832313753,2157011,0
1710832316691,1710832313793,2158715,0
1710832316691,1710832313833,2160933,0
1710832316691,1710832313873,2163849,0
1710832316691,1710832313913,2166584,0
1710832316691,1710832313953,2169037,0
1710832316691,1710832313994,2171267,0
1710832316691,1710832314033,2172792,0
1710832316691,1710832314073,2173032,0
1710832316691,1710832314113,2172954,0
1710832316691,1710832314153,2172936,0
1710832316691,1710832314194,2173491,0
1710832316691,1710832314234,2175030,0
1710832316691,1710832314274,2177111,0
1710832316691,1710832314314,2176484,0
1710832316691,1710832314354,2173858,0
1710832316691,1710832314395,2171827,0
1710832316691,1710832314434,2169924,0
1710832316691,1710832314474,2166951,0
1710832316691,1710832314514,2163173,0
1710832316691,1710832314555,2160245,0
1710832316691,1710832314596,2157948,0
1710832316691,1710832314635,2156382,0
1710832316691,1710832314675,2154441,0
1710832316691,1710832314715,2152067,0
1710832316691,1710832314755,2150094,0
1710832316691,1710832314796,2148071,0
1710832316691,1710832314836,2146220,0
1710832316691,1710832314875,2144146,0
1710832316691,1710832314916,2142351,0
1710832316691,1710832314956,2140791,0
1710832316691,1710832314997,2139687,0
1710832316691,1710832315036,2138770,0
1710832316691,1710832315076,2138149,0
1710832316691,1710832315116,2137702,0
1710832316691,1710832315156,2134179,0
1710832316691,1710832315197,2127643,0
1710832316691,1710832315237,2121850,0
1710832316691,1710832315277,2117388,0
1710832316691,1710832315317,2113101,0
1710832316691,1710832315357,2108474,0
1710832316691,1710832315398,2104420,0
1710832316691,1710832315437,2100724,0
1710832316691,1710832315477,2097198,0
1710832316691,1710832315517,2093921,0
1710832316691,1710832315558,2091276,0
1710832316691,1710832315598,2089086,0
1710832316691,1710832315638,2087263,0
1710832316691,1710832315678,2085523,0
1710832316691,1710832315718,2083959,0
1710832316691,1710832315758,2083077,0
1710832316691,1710832315799,2082549,0
1710832316691,1710832315839,2083026,0
1710832316691,1710832315879,2083149,0
1710832316691,1710832315919,2080993,0
1710832316691,1710832315959,2077724,0
1710832316691,1710832316000,2073748,0
1710832316691,1710832316039,2066921,0
1710832316691,1710832316079,2060821,0
1710832316691,1710832316120,2057270,0
1710832316691,1710832316160,2053479,0
1710832316691,1710832316201,2047048,0
1710832316691,1710832316240,2039177,0
1710832316691,1710832316280,2032459,0
1710832316691,1710832316320,2028847,0
1710832316691,1710832316360,2027951,0
1710832316691,1710832316401,2028034,0
1710832316691,1710832316441,2027576,0
1710832316691,1710832316481,2026280,0
1710832316691,1710832316521,2024839,0
1710832316691,1710832316561,2023559,0
1710832316691,1710832316603,2022761,0
1710832328742,1710832316642,2022875,0
1710832328742,1710832316682,2023816,0
1710832328742,1710832316722,2024972,0
1710832328742,1710832316763,2025572,0
1710832328742,1710832316803,2025040,0
1710832328742,1710832316843,2019544,0
1710832328742,1710832316883,2009304,0
1710832328742,1710832316923,2000733,0
1710832328742,1710832316963,1995066,0
1710832328742,1710832317004,1990742,0
1710832328742,1710832317043,1986689,0
1710832328742,1710832317084,1983545,0
1710832328742,1710832317124,1980259,0
1710832328742,1710832317164,1977439,0
1710832328742,1710832317205,1976273,0
1710832328742,1710832317244,1976552,0
1710832328742,1710832317284,1978028,0
1710832328742,1710832317324,1979713,0
1710832328742,1710832317365,1981241,0
1710832328742,1710832317406,1982387,0
1710832328742,1710832317445,1983906,0
1710832328742,1710832317485,1985900,0
1710832328742,1710832317525,1988775,0
1710832328742,1710832317565,1993053,0
1710832328742,1710832317606,1998401,0
1710832328742,1710832317646,2001535,0
1710832328742,1710832317686,2000480,0
1710832328742,1710832317726,1999800,0
1710832328742,1710832317766,2000045,0
1710832328742,1710832317807,1999519,0
1710832328742,1710832317846,1998349,0
1710832328742,1710832317887,1997064,0
1710832328742,1710832317927,1995383,0
1710832328742,1710832317967,1993478,0
1710832328742,1710832318008,1992249,0
1710832328742,1710832318047,1991911,0
1710832328742,1710832318087,1992675,0
1710832328742,1710832318128,1994072,0
1710832328742,1710832318168,1995695,0
1710832328742,1710832318209,1997311,0
1710832328742,1710832318248,2001713,0
1710832328742,1710832318288,2007079,0
1710832328742,1710832318328,2013413,0
1710832328742,1710832318368,2018345,0
1710832328742,1710832318409,2017937,0
1710832328742,1710832318448,2016354,0
1710832328742,1710832318488,2016512,0
1710832328742,1710832318529,2018028,0
1710832328742,1710832318569,2019205,0
1710832328742,1710832318609,2020324,0
1710832328742,1710832318649,2021368,0
1710832328742,1710832318689,2021781,0
1710832328742,1710832318729,2021798,0
1710832328742,1710832318769,2021775,0
1710832328742,1710832318810,2022408,0
1710832328742,1710832318849,2022997,0
1710832328742,1710832318889,2024052,0
1710832328742,1710832318930,2025063,0
1710832328742,1710832318970,2026374,0
1710832328742,1710832319010,2027880,0
1710832328742,1710832319050,2029689,0
1710832328742,1710832319090,2029573,0
1710832328742,1710832319130,2025636,0
1710832328742,1710832319170,2021947,0
1710832328742,1710832319211,2019858,0
1710832328742,1710832319250,2018481,0
1710832328742,1710832319291,2017217,0
1710832328742,1710832319331,2016277,0
1710832328742,1710832319371,2015609,0
1710832328742,1710832319412,2015005,0
1710832328742,1710832319451,2014993,0
1710832328742,1710832319491,2015563,0
1710832328742,1710832319531,2016968,0
1710832328742,1710832319571,2018689,0
1710832328742,1710832319613,2020251,0
1710832328742,1710832319652,2021517,0
1710832328742,1710832319692,2022467,0
1710832328742,1710832319732,2023641,0
1710832328742,1710832319772,2025060,0
1710832328742,1710832319813,2026719,0
1710832328742,1710832319852,2024502,0
1710832328742,1710832319892,2020989,0
1710832328742,1710832319932,2018301,0
1710832328742,1710832319972,2016687,0
1710832328742,1710832320013,2015184,0
1710832328742,1710832320052,2014991,0
1710832328742,1710832320093,2016278,0
1710832328742,1710832320133,2017698,0
1710832328742,1710832320173,2019317,0
1710832328742,1710832320214,2021127,0
1710832328742,1710832320253,2023113,0
1710832328742,1710832320293,2025149,0
1710832328742,1710832320333,2026586,0
1710832328742,1710832320374,2027777,0
1710832328742,1710832320414,2028786,0
1710832328742,1710832320454,2029999,0
1710832328742,1710832320494,2031369,0
1710832328742,1710832320534,2032657,0
1710832328742,1710832320574,2030754,0
1710832328742,1710832320615,2027361,0
1710832328742,1710832320654,2024446,0
1710832328742,1710832320694,2022035,0
1710832328742,1710832320734,2019477,0
1710832328742,1710832320774,2017640,0
1710832328742,1710832320815,2017136,0
1710832328742,1710832320855,2016996,0
1710832328742,1710832320895,2017262,0
1710832328742,1710832320935,2017846,0
1710832328742,1710832320975,2018568,0
1710832328742,1710832321016,2019703,0
1710832328742,1710832321055,2020794,0
1710832328742,1710832321095,2021942,0
1710832328742,1710832321135,2023374,0
1710832328742,1710832321175,2025377,0
1710832328742,1710832321216,2028084,0
1710832328742,1710832321256,2030832,0
1710832328742,1710832321296,2033581,0
1710832328742,1710832321336,2033622,0
1710832328742,1710832321376,2032826,0
1710832328742,1710832321417,2033086,0
1710832328742,1710832321456,2033551,0
1710832328742,1710832321496,2033998,0
1710832328742,1710832321536,2034975,0
1710832328742,1710832321577,2036650,0
1710832328742,1710832321617,2038487,0
1710832328742,1710832321657,2040299,0
1710832328742,1710832321697,2042290,0
1710832328742,1710832321737,2044068,0
1710832328742,1710832321777,2045752,0
1710832328742,1710832321818,2047494,0
1710832328742,1710832321857,2049389,0
1710832328742,1710832321897,2051304,0
1710832328742,1710832321938,2053273,0
1710832328742,1710832321978,2055561,0
1710832328742,1710832322018,2057517,0
1710832328742,1710832322058,2057253,0
1710832328742,1710832322098,2055773,0
1710832328742,1710832322138,2054828,0
1710832328742,1710832322178,2054043,0
1710832328742,1710832322219,2053157,0
1710832328742,1710832322258,2052949,0
1710832328742,1710832322299,2053485,0
1710832328742,1710832322339,2054331,0
1710832328742,1710832322379,2055136,0
1710832328742,1710832322420,2056133,0
1710832328742,1710832322459,2057060,0
1710832328742,1710832322499,2057893,0
1710832328742,1710832322539,2058605,0
1710832328742,1710832322579,2059542,0
1710832328742,1710832322621,2060293,0
1710832328742,1710832322660,2061329,0
1710832328742,1710832322700,2062360,0
1710832328742,1710832322740,2063607,0
1710832328742,1710832322780,2064136,0
1710832328742,1710832322821,2061934,0
1710832328742,1710832322860,2059655,0
1710832328742,1710832322900,2057932,0
1710832328742,1710832322940,2055922,0
1710832328742,1710832322980,2053871,0
1710832328742,1710832323021,2052762,0
1710832328742,1710832323061,2052706,0
1710832328742,1710832323101,2052990,0
1710832328742,1710832323141,2053499,0
1710832328742,1710832323181,2054028,0
1710832328742,1710832323222,2054909,0
1710832328742,1710832323262,2055818,0
1710832328742,1710832323302,2056954,0
1710832328742,1710832323342,2058195,0
1710832328742,1710832323382,2059536,0
1710832328742,1710832323423,2060824,0
1710832328742,1710832323462,2062281,0
1710832328742,1710832323502,2063900,0
1710832328742,1710832323542,2065714,0
1710832328742,1710832323582,2067022,0
1710832328742,1710832323623,2065817,0
1710832328742,1710832323663,2064241,0
1710832328742,1710832323703,2063058,0
1710832328742,1710832323746,2062017,0
1710832328742,1710832323783,2060713,0
1710832328742,1710832323824,2060070,0
1710832328742,1710832323864,2060754,0
1710832328742,1710832323904,2061597,0
1710832328742,1710832323944,2062616,0
1710832328742,1710832323984,2064070,0
1710832328742,1710832324025,2065482,0
1710832328742,1710832324064,2067186,0
1710832328742,1710832324104,2068658,0
1710832328742,1710832324145,2070164,0
1710832328742,1710832324185,2071560,0
1710832328742,1710832324226,2072900,0
1710832328742,1710832324265,2074404,0
1710832328742,1710832324305,2076056,0
1710832328742,1710832324345,2077835,0
1710832328742,1710832324386,2079799,0
1710832328742,1710832324426,2081607,0
1710832328742,1710832324466,2083574,0
1710832328742,1710832324506,2085883,0
1710832328742,1710832324546,2088200,0
1710832328742,1710832324586,2089159,0
1710832328742,1710832324627,2088311,0
1710832328742,1710832324666,2088215,0
1710832328742,1710832324706,2088295,0
1710832328742,1710832324746,2087821,0
1710832328742,1710832324786,2087356,0
1710832328742,1710832324827,2087658,0
1710832328742,1710832324867,2088189,0
1710832328742,1710832324907,2088629,0
1710832328742,1710832324947,2089143,0
1710832328742,1710832324987,2089501,0
1710832328742,1710832325028,2090088,0
1710832328742,1710832325067,2090610,0
1710832328742,1710832325107,2091248,0
1710832328742,1710832325147,2091845,0
1710832328742,1710832325188,2092663,0
1710832328742,1710832325228,2093639,0
1710832328742,1710832325268,2094917,0
1710832328742,1710832325308,2096215,0
1710832328742,1710832325348,2097607,0
1710832328742,1710832325388,2099027,0
1710832328742,1710832325429,2100500,0
1710832328742,1710832325468,2101854,0
1710832328742,1710832325508,2103501,0
1710832328742,1710832325548,2104997,0
1710832328742,1710832325588,2106229,0
1710832328742,1710832325630,2105121,0
1710832328742,1710832325669,2103659,0
1710832328742,1710832325709,2102933,0
1710832328742,1710832325749,2102485,0
1710832328742,1710832325789,2101810,0
1710832328742,1710832325829,2101232,0
1710832328742,1710832325869,2101038,0
1710832328742,1710832325909,2100745,0
1710832328742,1710832325952,2100639,0
1710832328742,1710832325989,2100593,0
1710832328742,1710832326030,2100933,0
1710832328742,1710832326069,2101431,0
1710832328742,1710832326109,2102121,0
1710832328742,1710832326150,2102905,0
1710832328742,1710832326190,2103784,0
1710832328742,1710832326231,2104767,0
1710832328742,1710832326270,2105847,0
1710832328742,1710832326310,2107286,0
1710832328742,1710832326350,2108662,0
1710832328742,1710832326390,2110263,0
1710832328742,1710832326431,2111652,0
1710832328742,1710832326470,2112934,0
1710832328742,1710832326511,2112227,0
1710832328742,1710832326551,2109965,0
1710832328742,1710832326591,2108371,0
1710832328742,1710832326632,2107234,0
1710832328742,1710832326671,2106008,0
1710832328742,1710832326711,2105078,0
1710832328742,1710832326751,2104534,0
1710832328742,1710832326791,2104143,0
1710832328742,1710832326832,2103966,0
1710832328742,1710832326872,2103619,0
1710832328742,1710832326911,2103513,0
1710832328742,1710832326952,2103686,0
1710832328742,1710832326992,2103712,0
1710832328742,1710832327032,2104157,0
1710832328742,1710832327072,2104388,0
1710832328742,1710832327112,2104623,0
1710832328742,1710832327152,2104512,0
1710832328742,1710832327192,2104504,0
1710832328742,1710832327233,2104650,0
1710832328742,1710832327272,2104885,0
1710832328742,1710832327313,2104928,0
1710832328742,1710832327353,2105024,0
1710832328742,1710832327393,2102873,0
1710832328742,1710832327434,2099013,0
1710832328742,1710832327473,2095834,0
1710832328742,1710832327513,2093158,0
1710832328742,1710832327553,2090377,0
1710832328742,1710832327593,2087662,0
1710832328742,1710832327634,2085494,0
1710832328742,1710832327674,2083892,0
1710832328742,1710832327714,2082390,0
1710832328742,1710832327754,2081109,0
1710832328742,1710832327794,2079918,0
1710832328742,1710832327835,2078827,0
1710832328742,1710832327874,2077939,0
1710832328742,1710832327914,2077254,0
1710832328742,1710832327955,2076811,0
1710832328742,1710832327995,2076334,0
1710832328742,1710832328035,2076161,0
1710832328742,1710832328075,2076165,0
1710832328742,1710832328115,2076408,0
1710832328742,1710832328158,2076804,0
1710832328742,1710832328195,2077395,0
1710832328742,1710832328236,2077844,0
1710832328742,1710832328275,2078331,0
1710832328742,1710832328316,2077375,0
1710832328742,1710832328355,2073839,0
1710832328742,1710832328396,2070865,0
1710832328742,1710832328437,2068811,0
1710832328742,1710832328476,2066684,0
1710832328742,1710832328516,2064358,0
1710832328742,1710832328556,2062484,0
1710832328742,1710832328596,2061104,0
1710832328742,1710832328639,2059909,0
1710832340721,1710832328675,2059094,0
1710832340721,1710832328715,2058052,0
1710832340721,1710832328755,2057506,0
1710832340721,1710832328795,2057079,0
1710832340721,1710832328836,2056816,0
1710832340721,1710832328875,2056607,0
1710832340721,1710832328915,2056304,0
1710832340721,1710832328955,2056312,0
1710832340721,1710832328995,2056461,0
1710832340721,1710832329036,2056804,0
1710832340721,1710832329076,2057246,0
1710832340721,1710832329116,2057753,0
1710832340721,1710832329156,2058480,0
1710832340721,1710832329196,2059251,0
1710832340721,1710832329237,2059963,0
1710832340721,1710832329276,2057751,0
1710832340721,1710832329316,2053996,0
1710832340721,1710832329357,2051370,0
1710832340721,1710832329397,2049572,0
1710832340721,1710832329438,2047740,0
1710832340721,1710832329477,2046076,0
1710832340721,1710832329517,2045124,0
1710832340721,1710832329557,2044555,0
1710832340721,1710832329597,2044339,0
1710832340721,1710832329638,2044198,0
1710832340721,1710832329678,2044331,0
1710832340721,1710832329718,2044730,0
1710832340721,1710832329758,2045434,0
1710832340721,1710832329798,2046472,0
1710832340721,1710832329839,2047680,0
1710832340721,1710832329878,2048790,0
1710832340721,1710832329918,2050298,0
1710832340721,1710832329959,2052137,0
1710832340721,1710832329999,2054149,0
1710832340721,1710832330040,2056544,0
1710832340721,1710832330079,2058752,0
1710832340721,1710832330119,2061097,0
1710832340721,1710832330159,2061819,0
1710832340721,1710832330199,2059899,0
1710832340721,1710832330240,2058136,0
1710832340721,1710832330280,2057736,0
1710832340721,1710832330320,2057963,0
1710832340721,1710832330360,2057984,0
1710832340721,1710832330400,2058342,0
1710832340721,1710832330441,2058561,0
1710832340721,1710832330481,2058879,0
1710832340721,1710832330521,2058978,0
1710832340721,1710832330561,2059471,0
1710832340721,1710832330601,2060032,0
1710832340721,1710832330642,2060982,0
1710832340721,1710832330681,2061843,0
1710832340721,1710832330722,2062527,0
1710832340721,1710832330762,2063702,0
1710832340721,1710832330802,2064800,0
1710832340721,1710832330843,2066367,0
1710832340721,1710832330882,2067679,0
1710832340721,1710832330922,2068969,0
1710832340721,1710832330962,2065097,0
1710832340721,1710832331002,2062345,0
1710832340721,1710832331043,2060720,0
1710832340721,1710832331083,2059187,0
1710832340721,1710832331123,2057708,0
1710832340721,1710832331163,2056539,0
1710832340721,1710832331203,2055609,0
1710832340721,1710832331243,2054798,0
1710832340721,1710832331283,2053991,0
1710832340721,1710832331323,2053720,0
1710832340721,1710832331363,2053603,0
1710832340721,1710832331403,2053853,0
1710832340721,1710832331444,2054480,0
1710832340721,1710832331483,2055255,0
1710832340721,1710832331523,2055945,0
1710832340721,1710832331564,2056887,0
1710832340721,1710832331604,2057854,0
1710832340721,1710832331646,2059078,0
1710832340721,1710832331684,2059182,0
1710832340721,1710832331724,2055881,0
1710832340721,1710832331764,2052178,0
1710832340721,1710832331804,2049493,0
1710832340721,1710832331845,2047235,0
1710832340721,1710832331884,2044370,0
1710832340721,1710832331925,2041976,0
1710832340721,1710832331965,2040504,0
1710832340721,1710832332005,2039406,0
1710832340721,1710832332046,2038386,0
1710832340721,1710832332085,2037533,0
1710832340721,1710832332125,2036670,0
1710832340721,1710832332165,2036133,0
1710832340721,1710832332205,2035691,0
1710832340721,1710832332246,2035369,0
1710832340721,1710832332285,2035348,0
1710832340721,1710832332325,2035217,0
1710832340721,1710832332366,2035410,0
1710832340721,1710832332406,2035843,0
1710832340721,1710832332446,2036421,0
1710832340721,1710832332486,2036945,0
1710832340721,1710832332526,2035265,0
1710832340721,1710832332566,2031278,0
1710832340721,1710832332606,2027891,0
1710832340721,1710832332647,2025513,0
1710832340721,1710832332686,2022948,0
1710832340721,1710832332726,2020317,0
1710832340721,1710832332767,2018641,0
1710832340721,1710832332807,2018009,0
1710832340721,1710832332847,2017431,0
1710832340721,1710832332887,2017048,0
1710832340721,1710832332927,2016921,0
1710832340721,1710832332967,2016871,0
1710832340721,1710832333007,2017276,0
1710832340721,1710832333048,2017610,0
1710832340721,1710832333087,2017884,0
1710832340721,1710832333128,2018587,0
1710832340721,1710832333168,2019516,0
1710832340721,1710832333208,2020608,0
1710832340721,1710832333249,2022076,0
1710832340721,1710832333288,2023469,0
1710832340721,1710832333328,2024814,0
1710832340721,1710832333368,2026100,0
1710832340721,1710832333408,2024942,0
1710832340721,1710832333449,2022422,0
1710832340721,1710832333489,2020903,0
1710832340721,1710832333529,2020099,0
1710832340721,1710832333569,2019015,0
1710832340721,1710832333609,2017921,0
1710832340721,1710832333649,2017856,0
1710832340721,1710832333689,2018146,0
1710832340721,1710832333729,2018666,0
1710832340721,1710832333769,2019194,0
1710832340721,1710832333809,2019660,0
1710832340721,1710832333850,2020616,0
1710832340721,1710832333889,2021522,0
1710832340721,1710832333930,2022700,0
1710832340721,1710832333970,2023965,0
1710832340721,1710832334010,2025472,0
1710832340721,1710832334050,2026957,0
1710832340721,1710832334090,2029016,0
1710832340721,1710832334130,2031405,0
1710832340721,1710832334170,2034162,0
1710832340721,1710832334210,2037363,0
1710832340721,1710832334251,2040818,0
1710832340721,1710832334290,2043701,0
1710832340721,1710832334331,2043930,0
1710832340721,1710832334371,2044387,0
1710832340721,1710832334411,2045240,0
1710832340721,1710832334452,2046048,0
1710832340721,1710832334491,2046774,0
1710832340721,1710832334531,2048310,0
1710832340721,1710832334571,2050312,0
1710832340721,1710832334611,2052346,0
1710832340721,1710832334654,2054386,0
1710832340721,1710832334692,2056146,0
1710832340721,1710832334732,2058145,0
1710832340721,1710832334772,2060245,0
1710832340721,1710832334812,2062381,0
1710832340721,1710832334853,2064706,0
1710832340721,1710832334892,2066895,0
1710832340721,1710832334932,2069330,0
