Timestamp,Cleaned PPG
1710832208331,0.0
1710832208371,0.0
1710832208414,0.0
1710832208451,0.0
1710832208492,0.0
1710832208531,0.0
1710832208572,0.0
1710832208612,0.0
1710832208652,0.0
1710832208693,0.0
1710832208732,0.0
1710832208772,0.0
1710832208813,0.0
1710832208853,0.0
1710832208894,0.0
1710832208933,0.0
1710832208973,0.0
1710832209013,0.0
1710832209054,0.0
1710832209095,0.0
1710832209134,0.0
1710832209174,0.0
1710832209214,0.0
1710832209254,0.0
1710832209295,0.0
1710832209335,0.0
1710832209375,0.0
1710832209415,0.0
1710832209455,0.0
1710832209496,0.0
1710832209535,0.0
1710832209575,0.0
1710832209616,1174384.2998973504
1710832209656,1174384.2998973504
1710832209697,1174384.2998973504
1710832209736,1174384.2998973504
1710832209776,1174384.2998973504
1710832209816,1174384.2998973504
1710832209856,1174384.2998973504
1710832209897,1174384.2998973504
1710832209936,1174384.2998973504
1710832209976,1174384.2998973504
1710832210017,1174384.2998973504
1710832210057,1102565.7881760313
1710832210098,1036120.0795876319
1710832210137,973392.852311112
1710832210177,915033.5578739964
1710832210217,859233.1717702891
1710832210257,806240.5105570001
1710832210300,753672.937666032
1710832210337,703616.3203053991
1710832210378,660343.8560160615
1710832210418,619338.464902071
1710832210458,581305.4336387024
1710832210499,545250.1023154801
1710832210538,512985.51170801674
1710832210578,478835.5014516276
1710832210621,446120.8425890126
1710832210658,419487.13487975695
1710832210700,399300.0190503835
1710832210739,377012.987627462
1710832210779,355648.4458739259
1710832210819,334517.4974858861
1710832210859,314327.824680384
1710832210900,292544.1652104093
1710832210939,270106.13612322835
1710832210979,250928.34596540686
1710832211019,232727.84856502665
1710832211059,216437.60773394117
1710832211101,202095.68620641064
1710832211140,189971.6543673291
1710832211180,179038.27951360587
1710832211220,169300.79503088212
1710832211260,158948.21143761463
1710832211302,150408.45786840376
1710832211340,142312.95693508768
1710832211380,135024.95816119201
1710832211420,126777.05187335983
1710832211461,119894.47292127041
1710832211502,114060.53160218941
1710832211541,106665.31855973834
1710832211581,95408.12046552263
1710832211621,87609.9874632163
1710832211661,80188.29966867343
1710832211702,73905.86028548237
1710832211741,67754.03684930038
1710832211781,63881.255192842335
1710832211822,59952.994337523356
1710832211862,57700.16564239981
1710832211903,54439.39197204448
1710832211942,51809.30386053445
1710832211982,49103.981117543764
1710832212022,47425.917138233315
1710832212062,45781.06153786415
1710832212103,43805.8832964804
1710832212142,42388.971333082765
1710832212183,41892.30328012677
1710832212223,41258.79619246861
1710832212263,39585.206379240844
1710832212305,33152.00037148595
1710832212343,28333.169091708027
1710832212383,25343.32594782673
1710832212423,21809.754342973232
1710832212463,19522.317836935632
1710832212504,18571.7507734932
1710832212544,18481.373934710864
1710832212584,18481.373934710864
1710832212624,18481.373934710864
1710832212664,18082.3691273015
1710832212705,17937.83378917072
1710832212744,17890.472559617832
1710832212784,17824.104230910074
1710832212827,17701.97243817663
1710832212865,17683.3481988227
1710832212906,17526.537311369088
1710832212945,17137.797538467683
1710832212985,16810.337901939172
1710832213025,16771.686855669133
1710832213065,14633.407216011547
1710832213106,11262.31620782381
1710832213145,10220.485116666183
1710832213185,10220.485116666183
1710832213226,10220.485116666183
1710832213266,10220.485116666183
1710832213308,10220.485116666183
1710832213346,10220.485116666183
1710832213386,10220.485116666183
1710832213426,10220.485116666183
1710832213467,10220.485116666183
1710832213508,10220.485116666183
1710832213547,10220.485116666183
1710832213587,10220.485116666183
1710832213627,10220.485116666183
1710832213667,10220.485116666183
1710832213708,10220.485116666183
1710832213748,10220.485116666183
1710832213788,10220.485116666183
1710832213828,10220.485116666183
1710832213868,10220.485116666183
1710832213909,10220.485116666183
1710832213948,10296.259512520395
1710832213988,10438.880313714966
1710832214028,10438.880313714966
1710832214068,10438.880313714966
1710832214110,10438.880313714966
1710832214149,10438.880313714966
1710832214189,10438.880313714966
1710832214229,10438.880313714966
1710832214269,10438.880313714966
1710832214312,10438.880313714966
1710832214350,10438.880313714966
1710832214390,11872.610958057456
1710832214430,11872.610958057456
1710832214470,11872.610958057456
1710832214511,11872.610958057456
1710832214550,11872.610958057456
1710832214590,11872.610958057456
1710832214630,11872.610958057456
1710832214671,11872.610958057456
1710832214712,11872.610958057456
1710832214751,11872.610958057456
1710832214791,11872.610958057456
1710832214831,12533.39602691494
1710832214871,13224.953397516161
1710832214912,13224.953397516161
1710832214952,13091.698357916903
1710832214992,13091.698357916903
1710832215032,13091.698357916903
1710832215072,13091.698357916903
1710832215113,13091.698357916903
1710832215152,13091.698357916903
1710832215193,13091.698357916903
1710832215233,13091.698357916903
1710832215273,13091.698357916903
1710832215315,13091.698357916903
1710832215353,13091.698357916903
1710832215393,13091.698357916903
1710832215434,13091.698357916903
1710832215474,13091.698357916903
1710832215515,13091.698357916903
1710832215554,13091.698357916903
1710832215594,13091.698357916903
1710832215634,13091.698357916903
1710832215674,11456.689047149383
1710832215715,11456.689047149383
1710832215755,11456.689047149383
1710832215795,11456.689047149383
1710832215835,11456.689047149383
1710832215875,11456.689047149383
1710832215916,11456.689047149383
1710832215955,11456.689047149383
1710832215995,11456.689047149383
1710832216035,9944.387814700138
1710832216075,9275.517049576156
1710832216116,7832.23363277223
1710832216156,6848.822027418762
1710832216196,4488.936586655676
1710832216236,4199.241707406472
1710832216276,4199.241707406472
1710832216318,4199.241707406472
1710832216356,4199.241707406472
1710832216396,4199.241707406472
1710832216436,4199.241707406472
1710832216476,1244.839055028744
1710832216517,-2278.171387796756
1710832216556,-2322.518631744664
1710832216597,-2322.518631744664
1710832216637,-2322.518631744664
1710832216677,-2322.518631744664
1710832216718,-2334.444433464203
1710832216757,-3294.0591680100188
1710832216797,-3465.6500862482935
1710832216837,-3545.2670292202383
1710832216877,-4023.994857288897
1710832216918,-4552.982015513349
1710832216958,-5216.82521175174
1710832216998,-5216.82521175174
1710832217038,-5216.82521175174
1710832217078,-5216.82521175174
1710832217119,-5466.507404168136
1710832217158,-8460.349429403432
1710832217198,-8460.349429403432
1710832217238,-8460.349429403432
1710832217278,-8460.349429403432
1710832217322,-8460.349429403432
1710832217359,-8460.349429403432
1710832217399,-8460.349429403432
1710832217439,-8460.349429403432
1710832217479,-8460.349429403432
1710832217520,-8460.349429403432
1710832217559,-8460.349429403432
1710832217599,-8015.644825990312
1710832217639,-3224.0675365114585
1710832217679,-266.07686691265553
1710832217721,-266.07686691265553
1710832217760,-242.82268464611843
1710832217800,-230.63433063915
1710832217840,262.26630199560896
1710832217880,262.26630199560896
1710832217921,262.26630199560896
1710832217960,262.26630199560896
1710832218000,262.26630199560896
1710832218040,262.26630199560896
1710832218081,262.26630199560896
1710832218122,-230.63433063915
1710832218161,-242.82268464611843
1710832218201,-266.07686691265553
1710832218241,-2319.833215031773
1710832218281,-5897.70374453254
1710832218324,-6068.429864149541
1710832218361,-6734.599203343969
1710832218402,-19449.82462999411
1710832218442,-28896.710840892047
1710832218482,-30385.72295229882
1710832218523,-30658.059822842944
1710832218562,-38082.99758357834
1710832218602,-43054.71650529932
1710832218642,-43121.35842399858
1710832218683,-46406.11446643667
1710832218723,-48427.607987929136
1710832218763,-49568.833737628534
1710832218803,-50120.35872978903
1710832218843,-50651.041065907106
1710832218883,-50793.534616823774
1710832218924,-52380.35218049912
1710832218963,-53001.80656696111
1710832219003,-55192.61155120935
1710832219044,-55671.28783564363
1710832219084,-56296.6123368633
1710832219125,-63953.155399614014
1710832219164,-65104.44486910431
1710832219204,-65104.44486910431
1710832219244,-65104.44486910431
1710832219284,-65104.44486910431
1710832219327,-65104.44486910431
1710832219365,-65104.44486910431
1710832219405,-65104.44486910431
1710832219445,-65104.44486910431
1710832219485,-68024.21141983103
1710832219526,-68987.52330522705
1710832219565,-70317.03767254809
1710832219605,-71930.42064840905
1710832219646,-73578.62687513512
1710832219686,-73578.62687513512
1710832219727,-73578.62687513512
1710832219766,-73578.62687513512
1710832219806,-73578.62687513512
1710832219846,-73733.31266969489
1710832219886,-73733.31266969489
1710832219927,-70521.09440182569
1710832219966,-68024.21141983103
1710832220007,-68024.21141983103
1710832220047,-68024.21141983103
1710832220087,-68024.21141983103
1710832220128,-68024.21141983103
1710832220167,-68024.21141983103
1710832220207,-68024.21141983103
1710832220247,-68024.21141983103
1710832220287,-68024.21141983103
1710832220331,-65724.10632267734
1710832220368,-61769.30922267749
1710832220408,-61663.32705403422
1710832220448,-59887.98017243482
1710832220488,-58802.913834198844
1710832220529,-57267.639972852776
1710832220568,-55779.39203423774
1710832220609,-55201.00094353035
1710832220649,-52217.1150438129
1710832220689,-51949.163213821594
1710832220730,-50901.681152052246
1710832220769,-48639.60156360315
1710832220809,-48611.00012866594
1710832220850,-47657.0863953128
1710832220890,-47315.128970114514
1710832220931,-45894.61151502817
1710832220970,-43371.744383114856
1710832221010,-37964.58364873286
1710832221050,-36991.81362042087
1710832221091,-36991.81362042087
1710832221131,-36991.81362042087
1710832221171,-36991.81362042087
1710832221211,-36991.81362042087
1710832221251,-36991.81362042087
1710832221291,-36762.78104260983
1710832221332,-33763.62113778107
1710832221371,-32195.824870157056
1710832221412,-31540.456389936153
1710832221452,-28975.33258392848
1710832221492,-27699.916403580923
1710832221533,-26982.092224643333
1710832221572,-26982.092224643333
1710832221612,-26982.092224643333
1710832221652,-26982.092224643333
1710832221693,-26982.092224643333
1710832221734,-26982.092224643333
1710832221773,-26982.092224643333
1710832221813,-25202.231849902775
1710832221853,-23049.055794304935
1710832221893,-21114.521750144428
1710832221934,-21101.317908142693
1710832221973,-19713.966829762794
1710832222013,-19629.865534791257
1710832222053,-18728.189325417392
1710832222093,-17728.891763692256
1710832222134,-16443.710946223233
1710832222174,-15061.984409994446
1710832222214,-14205.794632456498
1710832222254,-13805.015194414416
1710832222294,-11828.147749336902
1710832222335,-10580.162932389416
1710832222374,-9285.581038199598
1710832222414,-8024.702428296208
1710832222454,-8024.702428296208
1710832222494,-4042.126092219958
1710832222536,-933.3830772989895
1710832222574,3153.5132905258797
1710832222615,6019.496853860328
1710832222655,6019.496853860328
1710832222695,6329.905612508766
1710832222736,7283.273918166524
1710832222775,7686.713659583591
1710832222815,7931.16134714894
1710832222855,9588.605100343004
1710832222896,11143.346748921555
1710832222936,12859.866464857478
1710832222976,14260.70153905917
1710832223016,15848.722085749265
1710832223056,16076.57198864338
1710832223096,18453.17152869841
1710832223137,19666.65534447087
1710832223176,20101.22614953667
1710832223216,20101.22614953667
1710832223256,22344.873076251708
1710832223296,25361.780911931535
1710832223339,29048.292565635405
1710832223377,33976.84206200298
1710832223417,40348.552037295885
1710832223457,46468.332941211294
1710832223497,52977.11736284476
1710832223538,54738.15195642505
1710832223577,58939.34676029906
1710832223617,63311.22347682668
1710832223657,65493.58224463742
1710832223697,66388.93108785618
1710832223738,68752.0152172274
1710832223777,68752.0152172274
1710832223818,68752.0152172274
1710832223858,68752.0152172274
1710832223898,68752.0152172274
1710832223939,68752.0152172274
1710832223978,68752.0152172274
1710832224018,68752.0152172274
1710832224058,68752.0152172274
1710832224098,68752.0152172274
1710832224139,68752.0152172274
1710832224178,67028.62920225505
1710832224219,61633.14286223473
1710832224258,59144.381303868024
1710832224299,57346.6262759394
1710832224339,55666.770343278535
1710832224379,53803.58475982398
1710832224419,52974.11044917349
1710832224459,52801.90891218558
1710832224499,52681.84569399338
1710832224540,52223.15022526868
1710832224579,51536.00005968986
1710832224619,51372.93854092155
1710832224659,51319.9529796252
1710832224700,51279.484538505785
1710832224740,51220.5084201647
1710832224780,51213.02813087404
1710832224820,50962.67711826647
1710832224860,50538.81621259451
1710832224900,44964.44451100053
1710832224941,42734.213162685744
1710832224980,40608.00739549473
1710832225020,38510.662812376395
1710832225060,37283.94276863756
1710832225100,37063.60673848912
1710832225141,37063.60673848912
1710832225181,36832.417326785624
1710832225221,36615.0722295912
1710832225261,36534.678863718174
1710832225301,36492.23731939681
1710832225342,36441.013675938826
1710832225381,36372.9961388316
1710832225421,36308.0973560079
1710832225461,36097.89328840468
1710832225501,36084.531340158544
1710832225542,35951.6115713492
1710832225582,35909.31400606036
1710832225622,31706.72356896056
1710832225662,31706.72356896056
1710832225702,31706.72356896056
1710832225743,31706.72356896056
1710832225782,31706.72356896056
1710832225822,31706.72356896056
1710832225862,31312.584778510965
1710832225903,31180.314104823396
1710832225943,31088.658554814756
1710832225983,30463.155181175098
1710832226023,30407.087987277657
1710832226063,30211.48907953454
1710832226103,30211.48907953454
1710832226144,30211.48907953454
1710832226183,30211.48907953454
1710832226223,30211.48907953454
1710832226264,30211.48907953454
1710832226304,27251.636806312017
1710832226346,27251.636806312017
1710832226384,27251.636806312017
1710832226424,27067.23889295943
1710832226464,27067.23889295943
1710832226504,27067.23889295943
1710832226545,26007.99508971721
1710832226584,25717.653250228148
1710832226625,25671.798713086173
1710832226665,24869.070879477076
1710832226705,24722.71288489364
1710832226746,24715.094415305648
1710832226785,23992.74036674993
1710832226825,23783.538435154594
1710832226865,23411.136464302428
1710832226905,23029.379413702525
1710832226946,23276.31660792604
1710832226985,23276.31660792604
1710832227025,23276.31660792604
1710832227066,23276.31660792604
1710832227106,23276.31660792604
1710832227147,23276.31660792604
1710832227186,23276.31660792604
1710832227226,23276.31660792604
1710832227266,22870.123183204792
1710832227306,21074.335327427834
1710832227347,19256.072728267405
1710832227387,19088.934021100402
1710832227427,19088.934021100402
1710832227467,19088.934021100402
1710832227507,19088.934021100402
1710832227548,19088.934021100402
1710832227587,19088.934021100402
1710832227627,19088.934021100402
1710832227668,19088.934021100402
1710832227708,17380.651460291818
1710832227748,16958.514409884345
1710832227788,16574.182793045416
1710832227828,16574.182793045416
1710832227868,16574.182793045416
1710832227908,16574.182793045416
1710832227949,16395.805495006964
1710832227989,16098.17933708895
1710832228029,16020.454592023976
1710832228069,15865.346178776585
1710832228109,15606.450584490784
1710832228150,15569.25456943363
1710832228189,15335.340282758232
1710832228229,14915.488314994145
1710832228270,14871.852058600634
1710832228310,14871.852058600634
1710832228350,14871.852058600634
1710832228390,6583.993667880073
1710832228430,773.1184702995233
1710832228470,-2218.6965846284293
1710832228510,-2218.6965846284293
1710832228551,-2243.575387851335
1710832228591,-3773.545879208483
1710832228631,-5768.374145139474
1710832228671,-7405.698676875327
1710832228711,-7572.115101647563
1710832228752,-8958.856139667332
1710832228791,-9251.940385871567
1710832228831,-9410.6299376823
1710832228871,-10920.666446081828
1710832228912,-11344.68598186737
1710832228952,-11344.68598186737
1710832228992,-11344.68598186737
1710832229032,-11344.68598186737
1710832229072,-10920.666446081828
1710832229112,-8958.856139667332
1710832229153,-8564.155395755544
1710832229192,-7984.774000480305
1710832229232,-8564.155395755544
1710832229272,-8958.856139667332
1710832229312,-10271.412015184294
1710832229354,-11344.68598186737
1710832229393,-11626.991953145713
1710832229433,-12216.21702847397
1710832229473,-12273.294040421024
1710832229513,-12273.294040421024
1710832229554,-12273.294040421024
1710832229593,-12273.294040421024
1710832229633,-12532.099310656078
1710832229673,-13587.87690531183
1710832229713,-13587.87690531183
1710832229754,-13779.052166589536
1710832229793,-14431.54496720992
1710832229833,-15451.031656320672
1710832229874,-16004.455188778229
1710832229914,-16157.185895516537
1710832229954,-16157.185895516537
1710832229994,-16157.185895516537
1710832230034,-16157.185895516537
1710832230074,-16157.185895516537
1710832230114,-16157.185895516537
1710832230155,-16004.455188778229
1710832230194,-15451.031656320672
1710832230234,-14464.392531456891
1710832230274,-13779.052166589536
1710832230314,-13587.87690531183
1710832230355,-13179.942204753403
1710832230395,-1563.0736122531816
1710832230435,5313.547235908918
1710832230475,8599.263027661946
1710832230515,9530.588781683706
1710832230556,10814.290045751259
1710832230595,14983.28383748047
1710832230635,15073.839768774807
1710832230675,15073.839768774807
1710832230716,15073.839768774807
1710832230756,15073.839768774807
1710832230796,15073.839768774807
1710832230836,15073.839768774807
1710832230876,15073.839768774807
1710832230916,14983.28383748047
1710832230957,14983.28383748047
1710832230996,14983.28383748047
1710832231036,15448.677835885435
1710832231077,15484.069856443442
1710832231117,15966.357509744354
1710832231157,15966.357509744354
1710832231197,15966.357509744354
1710832231237,15966.357509744354
1710832231277,15484.069856443442
1710832231317,15448.677835885435
1710832231358,14983.28383748047
1710832231397,14396.557272106409
1710832231437,14002.07914722152
1710832231477,13871.225578893907
1710832231518,13847.198808554094
1710832231558,13060.729779985733
1710832231598,13060.729779985733
1710832231638,13060.729779985733
1710832231678,13060.729779985733
1710832231718,5842.852912445087
1710832231759,5354.158628006931
1710832231798,4289.815436406992
1710832231838,3638.47494174866
1710832231878,3170.565214700997
1710832231919,3170.565214700997
1710832231959,3170.565214700997
1710832231999,3170.565214700997
1710832232039,3170.565214700997
1710832232079,3170.565214700997
1710832232119,3170.565214700997
1710832232160,3602.7100553689525
1710832232199,3638.47494174866
1710832232240,4289.815436406992
1710832232280,4353.717354515567
1710832232320,4353.717354515567
1710832232362,4353.717354515567
1710832232402,4353.717354515567
1710832232442,4289.815436406992
1710832232482,3826.932045403868
1710832232522,3638.47494174866
1710832232563,3602.7100553689525
1710832232603,3826.932045403868
1710832232643,3993.360510982573
1710832232683,4353.717354515567
1710832232723,4776.7614954560995
1710832232764,4867.571125838906
1710832232803,5722.479570510797
1710832232843,5774.072427168954
1710832232884,5722.479570510797
1710832232924,4867.571125838906
1710832232964,4651.648621156812
1710832233004,3993.360510982573
1710832233044,3826.932045403868
1710832233084,3340.523792606313
1710832233124,3103.6814025780186
1710832233165,2840.4755082251504
1710832233204,2583.948885609396
1710832233245,2550.70110614039
1710832233284,2840.4755082251504
1710832233325,3103.6814025780186
1710832233366,3496.7259419979528
1710832233405,3993.360510982573
1710832233445,4264.434279264882
1710832233485,4264.434279264882
1710832233525,4264.434279264882
1710832233566,3496.7259419979528
1710832233605,2991.7760157971643
1710832233645,2481.9280352555215
1710832233686,2269.9958211383782
1710832233726,2269.9958211383782
1710832233767,2481.9280352555215
1710832233806,2772.874545655679
1710832233846,2842.567307434976
1710832233886,2991.7760157971643
1710832233926,3155.4312894684263
1710832233967,3496.7259419979528
1710832234007,3842.1678752051666
1710832234047,4165.363952999469
1710832234087,4264.434279264882
1710832234127,4314.073472757358
1710832234168,4314.073472757358
1710832234208,4165.363952999469
1710832234247,3842.1678752051666
1710832234288,3155.4312894684263
1710832234328,3155.4312894684263
1710832234369,3155.4312894684263
1710832234408,3842.1678752051666
1710832234448,3942.8252175371163
1710832234488,4165.363952999469
1710832234528,4314.073472757358
1710832234569,4883.2825686773285
1710832234609,5108.942829856649
1710832234649,5232.345143815037
1710832234689,6054.700441224035
1710832234729,6611.297903954983
1710832234770,6648.7300345553085
1710832234809,6848.284812193364
1710832234849,7011.634512459859
1710832234889,7011.634512459859
1710832234930,7014.659597245511
1710832234970,7656.330467959866
1710832235010,8138.37016056478
1710832235050,8657.821336410008
1710832235090,8802.39521689713
1710832235130,9578.139593394008
1710832235171,9974.160529597662
1710832235211,10408.297320400365
1710832235251,11179.45381659735
1710832235291,11862.570771130268
1710832235331,11862.570771130268
1710832235373,11179.45381659735
1710832235411,9974.160529597662
1710832235451,9578.139593394008
1710832235491,8802.39521689713
1710832235532,8138.37016056478
1710832235572,7656.330467959866
1710832235612,7381.625113977585
1710832235652,7381.625113977585
1710832235692,7381.625113977585
1710832235732,7381.625113977585
1710832235773,7381.625113977585
1710832235812,7381.625113977585
1710832235852,7381.625113977585
1710832235892,7381.625113977585
1710832235932,7039.794380712323
1710832235973,5558.888060680591
1710832236013,4830.024543948006
1710832236053,4815.922619752586
1710832236093,4014.2578617362306
1710832236133,3732.174225062132
1710832236174,3488.513224949129
1710832236213,3244.858983568847
1710832236253,2531.9537564534694
1710832236293,2258.7384295500815
1710832236333,1921.5227523320355
1710832236374,1372.9715333189815
1710832236413,1372.9715333189815
1710832236454,1372.9715333189815
1710832236494,1372.9715333189815
1710832236534,1372.9715333189815
1710832236575,1372.9715333189815
1710832236614,337.78408331237733
1710832236654,-446.03164258692414
1710832236694,-1199.765782814473
1710832236734,-1964.8973579863086
1710832236775,-2102.6273545995355
1710832236814,-2102.6273545995355
1710832236855,-2102.6273545995355
1710832236895,-2102.6273545995355
1710832236935,-2102.6273545995355
1710832236976,-1964.8973579863086
1710832237015,-1199.765782814473
1710832237055,-1005.6139631476253
1710832237095,-446.03164258692414
1710832237135,-285.58216257113963
1710832237176,-285.58216257113963
1710832237215,-285.58216257113963
1710832237255,-285.58216257113963
1710832237295,-285.58216257113963
1710832237336,-1005.6139631476253
1710832237376,-2102.6273545995355
1710832237416,-2193.3284922284074
1710832237456,-3236.7321896189824
1710832237496,-3236.7321896189824
1710832237536,-2932.3042685892433
1710832237577,-2932.3042685892433
1710832237616,-2193.3284922284074
1710832237656,-2036.7271562442183
1710832237697,-1069.9119699480943
1710832237737,-1005.6139631476253
1710832237777,-285.58216257113963
1710832237817,-58.35148069029674
1710832237857,643.6847546249628
1710832237897,849.1258046850562
1710832237937,849.1258046850562
1710832237978,849.1258046850562
1710832238017,849.1258046850562
1710832238057,849.1258046850562
1710832238097,849.1258046850562
1710832238138,2116.357176447287
1710832238178,3943.5213706274517
1710832238218,4445.25627033785
1710832238258,5197.830955663696
1710832238298,5361.606464184355
1710832238338,5721.287743566558
1710832238380,7355.918339972384
1710832238418,7395.009511640295
1710832238458,9256.616495084018
1710832238498,9268.040381795727
1710832238539,10120.420005772263
1710832238579,10484.589362741448
1710832238619,10853.795431681443
1710832238659,11687.596347892657
1710832238699,12611.631634235382
1710832238739,12611.631634235382
1710832238780,12611.631634235382
1710832238819,12611.631634235382
1710832238859,12611.631634235382
1710832238900,12611.631634235382
1710832238940,12611.631634235382
1710832238980,12611.631634235382
1710832239020,12611.631634235382
1710832239060,12611.631634235382
1710832239100,12611.631634235382
1710832239140,10380.011735379696
1710832239181,10380.011735379696
1710832239220,10380.011735379696
1710832239260,10380.011735379696
1710832239300,10380.011735379696
1710832239341,10380.011735379696
1710832239382,10299.073583653197
1710832239421,10289.905599900521
1710832239461,10254.785703564063
1710832239501,10092.16673917789
1710832239541,9977.652211484965
1710832239582,9977.652211484965
1710832239622,9977.652211484965
1710832239662,9977.652211484965
1710832239702,9726.424282041378
1710832239742,9726.424282041378
1710832239783,9977.652211484965
1710832239822,10289.905599900521
1710832239862,10299.073583653197
1710832239902,10380.011735379696
1710832239942,10415.323114219122
1710832239983,10415.323114219122
1710832240023,10306.721558817197
1710832240063,9393.28051500395
1710832240103,9361.077432333026
1710832240143,9070.34700135747
1710832240184,8751.31917191809
1710832240223,8225.592883695848
1710832240263,8225.592883695848
1710832240304,8225.592883695848
1710832240344,8360.006132894661
1710832240385,8751.31917191809
1710832240424,9361.077432333026
1710832240464,9393.28051500395
1710832240504,9484.659196135588
1710832240544,9836.801147019956
1710832240585,9836.801147019956
1710832240625,9484.659196135588
1710832240665,8360.006132894661
1710832240705,8127.504766188096
1710832240745,7725.858268197626
1710832240786,7402.017331638373
1710832240825,7080.543192666955
1710832240865,7080.543192666955
1710832240905,7080.543192666955
1710832240946,7080.543192666955
1710832240987,7080.543192666955
1710832241026,7080.543192666955
1710832241066,1828.5471188970841
1710832241106,1828.5471188970841
1710832241146,1828.5471188970841
1710832241187,1828.5471188970841
1710832241227,1828.5471188970841
1710832241267,751.0157210468315
1710832241307,633.1629250245169
1710832241347,-891.3376484485343
1710832241389,-1124.5839399090037
1710832241427,-2272.1041822992265
1710832241467,-2768.467649064027
1710832241508,-3261.5135728078894
1710832241548,-3572.4888946549036
1710832241589,-3636.824207568541
1710832241628,-3636.824207568541
1710832241668,-3636.824207568541
1710832241708,-5950.429537094198
1710832241748,-5950.429537094198
1710832241789,-5950.429537094198
1710832241829,-5950.429537094198
1710832241869,-5950.429537094198
1710832241909,-5950.429537094198
1710832241949,-6323.723583025858
1710832241990,-8665.64429486543
1710832242030,-8667.006035941653
1710832242070,-11810.610369834118
1710832242110,-12612.347509790212
1710832242150,-14681.212798044086
1710832242191,-14913.277265011333
1710832242230,-15839.587916351855
1710832242270,-15839.587916351855
1710832242310,-15839.587916351855
1710832242350,-15839.587916351855
1710832242391,-15839.587916351855
1710832242430,-17734.241171388887
1710832242471,-17734.241171388887
1710832242511,-17734.241171388887
1710832242551,-17734.241171388887
1710832242591,-17734.241171388887
1710832242631,-17734.241171388887
1710832242671,-19143.285408398602
1710832242711,-19813.015138105024
1710832242751,-21139.44553257851
1710832242792,-22516.795114228502
1710832242831,-23021.744102547877
1710832242872,-24479.415158157703
1710832242911,-24512.181014464237
1710832242952,-24512.181014464237
1710832242993,-24512.181014464237
1710832243032,-24512.181014464237
1710832243072,-24512.181014464237
1710832243112,-28729.38936447352
1710832243152,-28729.38936447352
1710832243193,-28729.38936447352
1710832243232,-28729.38936447352
1710832243272,-28729.38936447352
1710832243312,-28729.38936447352
1710832243353,-28923.057658703998
1710832243393,-31190.059212588705
1710832243433,-33023.11850596126
1710832243473,-33842.38116807956
1710832243513,-35062.410970433615
1710832243553,-35747.03717685398
1710832243594,-36925.15459684562
1710832243633,-36960.16247994453
1710832243673,-36960.16247994453
1710832243714,-36960.16247994453
1710832243754,-36960.16247994453
1710832243794,-42112.327738164924
1710832243834,-42303.66062641516
1710832243874,-42303.66062641516
1710832243914,-42303.66062641516
1710832243954,-42303.66062641516
1710832243995,-42303.66062641516
1710832244034,-42303.66062641516
1710832244075,-42303.66062641516
1710832244115,-42303.66062641516
1710832244155,-43376.837789929006
1710832244196,-46201.24332992546
1710832244235,-48221.9337418247
1710832244275,-48221.9337418247
1710832244315,-48221.9337418247
1710832244355,-48221.9337418247
1710832244398,-48221.9337418247
1710832244435,-47240.06014132919
1710832244475,-46201.24332992546
1710832244515,-43566.43382296804
1710832244555,-43376.837789929006
1710832244596,-42303.66062641516
1710832244635,-39101.42074706871
1710832244675,-38844.9980816124
1710832244715,-36927.58215313824
1710832244755,-36927.58215313824
1710832244796,-36927.58215313824
1710832244836,-36927.58215313824
1710832244876,-36927.58215313824
1710832244916,-36927.58215313824
1710832244956,-35505.86445676256
1710832244997,-30449.557109760586
1710832245037,-25621.99954637373
1710832245076,-25517.8467792226
1710832245117,-25517.8467792226
1710832245157,-25517.8467792226
1710832245197,-23891.243771083653
1710832245237,-22062.81924885977
1710832245277,-21947.614782954566
1710832245317,-21770.42241455475
1710832245357,-19492.373610842973
1710832245398,-18233.26266994793
1710832245438,-16324.860108430497
1710832245478,-16256.789517835714
1710832245518,-12928.532019467093
1710832245558,-12868.616549597122
1710832245599,-12868.616549597122
1710832245638,-12868.616549597122
1710832245678,-12868.616549597122
1710832245718,-12868.616549597122
1710832245758,-12868.616549597122
1710832245799,-9838.77881027013
1710832245839,-7141.0838771359995
1710832245879,-6111.992830151692
1710832245919,-6111.992830151692
1710832245959,-6111.992830151692
1710832246000,-6111.992830151692
1710832246039,-6111.992830151692
1710832246079,-6111.992830151692
1710832246119,-6111.992830151692
1710832246159,-6111.992830151692
1710832246200,-6062.888885801658
1710832246240,-5346.726547515485
1710832246280,-4279.270773570985
1710832246320,-4279.270773570985
1710832246360,-4279.270773570985
1710832246401,-4279.270773570985
1710832246440,-4279.270773570985
1710832246481,-4279.270773570985
1710832246520,-4279.270773570985
1710832246561,-4279.270773570985
1710832246602,-4425.222040396184
1710832246641,-5346.726547515485
1710832246681,-6062.888885801658
1710832246721,-6062.888885801658
1710832246761,-6062.888885801658
1710832246802,-5346.726547515485
1710832246842,-4425.222040396184
1710832246882,-4279.270773570985
1710832246922,-4042.819562557619
1710832246962,-3399.0904439380392
1710832247003,-1789.9999152501114
1710832247042,-1614.570329528302
1710832247082,202.3928644908592
1710832247122,479.98474784521386
1710832247163,516.4062267532572
1710832247203,1688.8523856629618
1710832247243,3604.7202962464653
1710832247283,3675.9173005823977
1710832247323,4652.446691979654
1710832247363,6437.071903195232
1710832247405,6559.100405979902
1710832247443,6559.100405979902
1710832247484,6559.100405979902
1710832247524,6559.100405979902
1710832247564,6559.100405979902
1710832247605,6559.100405979902
1710832247644,7577.410285520367
1710832247684,8192.66350744944
1710832247724,8525.076630523428
1710832247764,8862.46363741206
1710832247805,10303.875397337135
1710832247845,10784.61073367158
1710832247885,10784.61073367158
1710832247925,10784.61073367158
1710832247965,10784.61073367158
1710832248006,10784.61073367158
1710832248045,10303.875397337135
1710832248086,9344.272522766143
1710832248126,8525.076630523428
1710832248166,8192.66350744944
1710832248207,7577.410285520367
1710832248246,7577.410285520367
1710832248286,7925.541244421154
1710832248326,8192.66350744944
1710832248366,9344.272522766143
1710832248408,9536.529663750902
1710832248447,10724.145236320328
1710832248487,10784.61073367158
1710832248527,12292.260737892706
1710832248567,12605.879487210885
1710832248608,13409.368066785857
1710832248647,13503.238228502218
1710832248687,13503.238228502218
1710832248727,13503.238228502218
1710832248767,13503.238228502218
1710832248808,12292.260737892706
1710832248847,12076.000709112268
1710832248888,12076.000709112268
1710832248928,12076.000709112268
1710832248968,12076.000709112268
1710832249009,12076.000709112268
1710832249048,12076.000709112268
1710832249088,12076.000709112268
1710832249128,12076.000709112268
1710832249168,12076.000709112268
1710832249209,12076.000709112268
1710832249249,12076.000709112268
1710832249288,12076.000709112268
1710832249329,12076.000709112268
1710832249369,12076.000709112268
1710832249409,12076.000709112268
1710832249449,12076.000709112268
1710832249489,12076.000709112268
1710832249529,12076.000709112268
1710832249569,11463.380977599882
1710832249610,10404.138977523893
1710832249649,10320.541528744157
1710832249690,9951.030488388613
1710832249730,9951.030488388613
1710832249770,9951.030488388613
1710832249810,10044.29877696
1710832249850,10110.246485336684
1710832249890,10320.541528744157
1710832249930,10916.982991379686
1710832249970,11463.380977599882
1710832250011,12507.657041228376
1710832250050,12708.313732733019
1710832250091,13094.82626593206
1710832250131,13094.82626593206
1710832250171,13094.82626593206
1710832250212,13094.82626593206
1710832250251,13094.82626593206
1710832250291,12708.313732733019
1710832250331,10916.982991379686
1710832250371,10110.246485336684
1710832250414,10110.246485336684
1710832250452,10110.246485336684
1710832250492,10110.246485336684
1710832250532,10110.246485336684
1710832250572,10110.246485336684
1710832250613,10110.246485336684
1710832250652,10110.246485336684
1710832250692,8981.118242101744
1710832250732,5809.31826187484
1710832250772,4033.479418198578
1710832250813,4033.479418198578
1710832250853,4033.479418198578
1710832250893,4033.479418198578
1710832250933,4033.479418198578
1710832250973,4033.479418198578
1710832251014,4033.479418198578
1710832251053,3766.8354643546045
1710832251093,3234.6220054761507
1710832251134,2868.7382038440555
1710832251174,2373.972809343599
1710832251214,1762.2254139673896
1710832251254,571.884369940497
1710832251294,571.884369940497
1710832251334,571.884369940497
1710832251374,571.884369940497
1710832251415,571.884369940497
1710832251454,571.884369940497
1710832251494,1762.2254139673896
1710832251535,2119.900988973677
1710832251575,2119.900988973677
1710832251615,2119.900988973677
1710832251655,2119.900988973677
1710832251695,2119.900988973677
1710832251735,2119.900988973677
1710832251775,2119.900988973677
1710832251816,2119.900988973677
1710832251855,98.44623256428167
1710832251895,-559.3996535218321
1710832251935,-1095.314979000017
1710832251976,-1095.314979000017
1710832252017,-1095.314979000017
1710832252056,-1095.314979000017
1710832252096,-1095.314979000017
1710832252136,-1095.314979000017
1710832252176,-1095.314979000017
1710832252217,-1095.314979000017
1710832252256,-744.1487623713911
1710832252296,-744.1487623713911
1710832252337,-744.1487623713911
1710832252377,-744.1487623713911
1710832252417,-744.1487623713911
1710832252457,-744.1487623713911
1710832252497,-744.1487623713911
1710832252537,-744.1487623713911
1710832252577,-2052.7428062856197
1710832252618,-2806.5736567126587
1710832252657,-3414.5344795710407
1710832252697,-4445.963189944625
1710832252738,-4445.963189944625
1710832252778,-4445.963189944625
1710832252819,-4445.963189944625
1710832252858,-4445.963189944625
1710832252898,-4445.963189944625
1710832252938,-4445.963189944625
1710832252978,-4445.963189944625
1710832253019,-3414.5344795710407
1710832253058,-3414.5344795710407
1710832253099,-3414.5344795710407
1710832253139,-3414.5344795710407
1710832253179,-3414.5344795710407
1710832253220,-3414.5344795710407
1710832253259,-3414.5344795710407
1710832253299,-3414.5344795710407
1710832253339,-4948.282454671338
1710832253379,-7256.474637811538
1710832253421,-7445.806506132707
1710832253460,-8151.034137181938
1710832253500,-8771.018229207024
1710832253540,-8771.018229207024
1710832253580,-8771.018229207024
1710832253621,-8771.018229207024
1710832253660,-8771.018229207024
1710832253700,-8771.018229207024
1710832253740,-8959.223651901819
1710832253780,-13539.317362977192
1710832253821,-13539.317362977192
1710832253861,-13539.317362977192
1710832253901,-13539.317362977192
1710832253941,-13539.317362977192
1710832253981,-13539.317362977192
1710832254022,-13539.317362977192
1710832254061,-14368.94787606923
1710832254101,-16042.848898050375
1710832254142,-16635.76606917288
1710832254182,-16774.76252957061
1710832254222,-19374.93334474368
1710832254262,-20095.30737353256
1710832254302,-21443.058511450887
1710832254342,-21443.058511450887
1710832254382,-21443.058511450887
1710832254423,-21443.058511450887
1710832254463,-21443.058511450887
1710832254503,-19374.93334474368
1710832254543,-17331.53011638485
1710832254583,-17331.53011638485
1710832254624,-17331.53011638485
1710832254663,-17331.53011638485
1710832254703,-17331.53011638485
1710832254744,-17331.53011638485
1710832254784,-17331.53011638485
1710832254824,-17331.53011638485
1710832254864,-17331.53011638485
1710832254904,-18390.617813628167
1710832254944,-18390.617813628167
1710832254984,-18118.11156305857
1710832255025,-17331.53011638485
1710832255065,-17012.828342193738
1710832255105,-16836.623247127514
1710832255145,-15851.619895164855
1710832255185,-15292.004391398747
1710832255226,-13554.983168678358
1710832255265,-13546.370475592092
1710832255305,-11152.003691691905
1710832255345,-10968.961693906225
1710832255386,-10518.143049616367
1710832255426,-8268.247782547493
1710832255466,-7584.618200835772
1710832255506,-7584.618200835772
1710832255546,-7584.618200835772
1710832255586,-7584.618200835772
1710832255627,-7584.618200835772
1710832255666,-7584.618200835772
1710832255706,-7580.346402156167
1710832255746,-7427.161485028453
1710832255786,-7427.161485028453
1710832255827,-6932.453485376202
1710832255866,-6589.686485879123
1710832255906,-5477.415380541235
1710832255946,-4931.059796109796
1710832255987,-4033.7984390687197
1710832256027,-3428.5520784487016
1710832256067,-843.6637177928351
1710832256107,-843.6637177928351
1710832256147,-843.6637177928351
1710832256187,-843.6637177928351
1710832256228,-1824.8165124594234
1710832256267,-3428.5520784487016
1710832256307,-4931.059796109796
1710832256348,-5477.415380541235
1710832256388,-6589.686485879123
1710832256430,-6932.453485376202
1710832256470,-6932.453485376202
1710832256510,-6932.453485376202
1710832256550,-6932.453485376202
1710832256590,-6932.453485376202
1710832256631,-6932.453485376202
1710832256670,-8369.066018868238
1710832256711,-9608.928087746259
1710832256750,-9608.928087746259
1710832256791,-9608.928087746259
1710832256832,-9608.928087746259
1710832256871,-9608.928087746259
1710832256911,-9608.928087746259
1710832256951,-11206.326014828868
1710832256991,-11327.883194264024
1710832257032,-11899.054411077406
1710832257071,-12131.685771829449
1710832257111,-13821.899887213483
1710832257151,-15314.707467693835
1710832257192,-15798.172517479397
1710832257232,-15798.172517479397
1710832257272,-15798.172517479397
1710832257312,-15798.172517479397
1710832257352,-13915.173559536692
1710832257392,-13821.899887213483
1710832257433,-11899.054411077406
1710832257472,-11327.883194264024
1710832257512,-11327.883194264024
1710832257553,-11327.883194264024
1710832257592,-11327.883194264024
1710832257633,-11327.883194264024
1710832257673,-11327.883194264024
1710832257713,-11327.883194264024
1710832257753,-12198.868715728167
1710832257793,-13915.173559536692
1710832257834,-13915.173559536692
1710832257873,-13915.173559536692
1710832257913,-13915.173559536692
1710832257954,-13915.173559536692
1710832257994,-13915.173559536692
1710832258035,-12804.519112847745
1710832258074,-12198.868715728167
1710832258114,-10990.43022241909
1710832258154,-10170.57844799105
1710832258194,-8425.4082237673
1710832258235,-8401.720875016414
1710832258275,-6963.337880467065
1710832258315,-6963.337880467065
1710832258355,-6963.337880467065
1710832258395,-6963.337880467065
1710832258436,-6963.337880467065
1710832258475,-6963.337880467065
1710832258515,-6963.337880467065
1710832258555,-6963.337880467065
1710832258595,-6963.337880467065
1710832258636,-6963.337880467065
1710832258676,-6963.337880467065
1710832258716,-6963.337880467065
1710832258756,-6963.337880467065
1710832258796,-6626.040384733584
1710832258837,-6292.190396581776
1710832258876,-5260.117458262481
1710832258916,-4014.559339625761
1710832258957,-3190.5206961147487
1710832258997,-2460.4001054181717
1710832259038,-2460.4001054181717
1710832259077,-2460.4001054181717
1710832259117,-2460.4001054181717
1710832259157,-2460.4001054181717
1710832259197,-2460.4001054181717
1710832259238,-2460.4001054181717
1710832259278,-2460.4001054181717
1710832259318,16.634275706019253
1710832259358,1413.572463109158
1710832259398,3867.1436730995774
1710832259440,7517.678386727814
1710832259478,13969.269690089859
1710832259518,15561.338101872243
1710832259559,17368.65338250203
1710832259599,17368.65338250203
1710832259640,17368.65338250203
1710832259679,17368.65338250203
1710832259719,17368.65338250203
1710832259759,17368.65338250203
1710832259799,17368.65338250203
1710832259840,17368.65338250203
1710832259880,17368.65338250203
1710832259920,17902.7017839849
1710832259960,18324.686990928836
1710832260000,18324.686990928836
1710832260041,18629.92702677753
1710832260081,18670.309642176144
1710832260121,21245.206863370724
1710832260161,21712.921720798593
1710832260201,21712.921720798593
1710832260242,21712.921720798593
1710832260281,17270.44494502619
1710832260321,16371.314816378988
1710832260361,16294.88850276731
1710832260402,8833.2092999327
1710832260442,8833.2092999327
1710832260482,8833.2092999327
1710832260522,16371.314816378988
1710832260562,17975.729707706254
1710832260602,18991.32564343512
1710832260643,18991.32564343512
1710832260683,18991.32564343512
1710832260723,18991.32564343512
1710832260763,17975.729707706254
1710832260803,16569.888633412775
1710832260844,16371.314816378988
1710832260883,3502.8271563570015
1710832260924,1848.0317299729213
1710832260963,794.045002724044
1710832261004,358.7414781753905
1710832261045,-106.59386198036373
1710832261084,358.7414781753905
1710832261124,794.045002724044
1710832261164,794.045002724044
1710832261204,794.045002724044
1710832261245,794.045002724044
1710832261285,358.7414781753905
1710832261325,-106.59386198036373
1710832261365,-636.910052488558
1710832261405,-1067.9399430938065
1710832261446,-2824.5226650298573
1710832261485,-4218.483703009784
1710832261525,-4221.401244627312
1710832261565,-5263.866366899572
1710832261605,-5263.866366899572
1710832261646,-4221.401244627312
1710832261686,-4221.401244627312
1710832261726,-4221.401244627312
1710832261766,-4221.401244627312
1710832261806,-7719.943017424084
1710832261847,-8953.306694504805
1710832261886,-8953.306694504805
1710832261926,-13868.086745318025
1710832261966,-13868.086745318025
1710832262006,-13868.086745318025
1710832262047,-8953.306694504805
1710832262086,-7719.943017424084
1710832262127,-5703.126040865667
1710832262167,-2851.0563633306883
1710832262207,-1573.6379608539864
1710832262248,1465.4575994210318
1710832262287,3400.73001360707
1710832262327,12248.744148037396
1710832262367,12248.744148037396
1710832262407,12248.744148037396
1710832262449,15011.404631101526
1710832262488,15011.404631101526
1710832262527,15011.404631101526
1710832262567,12248.744148037396
1710832262608,12248.744148037396
1710832262648,12248.744148037396
1710832262688,12248.744148037396
1710832262728,12248.744148037396
1710832262768,12248.744148037396
1710832262808,12248.744148037396
1710832262849,15011.404631101526
1710832262888,12248.744148037396
1710832262928,4032.9173627933487
1710832262969,2934.086497406941
1710832263009,-516.6929743005894
1710832263049,-785.0624788138084
1710832263089,-1399.6457862509415
1710832263129,-1399.6457862509415
1710832263169,-1399.6457862509415
1710832263209,-785.0624788138084
1710832263250,-785.0624788138084
1710832263289,-2405.0424771709368
1710832263330,-2523.2667386373505
1710832263370,-2731.534096886404
1710832263410,-4372.557146644685
1710832263451,-4763.1962154647335
1710832263490,-4763.1962154647335
1710832263530,-4763.1962154647335
1710832263573,-9312.229653118644
1710832263610,-9367.68807678204
1710832263651,-9665.359299522359
1710832263691,-15522.897831351496
1710832263731,-15522.897831351496
1710832263771,-15522.897831351496
1710832263811,-15522.897831351496
1710832263852,-15522.897831351496
1710832263891,-15522.897831351496
1710832263931,-15522.897831351496
1710832263971,-15522.897831351496
1710832264011,-17516.306129729375
1710832264052,-24130.24421894364
1710832264092,-26510.144658886362
1710832264132,-29064.18542079348
1710832264172,-29064.18542079348
1710832264212,-29064.18542079348
1710832264253,-29064.18542079348
1710832264292,-29064.18542079348
1710832264332,-29064.18542079348
1710832264372,-29064.18542079348
1710832264413,-29064.18542079348
1710832264453,-29064.18542079348
1710832264493,-29064.18542079348
1710832264533,-32976.384160412475
1710832264573,-33149.9255297184
1710832264613,-34821.935216930695
1710832264654,-35060.93314842228
1710832264693,-38197.37201495934
1710832264733,-39261.25735171186
1710832264774,-40305.27216049377
1710832264814,-40510.792597875
1710832264854,-45536.41654148046
1710832264894,-45536.41654148046
1710832264934,-45536.41654148046
1710832264974,-45536.41654148046
1710832265014,-47630.72467588447
1710832265055,-48808.07974287169
1710832265094,-48808.07974287169
1710832265135,-48808.07974287169
1710832265175,-48808.07974287169
1710832265215,-48808.07974287169
1710832265256,-48808.07974287169
1710832265295,-48808.07974287169
1710832265335,-45536.41654148046
1710832265375,-45510.11969251861
1710832265415,-45176.6954621966
1710832265458,-43473.304394629784
1710832265496,-40044.99399773241
1710832265536,-39554.741439314326
1710832265576,-38772.70610725321
1710832265616,-36878.387686342
1710832265657,-36365.91149996361
1710832265696,-35641.3659173348
1710832265736,-36365.91149996361
1710832265779,-36878.387686342
1710832265817,-38094.35962219117
1710832265858,-38094.35962219117
1710832265897,-38094.35962219117
1710832265937,-38094.35962219117
1710832265977,-38772.70610725321
1710832266017,-38772.70610725321
1710832266058,-38772.70610725321
1710832266098,-38772.70610725321
1710832266138,-38094.35962219117
1710832266178,-36878.387686342
1710832266218,-35641.3659173348
1710832266259,-33887.71905290196
1710832266298,-33887.71905290196
1710832266338,-33887.71905290196
1710832266378,-33887.71905290196
1710832266418,-33887.71905290196
1710832266459,-33887.71905290196
1710832266499,-33887.71905290196
1710832266539,-33887.71905290196
1710832266579,-28017.365833643125
1710832266619,-22498.697557005566
1710832266660,-21753.89029506757
1710832266700,-21672.536438243696
1710832266740,-20918.503202241613
1710832266780,-20202.638850965537
1710832266820,-19793.29020606028
1710832266861,-18592.033496746095
1710832266900,-15964.631327982992
1710832266941,-15620.91508495761
1710832266980,-14325.34351367876
1710832267021,-14325.34351367876
1710832267062,-14325.34351367876
1710832267101,-15620.91508495761
1710832267141,-15964.631327982992
1710832267181,-18592.033496746095
1710832267221,-18592.033496746095
1710832267262,-18592.033496746095
1710832267302,-18592.033496746095
1710832267342,-18592.033496746095
1710832267382,-18592.033496746095
1710832267422,-19216.193504608236
1710832267463,-22097.315534843598
1710832267502,-22097.315534843598
1710832267543,-22097.315534843598
1710832267583,-22097.315534843598
1710832267623,-22097.315534843598
1710832267664,-22097.315534843598
1710832267703,-22097.315534843598
1710832267743,-22097.315534843598
1710832267784,-22097.315534843598
1710832267824,-22097.315534843598
1710832267864,-22097.315534843598
1710832267904,-16833.98410582356
1710832267944,-8755.971766977338
1710832267987,-7231.927324160002
1710832268024,-6867.759003289277
1710832268065,-478.91997971828096
1710832268104,-278.83974220161326
1710832268144,-196.5507686836645
1710832268184,824.1778389038518
1710832268224,3525.2326343094464
1710832268265,3525.2326343094464
1710832268305,3525.2326343094464
1710832268345,3525.2326343094464
1710832268385,3525.2326343094464
1710832268425,3525.2326343094464
1710832268467,3525.2326343094464
1710832268504,3525.2326343094464
1710832268544,3525.2326343094464
1710832268584,-278.83974220161326
1710832268625,-478.91997971828096
1710832268665,-3506.597936617909
1710832268705,-12501.370356280822
1710832268745,-12501.370356280822
1710832268785,-12501.370356280822
1710832268825,-12764.209729718976
1710832268866,-15647.066668707877
1710832268905,-16286.097927683033
1710832268945,-18110.71414965205
1710832268986,-19148.13899093028
1710832269026,-20908.893935364205
1710832269066,-21096.971384288976
1710832269106,-22237.24996756576
1710832269146,-22237.24996756576
1710832269186,-22237.24996756576
1710832269226,-21096.971384288976
1710832269267,-20908.893935364205
1710832269306,-19148.13899093028
1710832269346,-18748.496931426693
1710832269386,-17582.199560161447
1710832269427,-16286.097927683033
1710832269467,-15647.066668707877
1710832269507,-15436.350742611336
1710832269547,-12764.209729718976
1710832269587,-12764.209729718976
1710832269627,-12764.209729718976
1710832269668,-10012.059035719838
1710832269707,-2627.684567190241
1710832269747,2254.804263843922
1710832269787,2867.8671139078215
1710832269828,3010.0578290484846
1710832269868,3720.9565605067182
1710832269908,3812.208395601716
1710832269948,3880.3016903407406
1710832269988,4307.799747018376
1710832270028,5758.157319822814
1710832270069,6750.561977606732
1710832270108,8083.53003466595
1710832270148,8518.337869712617
1710832270189,9629.617229567375
1710832270229,11769.064498812892
1710832270270,16137.101854456821
1710832270309,21871.72953534918
1710832270349,21871.72953534918
1710832270389,21871.72953534918
1710832270429,21871.72953534918
1710832270470,21871.72953534918
1710832270510,21871.72953534918
1710832270550,22752.43805617676
1710832270590,23649.841808244586
1710832270630,25215.217178661842
1710832270671,26667.252352520358
1710832270710,26667.252352520358
1710832270750,26667.252352520358
1710832270791,26613.96726209577
1710832270831,25215.217178661842
1710832270871,22752.43805617676
1710832270911,21871.72953534918
1710832270951,21185.704812298063
1710832270991,20860.057078722864
1710832271031,19508.7482952266
1710832271072,19134.672460420523
1710832271112,18196.976364081725
1710832271152,17704.22690489283
1710832271192,17429.01477677864
1710832271232,16741.77767102467
1710832271273,14693.66057858523
1710832271312,14693.66057858523
1710832271352,14592.855557151604
1710832271392,13868.142293166835
1710832271433,13583.1971569187
1710832271475,13351.61086398596
1710832271513,13299.111180655658
1710832271553,13035.029248855542
1710832271593,12644.743989685085
1710832271633,12568.544562608004
1710832271674,12409.616665677866
1710832271713,12165.731950475601
1710832271754,11911.426472180057
1710832271794,7229.489405261353
1710832271834,2176.9263828136027
1710832271875,2176.9263828136027
1710832271914,2176.9263828136027
1710832271954,2176.9263828136027
1710832271995,2176.9263828136027
1710832272034,2176.9263828136027
1710832272075,2176.9263828136027
1710832272115,2176.9263828136027
1710832272155,1436.592602227116
1710832272195,887.2781999700237
1710832272235,67.18999147694558
1710832272276,-1332.0341981127858
1710832272315,-1484.5345516214147
1710832272356,-1332.0341981127858
1710832272396,-67.13612091448158
1710832272436,887.2781999700237
1710832272477,1436.592602227116
1710832272516,1994.937389328843
1710832272556,3255.242884559091
1710832272596,4744.400246554054
1710832272636,5487.930769367609
1710832272677,8334.368957585422
1710832272717,8568.999613519292
1710832272757,8723.503652123269
1710832272797,8723.503652123269
1710832272837,8723.503652123269
1710832272878,8723.503652123269
1710832272917,12762.650694477838
1710832272958,14106.900019983295
1710832272998,14106.900019983295
1710832273038,14106.900019983295
1710832273079,14106.900019983295
1710832273118,14912.938445533626
1710832273158,15221.721386688063
1710832273199,16162.68370496761
1710832273238,16900.764400811866
1710832273279,18929.77603790816
1710832273319,19117.213267902378
1710832273359,20526.25575510948
1710832273399,24711.17010674486
1710832273439,24741.10495533538
1710832273480,24741.10495533538
1710832273519,24741.10495533538
1710832273560,24741.10495533538
1710832273600,26258.71223781677
1710832273640,33107.263753348496
1710832273681,33757.270445597824
1710832273720,33764.338742396794
1710832273760,33910.77659634221
1710832273801,33965.572112384485
1710832273841,33965.572112384485
1710832273881,33965.572112384485
1710832273921,33965.572112384485
1710832273961,33965.572112384485
1710832274001,33965.572112384485
1710832274041,33965.572112384485
1710832274082,33965.572112384485
1710832274121,33910.77659634221
1710832274161,33764.338742396794
1710832274201,33562.12962979963
1710832274241,33107.263753348496
1710832274282,32754.159501755144
1710832274322,32573.506908287294
1710832274362,30690.809519491624
1710832274402,28472.526381227188
1710832274442,25202.677408344112
1710832274484,22444.041237252997
1710832274522,18013.52782667009
1710832274562,10231.052078632172
1710832274602,6856.835661603371
1710832274643,6856.835661603371
1710832274683,6856.835661603371
1710832274723,6856.835661603371
1710832274763,6856.835661603371
1710832274803,6856.835661603371
1710832274843,6856.835661603371
1710832274884,6856.835661603371
1710832274923,5992.492828768212
1710832274963,5916.881147456355
1710832275003,5092.7749567369465
1710832275043,4434.72861459665
1710832275084,4395.266224785242
1710832275124,4395.266224785242
1710832275164,4395.266224785242
1710832275204,4417.169635048136
1710832275244,5092.7749567369465
1710832275285,5195.773882421665
1710832275324,5992.492828768212
1710832275365,6856.835661603371
1710832275404,6914.518257191172
1710832275445,8264.990379506955
1710832275485,9431.490817147307
1710832275525,10035.901257071178
1710832275565,10035.901257071178
1710832275605,10035.901257071178
1710832275645,10035.901257071178
1710832275686,10035.901257071178
1710832275725,10291.802708649077
1710832275765,13293.823032078799
1710832275806,15557.83024434885
1710832275846,17260.13638971746
1710832275886,17260.13638971746
1710832275926,17260.13638971746
1710832275966,17260.13638971746
1710832276006,17260.13638971746
1710832276046,17260.13638971746
1710832276087,17260.13638971746
1710832276126,17260.13638971746
1710832276166,17260.13638971746
1710832276207,17608.524151802994
1710832276247,17730.226789401844
1710832276287,17730.226789401844
1710832276327,17730.226789401844
1710832276367,17608.524151802994
1710832276407,17260.13638971746
1710832276447,17226.622315024957
1710832276488,16930.221154896077
1710832276528,16800.743706519715
1710832276568,16303.069189315662
1710832276608,16286.749799875543
1710832276648,16047.701898583211
1710832276689,15893.143544747028
1710832276728,15524.697881633416
1710832276768,15336.537881982047
1710832276809,14463.014809519053
1710832276848,14463.014809519053
1710832276889,14463.014809519053
1710832276929,14463.014809519053
1710832276969,14463.014809519053
1710832277009,14463.014809519053
1710832277049,14463.014809519053
1710832277090,14463.014809519053
1710832277129,14463.014809519053
1710832277169,12878.971625356004
1710832277210,12173.054089099634
1710832277250,11619.48471408803
1710832277291,11619.48471408803
1710832277330,11619.48471408803
1710832277370,11619.48471408803
1710832277410,11619.48471408803
1710832277450,11619.48471408803
1710832277493,11619.48471408803
1710832277531,11619.48471408803
1710832277571,11451.658002120443
1710832277611,11451.658002120443
1710832277651,11451.658002120443
1710832277692,11451.658002120443
1710832277731,11451.658002120443
1710832277771,11451.658002120443
1710832277811,11451.658002120443
1710832277852,10138.010150661692
1710832277892,9454.065240662545
1710832277932,9387.438475052826
1710832277972,8973.62752663996
1710832278012,8451.850232581142
1710832278052,7999.8142200810835
1710832278093,7907.30497991899
1710832278132,7907.30497991899
1710832278172,7907.30497991899
1710832278213,7907.30497991899
1710832278253,7638.776077318471
1710832278293,6778.011558611412
1710832278333,5663.451771596912
1710832278373,4741.682816407178
1710832278413,4447.170873390511
1710832278453,4386.5658648293465
1710832278494,4106.712272663601
1710832278533,4016.8711947929114
1710832278574,3693.692047682591
1710832278614,3681.6578903403133
1710832278654,3463.0912182880566
1710832278695,3422.3822686420754
1710832278734,3241.010361719411
1710832278774,3126.8678839909844
1710832278815,2814.5286193648353
1710832278855,2574.5112355314195
1710832278896,-1598.8378406623378
1710832278935,-7095.843063218519
1710832278975,-10678.971208096482
1710832279015,-13651.973819663748
1710832279055,-16495.080681841355
1710832279096,-16701.835750656202
1710832279136,-16701.835750656202
1710832279176,-17202.989373780787
1710832279216,-17561.84983411804
1710832279256,-17964.528193833306
1710832279297,-18545.629844605457
1710832279336,-18656.42265274329
1710832279376,-19564.659558056854
1710832279417,-20288.431088747922
1710832279457,-20513.7280006418
1710832279497,-20857.506652067415
1710832279537,-20950.583769530058
1710832279577,-20985.434343189932
1710832279617,-24586.1831154041
1710832279657,-29108.935684585012
1710832279698,-29108.935684585012
1710832279738,-29108.935684585012
1710832279778,-29108.935684585012
1710832279818,-29108.935684585012
1710832279858,-29108.935684585012
1710832279899,-29108.935684585012
1710832279938,-29108.935684585012
1710832279979,-29112.915787963197
1710832280019,-29944.63867757842
1710832280059,-31240.612208935432
1710832280100,-32277.46997601865
1710832280139,-32278.168250895105
1710832280179,-32278.168250895105
1710832280219,-32278.168250895105
1710832280259,-32278.168250895105
1710832280300,-31240.612208935432
1710832280339,-30951.150799110997
1710832280379,-29944.63867757842
1710832280420,-29112.915787963197
1710832280460,-28777.074798517395
1710832280502,-28194.012040228583
1710832280540,-26301.77637869306
1710832280580,-26301.77637869306
1710832280620,-26301.77637869306
1710832280660,-26301.77637869306
1710832280701,-26301.77637869306
1710832280740,-26301.77637869306
1710832280780,-26301.77637869306
1710832280820,-24128.7379914606
1710832280861,-22332.686474505812
1710832280901,-19669.893377158325
1710832280941,-16992.509803584777
1710832280981,-16544.350190348923
1710832281021,-16082.933483701665
1710832281061,-16082.933483701665
1710832281102,-15988.932247770252
1710832281141,-15932.179288055748
1710832281181,-14428.80561023485
1710832281221,-14371.869417628273
1710832281262,-13702.851323180832
1710832281302,-12777.391879608389
1710832281342,-11438.688953383826
1710832281382,-11315.899535660632
1710832281422,-10962.102732220665
1710832281462,-9941.715055887355
1710832281503,-9941.715055887355
1710832281542,-9941.715055887355
1710832281582,-9941.715055887355
1710832281623,-9941.715055887355
1710832281663,-8596.53494733246
1710832281703,-6419.361755975056
1710832281743,-3985.7558687478304
1710832281783,-1856.5627255337313
1710832281823,953.5008304454386
1710832281863,2413.1733902166598
1710832281904,2424.1593528592493
1710832281943,2493.868187825661
1710832281984,2888.0906216753647
1710832282023,3109.261674309382
1710832282064,3517.912360133836
1710832282105,4205.582049334655
1710832282144,5188.238238155842
1710832282184,5638.773009449476
1710832282224,5827.600355361123
1710832282264,6168.734546571039
1710832282305,6516.666432888713
1710832282345,6985.201566377189
1710832282384,6985.201566377189
1710832282425,8089.174074199516
1710832282465,9754.867674889509
1710832282505,9754.867674889509
1710832282545,9754.867674889509
1710832282585,9754.867674889509
1710832282625,9754.867674889509
1710832282665,9754.867674889509
1710832282706,9754.867674889509
1710832282745,9754.867674889509
1710832282786,9754.867674889509
1710832282826,9754.867674889509
1710832282866,9754.867674889509
1710832282907,9617.584340534173
1710832282946,9617.584340534173
1710832282986,9617.584340534173
1710832283026,9617.584340534173
1710832283067,9617.584340534173
1710832283107,9312.556687530596
1710832283147,9102.329004988773
1710832283187,8930.09235046478
1710832283227,8108.642841546331
1710832283267,7846.378936330322
1710832283308,7333.4620714224875
1710832283347,6813.4319385387935
1710832283387,6535.376524242107
1710832283428,6311.431778791361
1710832283467,5976.54806503444
1710832283510,5461.994613361778
1710832283548,4547.730655983323
1710832283588,1131.873277054634
1710832283628,-1362.9679064424708
1710832283668,-2955.293438489083
1710832283709,-2955.293438489083
1710832283748,-2955.293438489083
1710832283788,-2955.293438489083
1710832283828,-2955.293438489083
1710832283868,-2955.293438489083
1710832283909,-2955.293438489083
1710832283949,-2955.293438489083
1710832283989,-2955.293438489083
1710832284029,-2955.293438489083
1710832284069,-2955.293438489083
1710832284110,-2796.2228026846424
1710832284150,-1297.681359040551
1710832284190,582.0811588221695
1710832284230,1917.3635293825064
1710832284270,1999.9692866778933
1710832284311,3014.97918285802
1710832284350,3327.328895500861
1710832284390,3487.8567764498293
1710832284430,3693.899890391156
1710832284470,3916.711081539979
1710832284511,4729.908219135832
1710832284551,5207.599931385834
1710832284591,5407.854432011489
1710832284631,7135.170288105728
1710832284671,9175.009953839937
1710832284712,10036.075334712397
1710832284751,11216.020942005096
1710832284791,11647.78338187933
1710832284831,11840.327278144425
1710832284872,12192.80007110699
1710832284912,12885.252069121692
1710832284952,12885.252069121692
1710832284992,12885.252069121692
1710832285032,12885.252069121692
1710832285072,12885.252069121692
1710832285113,12885.252069121692
1710832285152,12885.252069121692
1710832285192,12885.252069121692
1710832285233,12885.252069121692
1710832285273,12885.252069121692
1710832285314,12885.252069121692
1710832285353,9175.808712134138
1710832285393,4657.33140085591
1710832285433,2563.7452983492985
1710832285474,2563.7452983492985
1710832285514,2563.7452983492985
1710832285554,2563.7452983492985
1710832285594,2563.7452983492985
1710832285634,2563.7452983492985
1710832285674,2563.7452983492985
1710832285715,2563.7452983492985
1710832285754,2563.7452983492985
1710832285794,2563.7452983492985
1710832285835,2563.7452983492985
1710832285875,2611.372024906799
1710832285915,3357.2792858760804
1710832285955,3514.7571887783706
1710832285995,4258.157159153372
1710832286035,5439.044636410195
1710832286075,6487.799828460906
1710832286116,8103.105940395966
1710832286156,10192.519621586893
1710832286196,11453.19370205095
1710832286236,12718.626241737045
1710832286276,13161.52829101868
1710832286317,13710.325059535913
1710832286356,14370.808890084736
1710832286396,15035.79503160948
1710832286437,15518.12249649223
1710832286477,16157.412475401536
1710832286519,17873.458386988845
1710832286557,18869.9372914657
1710832286597,20585.463996181265
1710832286637,21526.25265278481
1710832286677,22936.668432999402
1710832286718,23641.55464383494
1710832286757,25488.83546342887
1710832286798,25665.08575367881
1710832286837,25665.08575367881
1710832286878,25665.08575367881
1710832286918,25665.08575367881
1710832286958,25665.08575367881
1710832286998,25665.08575367881
1710832287038,25665.08575367881
1710832287078,25665.08575367881
1710832287119,25665.08575367881
1710832287158,25665.08575367881
1710832287198,25665.08575367881
1710832287238,23577.92366316449
1710832287278,22284.162381001748
1710832287319,21031.12236200925
1710832287358,20235.837710775435
1710832287399,19478.62266197428
1710832287439,18464.694570325315
1710832287479,17998.961767394096
1710832287520,15891.471397605259
1710832287559,15434.081449896563
1710832287599,15002.028782723006
1710832287639,14797.34063817095
1710832287679,14247.83383377269
1710832287720,13551.71960105747
1710832287760,13520.240151457489
1710832287800,13223.583443805575
1710832287840,12865.3363931356
1710832287880,12829.571201706305
1710832287920,12766.456698328257
1710832287960,12744.801170521416
1710832288000,11207.058627861086
1710832288040,5432.481230914593
1710832288080,1898.5452030310407
1710832288121,-536.35724063823
1710832288160,-3196.0946955736727
1710832288200,-5714.2163987522945
1710832288241,-7587.936222982127
1710832288281,-8824.593787318561
1710832288321,-9499.196092254482
1710832288361,-9796.802264719736
1710832288401,-9796.802264719736
1710832288441,-9796.802264719736
1710832288481,-9796.802264719736
1710832288522,-10435.390346516855
1710832288561,-11118.429488253314
1710832288601,-11507.015157877468
1710832288641,-11599.155147096142
1710832288682,-11797.799397289753
1710832288722,-11882.125534406863
1710832288762,-12131.326414669864
1710832288802,-12351.657198457047
1710832288842,-12448.152898869477
1710832288882,-12448.152898869477
1710832288923,-13291.628289315384
1710832288962,-18293.023661508225
1710832289002,-21913.093009741977
1710832289042,-24585.05312615633
1710832289082,-25005.289768052287
1710832289123,-25005.289768052287
1710832289163,-25005.289768052287
1710832289203,-25005.289768052287
1710832289243,-25005.289768052287
1710832289283,-25005.289768052287
1710832289324,-25005.289768052287
1710832289363,-25005.289768052287
1710832289403,-25005.289768052287
1710832289443,-25005.289768052287
1710832289483,-25005.289768052287
1710832289525,-23325.362419404555
1710832289564,-21078.417331146076
1710832289604,-19937.219403902534
1710832289644,-19640.831654244103
1710832289684,-19218.164715069346
1710832289725,-19163.83808079362
1710832289764,-18926.612639689818
1710832289804,-18065.94077897817
1710832289844,-17537.29325567186
1710832289884,-16999.654160099104
1710832289925,-16721.82215403486
1710832289965,-15873.120558030438
1710832290005,-15137.192156034056
1710832290045,-14637.81488710083
1710832290085,-14398.14211443998
1710832290126,-14398.14211443998
1710832290165,-14398.14211443998
1710832290205,-14398.14211443998
1710832290245,-14398.14211443998
1710832290286,-12634.166069390252
1710832290326,-10596.995255465154
1710832290366,-9902.810641881544
1710832290406,-9902.810641881544
1710832290446,-9712.63528869953
1710832290486,-9706.025395224337
1710832290527,-9706.025395224337
1710832290566,-9504.183198904153
1710832290606,-9032.261319190264
1710832290647,-8687.056551188463
1710832290687,-8644.772920332849
1710832290727,-8458.893472342519
1710832290767,-8095.318338054465
1710832290807,-7777.5208624848165
1710832290847,-7777.5208624848165
1710832290887,-7777.5208624848165
1710832290928,-7777.5208624848165
1710832290967,-7777.5208624848165
1710832291008,-7777.5208624848165
1710832291048,-8095.318338054465
1710832291088,-8458.893472342519
1710832291129,-8644.772920332849
1710832291168,-8687.056551188463
1710832291208,-8687.056551188463
1710832291249,-8687.056551188463
1710832291288,-8687.056551188463
1710832291329,-8687.056551188463
1710832291369,-8687.056551188463
1710832291409,-8687.056551188463
1710832291449,-11234.74166767369
1710832291489,-15356.102557937615
1710832291530,-18578.960796295665
1710832291569,-21288.44918606826
1710832291610,-21288.44918606826
1710832291650,-21288.44918606826
1710832291690,-21288.44918606826
1710832291731,-21288.44918606826
1710832291770,-21288.44918606826
1710832291810,-21288.44918606826
1710832291850,-21288.44918606826
1710832291890,-21288.44918606826
1710832291931,-21288.44918606826
1710832291971,-21288.44918606826
1710832292011,-19791.2206944325
1710832292051,-19150.91283262195
1710832292091,-19150.91283262195
1710832292132,-19150.91283262195
1710832292171,-19150.91283262195
1710832292212,-19150.91283262195
1710832292252,-19150.91283262195
1710832292292,-19150.91283262195
1710832292333,-19150.91283262195
1710832292372,-18380.953516263515
1710832292412,-18166.21604292281
1710832292452,-17304.135392892174
1710832292492,-16933.16683998471
1710832292535,-16933.16683998471
1710832292572,-16933.16683998471
1710832292612,-16933.16683998471
1710832292652,-16933.16683998471
1710832292692,-16933.16683998471
1710832292733,-16933.16683998471
1710832292772,-16933.16683998471
1710832292812,-16933.16683998471
1710832292852,-14715.297545832582
1710832292893,-12954.732302000746
1710832292934,-11538.410939404741
1710832292973,-10006.028696160764
1710832293013,-8081.006943313638
1710832293053,-8081.006943313638
1710832293093,-8020.557793619111
1710832293134,-7845.65286306059
1710832293174,-7321.947649456095
1710832293214,-6853.82473228313
1710832293254,-6460.780211338308
1710832293294,-6039.687222049106
1710832293335,-5853.458210105309
1710832293374,-5240.005178456195
1710832293414,-4988.102680876385
1710832293454,-4121.8821372964885
1710832293494,-3738.216407158412
1710832293535,-3738.216407158412
1710832293575,-3738.216407158412
1710832293615,-3738.216407158412
1710832293655,-3738.216407158412
1710832293695,-3738.216407158412
1710832293736,-3738.216407158412
1710832293775,-2321.2278535205405
1710832293815,-958.3236714545637
1710832293855,350.1719354353845
1710832293896,2164.759142823983
1710832293936,2992.879582697293
1710832293976,2992.879582697293
1710832294016,3294.436668272596
1710832294056,3800.7989743780345
1710832294096,4212.449131831992
1710832294137,4745.80377690075
1710832294176,4835.081389459781
1710832294216,5032.876461643726
1710832294256,5446.540998590644
1710832294296,5790.365646482678
1710832294337,6347.297782628331
1710832294377,6555.373650002992
1710832294417,7144.705800880678
1710832294457,7378.661729000974
1710832294497,7378.661729000974
1710832294538,7378.661729000974
1710832294577,7378.661729000974
1710832294617,7378.661729000974
1710832294657,8694.672413294902
1710832294697,9762.158264929662
1710832294738,10999.105824930128
1710832294777,12435.570678685093
1710832294818,13377.46767483186
1710832294858,15004.528334964998
1710832294898,16087.292910500197
1710832294939,16087.292910500197
1710832294978,16135.270060671028
1710832295018,16135.270060671028
1710832295058,16135.270060671028
1710832295098,16135.270060671028
1710832295139,16146.47041442804
1710832295178,16515.541963241063
1710832295218,16547.966477690265
1710832295258,16736.459530351683
1710832295299,16765.193362027407
1710832295340,17063.164764696732
1710832295379,17063.164764696732
1710832295419,17063.164764696732
1710832295459,17063.164764696732
1710832295499,17063.164764696732
1710832295541,17063.164764696732
1710832295580,17063.164764696732
1710832295619,17063.164764696732
1710832295660,17063.164764696732
1710832295700,17063.164764696732
1710832295740,17063.164764696732
1710832295780,17063.164764696732
1710832295820,17063.164764696732
1710832295860,17063.164764696732
1710832295900,17063.164764696732
1710832295941,17063.164764696732
1710832295980,17063.164764696732
1710832296020,16582.082568129757
1710832296061,16121.553306126501
1710832296101,14990.349191797432
1710832296142,14488.63133797329
1710832296181,14001.977560713654
1710832296221,12786.652710211463
1710832296261,12126.492223804351
1710832296301,11305.414864086313
1710832296342,10805.982866709586
1710832296382,10734.487221755553
1710832296422,10370.241708147107
1710832296462,9682.192003311822
1710832296502,8541.387312683277
1710832296543,7752.552962094545
1710832296582,7235.973530915799
1710832296622,7068.893741931999
1710832296662,7058.241381203756
1710832296702,6923.9822597720195
1710832296743,6215.381408617599
1710832296783,1111.9638248239644
1710832296823,-4150.997903398238
1710832296863,-7244.8527723965235
1710832296903,-10336.187771679834
1710832296944,-13592.01076249266
1710832296983,-16418.500075523276
1710832297023,-18023.306369837373
1710832297063,-18023.306369837373
1710832297104,-18023.306369837373
1710832297145,-18023.306369837373
1710832297184,-18023.306369837373
1710832297224,-18023.306369837373
1710832297264,-18023.306369837373
1710832297304,-18789.53810484009
1710832297345,-19278.105295197805
1710832297385,-19460.491273287684
1710832297425,-19913.276246743277
1710832297465,-19917.42688895669
1710832297505,-19928.052138837054
1710832297546,-20532.009494175436
1710832297585,-20532.009494175436
1710832297625,-20532.009494175436
1710832297665,-20532.009494175436
1710832297706,-21727.088402166963
1710832297747,-24981.917513242457
1710832297786,-28031.996945656836
1710832297826,-28031.996945656836
1710832297866,-28031.996945656836
1710832297906,-28031.996945656836
1710832297947,-28031.996945656836
1710832297987,-28031.996945656836
1710832298026,-28031.996945656836
1710832298067,-28031.996945656836
1710832298107,-28031.996945656836
1710832298148,-28031.996945656836
1710832298187,-28031.996945656836
1710832298227,-26751.308840085287
1710832298267,-24467.12050559325
1710832298307,-22876.92636164883
1710832298348,-22876.92636164883
1710832298388,-22876.92636164883
1710832298428,-22725.80466341041
1710832298468,-22721.09196449467
1710832298508,-21427.4229961494
1710832298550,-21306.70605773013
1710832298588,-20542.099296086235
1710832298628,-20214.65997938672
1710832298668,-20032.342940373812
1710832298709,-17938.887398908846
1710832298749,-17839.517057066318
1710832298789,-17498.963510761037
1710832298829,-15673.921635970008
1710832298869,-15673.921635970008
1710832298909,-15673.921635970008
1710832298950,-15673.921635970008
1710832298989,-15673.921635970008
1710832299030,-13182.538963343482
1710832299070,-10859.792583818547
1710832299110,-8115.259423231706
1710832299151,-6210.414017944131
1710832299190,-4740.78177306056
1710832299230,-4554.344155648723
1710832299270,-4411.80423702253
1710832299311,-4117.456434896216
1710832299351,-4053.150381139014
1710832299391,-3874.1569315080997
1710832299431,-3576.441205509007
1710832299471,-3478.1679748068564
1710832299511,-2975.4297673597466
1710832299552,-2603.13192253164
1710832299592,-1743.0315134418197
1710832299632,-1008.0468792112079
1710832299672,-1008.0468792112079
1710832299712,-1008.0468792112079
1710832299753,-1008.0468792112079
1710832299792,-1008.0468792112079
1710832299832,-1333.4829861228354
1710832299872,-1333.4829861228354
1710832299912,-1333.4829861228354
1710832299953,-1333.4829861228354
1710832299992,-1333.4829861228354
1710832300033,-1333.4829861228354
1710832300073,-1333.4829861228354
1710832300113,-1333.4829861228354
1710832300154,-1333.4829861228354
1710832300193,-1333.4829861228354
1710832300233,-1333.4829861228354
1710832300273,-4567.687952239299
1710832300313,-5875.751199220307
1710832300354,-5875.751199220307
1710832300394,-5875.751199220307
1710832300434,-5875.751199220307
1710832300474,-5875.751199220307
1710832300514,-5875.751199220307
1710832300555,-5875.751199220307
1710832300594,-5875.751199220307
1710832300634,-5875.751199220307
1710832300674,-5875.751199220307
1710832300714,-5875.751199220307
1710832300755,-5340.049160873983
1710832300794,-5340.049160873983
1710832300834,-5340.049160873983
1710832300875,-5340.049160873983
1710832300915,-5340.049160873983
1710832300956,-5340.049160873983
1710832300995,-5340.049160873983
1710832301035,-5340.049160873983
1710832301075,-5340.049160873983
1710832301115,-4773.999369224766
1710832301156,-4475.576613893267
1710832301195,-3503.7369233372156
1710832301236,-3503.7369233372156
1710832301276,-3503.7369233372156
1710832301316,-3503.7369233372156
1710832301357,-3503.7369233372156
1710832301396,-3503.7369233372156
1710832301436,-3503.7369233372156
1710832301476,-3503.7369233372156
1710832301516,-3503.7369233372156
1710832301558,-3503.7369233372156
1710832301597,-2593.1643163021654
1710832301636,-374.9804254625924
1710832301677,1048.593855177518
1710832301717,2459.525049797725
1710832301758,2459.525049797725
1710832301797,2459.525049797725
1710832301837,2459.525049797725
1710832301877,2459.525049797725
1710832301917,2459.525049797725
1710832301958,2459.525049797725
1710832301997,2459.525049797725
1710832302037,2459.525049797725
1710832302078,2459.525049797725
1710832302118,2459.525049797725
1710832302159,1706.9618105310947
1710832302198,1706.9618105310947
1710832302238,1706.9618105310947
1710832302278,1706.9618105310947
1710832302318,1706.9618105310947
1710832302359,1706.9618105310947
1710832302399,1706.9618105310947
1710832302439,1706.9618105310947
1710832302479,1706.9618105310947
1710832302519,1706.9618105310947
1710832302560,1706.9618105310947
1710832302599,2528.8574494104832
1710832302639,3746.0804755601566
1710832302679,5122.62481020391
1710832302719,5904.479995672125
1710832302760,6727.325615680544
1710832302800,6796.715973940212
1710832302840,6912.70741874096
1710832302880,6944.8423199297395
1710832302920,7043.168986289762
1710832302961,7367.015070697293
1710832303000,7815.3866881036665
1710832303040,8191.749265108723
1710832303080,8455.497810394038
1710832303120,9954.303433476016
1710832303161,10153.98179880809
1710832303201,11031.418500780594
1710832303241,11074.413692321396
1710832303281,11074.413692321396
1710832303321,11710.174493978731
1710832303362,13157.69200067548
1710832303401,14431.997616827954
1710832303441,16467.054886469617
1710832303481,17978.806484845467
1710832303522,19621.92794767418
1710832303562,20613.126054604538
1710832303602,20616.93512377236
1710832303642,20679.485085659195
1710832303682,20954.215752359014
1710832303722,21102.701921282103
1710832303763,21870.176376986317
1710832303802,22097.712468515616
1710832303842,22664.458526256494
1710832303883,22748.6666272562
1710832303923,22906.823842808604
1710832303964,23313.804491885472
1710832304003,23557.44594413857
1710832304043,24416.93180179526
1710832304083,24416.93180179526
1710832304123,24416.93180179526
1710832304164,24416.93180179526
1710832304204,24416.93180179526
1710832304244,25862.385150688002
1710832304284,25862.385150688002
1710832304324,25862.385150688002
1710832304365,25862.385150688002
1710832304404,25862.385150688002
1710832304444,25862.385150688002
1710832304485,25862.385150688002
1710832304525,25862.385150688002
1710832304567,25862.385150688002
1710832304605,25862.385150688002
1710832304645,25862.385150688002
1710832304685,24953.08059850172
1710832304726,23792.784319848288
1710832304766,22106.035960711073
1710832304806,20673.84182063071
1710832304846,19502.958734523738
1710832304886,18233.311975407647
1710832304926,16252.777365492657
1710832304967,14928.549640077865
1710832305006,14111.053651191527
1710832305046,13128.553260687273
1710832305087,11971.125731366454
1710832305127,11002.421417703852
1710832305168,9525.4001077367
1710832305207,8824.113388181897
1710832305247,8269.996538595064
1710832305287,8147.828530548839
1710832305328,7908.423640184104
1710832305368,7779.2878415212035
1710832305408,5722.315255780704
1710832305448,2494.165459420299
1710832305488,674.8124693161808
1710832305528,-1484.0959811408538
1710832305569,-3470.5066406028345
1710832305608,-5493.404311800841
1710832305649,-5493.404311800841
1710832305689,-5493.404311800841
1710832305729,-5493.404311800841
1710832305770,-5493.404311800841
1710832305809,-5493.404311800841
1710832305849,-5493.404311800841
1710832305890,-5493.404311800841
1710832305930,-5493.404311800841
1710832305970,-5493.404311800841
1710832306010,-5493.404311800841
1710832306050,-4498.609706604388
1710832306090,-3737.711632290855
1710832306130,999.5481355641969
1710832306171,4143.838226597756
1710832306210,8839.691513546975
1710832306250,10950.732855558163
1710832306291,11182.509571111295
1710832306331,11765.262650735676
1710832306371,12737.974081140012
1710832306411,12783.670799738728
1710832306451,12933.347100060666
1710832306491,13702.165213259403
1710832306531,14042.883067171555
1710832306572,14977.512811425608
1710832306611,15074.958148388658
1710832306651,15099.89002007898
1710832306691,15141.521382416831
1710832306731,15778.443601277191
1710832306772,15778.443601277191
1710832306812,15778.443601277191
1710832306852,15778.443601277191
1710832306892,15778.443601277191
1710832306932,15778.443601277191
1710832306973,15778.443601277191
1710832307012,15778.443601277191
1710832307052,15778.443601277191
1710832307092,15778.443601277191
1710832307132,15778.443601277191
1710832307173,14611.850192877464
1710832307212,12628.338398443535
1710832307253,11271.52515372727
1710832307293,10617.155149900354
1710832307333,8917.640083833598
1710832307374,7632.975562067702
1710832307413,6152.60943657672
1710832307453,5385.334125936963
1710832307493,3787.6851058639586
1710832307533,3248.280378858559
1710832307575,2038.7149745384231
1710832307614,1379.7210695198737
1710832307653,682.6903690374456
1710832307694,-318.3972495277412
1710832307734,-326.1237377692014
1710832307775,-376.18655381770805
1710832307814,-431.123119357042
1710832307854,-1219.1482277605683
1710832307894,-4182.7091830587015
1710832307934,-7005.461222843267
1710832307975,-7437.505350950174
1710832308015,-8220.842076281551
1710832308055,-9659.726450796239
1710832308095,-9744.016032736748
1710832308135,-9820.06261234777
1710832308176,-10497.798136744648
1710832308215,-10967.729394083377
1710832308255,-12362.14555558702
1710832308295,-13030.877209319733
1710832308336,-13238.816978627816
1710832308376,-13291.057868966367
1710832308416,-14182.501090134494
1710832308456,-14497.138968969695
1710832308496,-14942.641571502667
1710832308536,-15298.176845466718
1710832308577,-15782.071414832957
1710832308616,-16184.39422783209
1710832308656,-16508.738113189116
1710832308697,-16660.421131922863
1710832308737,-16660.421131922863
1710832308778,-16660.421131922863
1710832308817,-16660.421131922863
1710832308857,-16660.421131922863
1710832308897,-16508.738113189116
1710832308938,-16396.85926369857
1710832308978,-16184.39422783209
1710832309018,-15298.176845466718
1710832309058,-15298.176845466718
1710832309098,-15298.176845466718
1710832309138,-15298.176845466718
1710832309179,-14573.630209606374
1710832309218,-11935.230029701255
1710832309258,-11935.230029701255
1710832309298,-11425.177472133655
1710832309339,-10901.296947108582
1710832309379,-10719.530944310827
1710832309419,-10532.333748248406
1710832309459,-10493.884053698042
1710832309499,-10364.43449638458
1710832309539,-10277.679250530899
1710832309580,-9664.15057715145
1710832309619,-9476.329576891148
1710832309660,-9303.314428849146
1710832309700,-9270.98225281993
1710832309740,-9270.98225281993
1710832309781,-9270.98225281993
1710832309820,-9270.98225281993
1710832309860,-9270.98225281993
1710832309900,-9270.98225281993
1710832309940,-9270.98225281993
1710832309981,-8904.870922080241
1710832310021,-8576.652096000966
1710832310061,-8108.348075025715
1710832310101,-7838.358221957926
1710832310141,-7773.473712821957
1710832310182,-7628.973100090399
1710832310221,-7420.9226628076285
1710832310262,-6855.963259124197
1710832310302,-6328.995226854924
1710832310342,-6086.401785909198
1710832310383,-5767.659166029887
1710832310422,-5153.306051477324
1710832310462,-5021.777134892764
1710832310503,-4118.476082320092
1710832310543,-4070.0484791679773
1710832310585,-3673.5958428559825
1710832310623,-3372.6923442529514
1710832310663,-2128.839181772899
1710832310703,-1129.2026293994859
1710832310743,-676.185003427323
1710832310784,273.64774216269143
1710832310824,747.8327409867197
1710832310864,1833.0273892390542
1710832310904,2580.47040211875
1710832310944,2600.8993262052536
1710832310985,2673.863209146075
1710832311024,3108.8772974838503
1710832311064,3441.641502223909
1710832311105,3564.6161012721714
1710832311145,4556.628837137017
1710832311186,4856.489669799339
1710832311225,5454.519233487779
1710832311265,5635.802133774385
1710832311305,5926.390237828717
1710832311345,6079.288653590484
1710832311386,6454.973189093871
1710832311426,7398.368569931248
1710832311466,7747.035187316826
1710832311506,8593.119659786578
1710832311546,9389.032611821312
1710832311587,9583.468004467431
1710832311626,10620.92135550268
1710832311667,11465.971918139607
1710832311707,12364.469605659833
1710832311747,12577.485019539483
1710832311788,13137.180477825692
1710832311827,14205.48843943188
1710832311868,14686.81831155857
1710832311908,15537.728430767544
1710832311948,15573.815767477732
1710832311989,19833.9862363087
1710832312028,24684.52788896649
1710832312068,29696.319880808704
1710832312108,33457.157037125435
1710832312149,36792.60869623697
1710832312189,38690.998681132216
1710832312229,44201.52778751403
1710832312269,46230.01100621279
1710832312309,46230.01100621279
1710832312349,46230.01100621279
1710832312390,46230.01100621279
1710832312429,46230.01100621279
1710832312469,46230.01100621279
1710832312509,46230.01100621279
1710832312549,46230.01100621279
1710832312590,46230.01100621279
1710832312630,46230.01100621279
1710832312670,46230.01100621279
1710832312710,42109.52127000457
1710832312750,39738.42556513008
1710832312791,36604.07343912963
1710832312830,33795.26664288016
1710832312870,30141.579474659637
1710832312910,28154.99150571879
1710832312950,26228.78970813891
1710832312991,22431.261022648774
1710832313031,21899.32310531242
1710832313071,21687.001069621183
1710832313111,19151.025304263458
1710832313151,15717.294329535216
1710832313192,13924.992104247212
1710832313231,12882.709395227022
1710832313271,12764.368414131925
1710832313311,12004.074601287954
1710832313352,11217.629676480778
1710832313392,9979.670670944732
1710832313432,7824.143742884044
1710832313472,6222.376991576515
1710832313512,6222.376991576515
1710832313552,6222.376991576515
1710832313594,6222.376991576515
1710832313632,6222.376991576515
1710832313672,6222.376991576515
1710832313712,6222.376991576515
1710832313753,6222.376991576515
1710832313793,6222.376991576515
1710832313833,6222.376991576515
1710832313873,6222.376991576515
1710832313913,7381.82871178817
1710832313953,7381.82871178817
1710832313994,7381.82871178817
1710832314033,7381.82871178817
1710832314073,7381.82871178817
1710832314113,7381.82871178817
1710832314153,7381.82871178817
1710832314194,7381.82871178817
1710832314234,7381.82871178817
1710832314274,7381.82871178817
1710832314314,7381.82871178817
1710832314354,6087.697446580045
1710832314395,4856.149349181913
1710832314434,4320.68994065607
1710832314474,1262.049821015913
1710832314514,-2342.8590483861044
1710832314555,-5958.430561653804
1710832314596,-7032.958575079218
1710832314635,-7730.585913299583
1710832314675,-9494.028511448298
1710832314715,-10698.1492262627
1710832314755,-12027.98999229353
1710832314796,-13187.421731205657
1710832314836,-14276.73221633304
1710832314875,-15080.898987235036
1710832314916,-16188.680700690486
1710832314956,-16894.122024149634
1710832314997,-16907.88797232276
1710832315036,-17526.399070044048
1710832315076,-18310.061895167455
1710832315116,-18506.578176512383
1710832315156,-20385.44735542219
1710832315197,-25793.118083450012
1710832315237,-30100.95913991984
1710832315277,-32571.060445822775
1710832315317,-35227.27429247601
1710832315357,-37160.964552739635
1710832315398,-37160.964552739635
1710832315437,-37160.964552739635
1710832315477,-37160.964552739635
1710832315517,-37160.964552739635
1710832315558,-37160.964552739635
1710832315598,-37160.964552739635
1710832315638,-38846.15766253788
1710832315678,-39684.95782890171
1710832315718,-40176.79723843699
1710832315758,-40713.38767495891
1710832315799,-41049.88346405374
1710832315839,-41334.7415568186
1710832315879,-41806.07602415141
1710832315919,-42510.96890725335
1710832315959,-42510.96890725335
1710832316000,-42510.96890725335
1710832316039,-42510.96890725335
1710832316079,-42719.69990366697
1710832316120,-44222.25904484
1710832316160,-44222.25904484
1710832316201,-44222.25904484
1710832316240,-44222.25904484
1710832316280,-44222.25904484
1710832316320,-44222.25904484
1710832316360,-44222.25904484
1710832316401,-44222.25904484
1710832316441,-44222.25904484
1710832316481,-44222.25904484
1710832316521,-44964.76809456153
1710832316561,-45631.59322984889
1710832316603,-45828.515343498904
1710832316642,-45828.515343498904
1710832316682,-45828.515343498904
1710832316722,-45828.515343498904
1710832316763,-45828.515343498904
1710832316803,-45828.515343498904
1710832316843,-45828.515343498904
1710832316883,-44964.76809456153
1710832316923,-43289.20419341372
1710832316963,-41223.064479032066
1710832317004,-41091.27849646518
1710832317043,-39899.821549911285
1710832317084,-39899.821549911285
1710832317124,-39899.821549911285
1710832317164,-39899.821549911285
1710832317205,-39899.821549911285
1710832317244,-39899.821549911285
1710832317284,-39899.821549911285
1710832317324,-37324.152490740176
1710832317365,-33860.20818056259
1710832317406,-29980.600301472703
1710832317445,-26674.184168613516
1710832317485,-23530.916239326587
1710832317525,-19147.304282612866
1710832317565,-13705.205627796473
1710832317606,-10503.957667739596
1710832317646,-10331.382148128469
1710832317686,-10004.32940999465
1710832317726,-9176.851714271586
1710832317766,-8859.22906700871
1710832317807,-7352.7869263035245
1710832317846,-7101.484383761883
1710832317887,-7066.180218234891
1710832317927,-6524.315836037975
1710832317967,-5900.029656094499
1710832318008,-5226.519782352261
1710832318047,-4915.39057383989
1710832318087,-4915.39057383989
1710832318128,-4915.39057383989
1710832318168,-4915.39057383989
1710832318209,-3327.3416393445805
1710832318248,1370.2475501424633
1710832318288,7025.850998786744
1710832318328,11145.688464852516
1710832318368,11145.688464852516
1710832318409,11371.469477520557
1710832318448,11563.997536186827
1710832318488,11665.503325397382
1710832318529,11702.35185578093
1710832318569,11840.201643731678
1710832318609,11898.040331644472
1710832318649,12161.65438135434
1710832318689,12294.61462436174
1710832318729,12294.61462436174
1710832318769,12161.65438135434
1710832318810,11898.040331644472
1710832318849,11840.201643731678
1710832318889,11702.35185578093
1710832318930,11702.35185578093
1710832318970,11665.503325397382
1710832319010,11563.997536186827
1710832319050,11371.469477520557
1710832319090,10767.487595456187
1710832319130,9752.007248126902
1710832319170,5054.464482562384
1710832319211,3396.4523252851795
1710832319250,3396.4523252851795
1710832319291,3396.4523252851795
1710832319331,3396.4523252851795
1710832319371,3396.4523252851795
1710832319412,3396.4523252851795
1710832319451,3396.4523252851795
1710832319491,3199.9786749179475
1710832319531,2004.4632768814918
1710832319571,1689.1778714321554
1710832319613,1629.9731182977557
1710832319652,383.29098123149015
1710832319692,-115.76859548757784
1710832319732,-909.0359590100124
1710832319772,166.06365813151933
1710832319813,383.29098123149015
1710832319852,1629.9731182977557
1710832319892,1689.1778714321554
1710832319932,1781.221296884818
1710832319972,3396.4523252851795
1710832320013,3608.5051853568293
1710832320052,4880.722224507248
1710832320093,5730.987814336084
1710832320133,5880.408731078729
1710832320173,5880.408731078729
1710832320214,3646.5661927214824
1710832320253,3608.5051853568293
1710832320293,1781.221296884818
1710832320333,1781.221296884818
1710832320374,1781.221296884818
1710832320414,1781.221296884818
1710832320454,1781.221296884818
1710832320494,1781.221296884818
1710832320534,1781.221296884818
1710832320574,1781.221296884818
1710832320615,1781.221296884818
1710832320654,326.53452781098895
1710832320694,-576.2425269172527
1710832320734,-576.2425269172527
1710832320774,-576.2425269172527
1710832320815,-576.2425269172527
1710832320855,-576.2425269172527
1710832320895,-576.2425269172527
1710832320935,-576.2425269172527
1710832320975,-576.2425269172527
1710832321016,-576.2425269172527
1710832321055,-576.2425269172527
1710832321095,-576.2425269172527
1710832321135,877.298537864117
1710832321175,3555.052033143118
1710832321216,5943.504195362562
1710832321256,8274.70332190278
1710832321296,8360.781264571473
1710832321336,8401.268844726495
1710832321376,8415.594720901689
1710832321417,8907.298610834405
1710832321456,8966.018292160239
1710832321496,9473.544247000478
1710832321536,10455.416675291955
1710832321577,10523.521263515577
1710832321617,10749.67482854845
1710832321657,11689.917684441432
1710832321697,12918.971343557816
1710832321737,13973.975069556385
1710832321777,13973.975069556385
1710832321818,13973.975069556385
1710832321857,13973.975069556385
1710832321897,13973.975069556385
1710832321938,13973.975069556385
1710832321978,13973.975069556385
1710832322018,13973.975069556385
1710832322058,13973.975069556385
1710832322098,13973.975069556385
1710832322138,13973.975069556385
1710832322178,13604.180357981008
1710832322219,12808.770448508672
1710832322258,12801.84063771693
1710832322299,12801.84063771693
1710832322339,12801.84063771693
1710832322379,12801.84063771693
1710832322420,12329.298180719372
1710832322459,12285.292665458284
1710832322499,12116.443919718731
1710832322539,12109.082559307339
1710832322579,11925.795068078209
1710832322621,11821.542659559287
1710832322660,11701.4653797145
1710832322700,11701.4653797145
1710832322740,11701.4653797145
1710832322780,11701.4653797145
1710832322821,10144.404441902414
1710832322860,7218.330589806661
1710832322900,4957.190293057822
1710832322940,4715.799810039345
1710832322980,4715.799810039345
1710832323021,4715.799810039345
1710832323061,4715.799810039345
1710832323101,4715.799810039345
1710832323141,4715.799810039345
1710832323181,4715.799810039345
1710832323222,4715.799810039345
1710832323262,4715.799810039345
1710832323302,4224.135232760105
1710832323342,3897.0133352689445
1710832323382,3897.0133352689445
1710832323423,3897.0133352689445
1710832323462,3897.0133352689445
1710832323502,3897.0133352689445
1710832323542,3897.0133352689445
1710832323582,3897.0133352689445
1710832323623,4224.135232760105
1710832323663,4715.799810039345
1710832323703,5186.296778503107
1710832323746,5542.594399777707
1710832323783,5738.621281242231
1710832323824,6512.578934425954
1710832323864,6557.803136439994
1710832323904,6557.803136439994
1710832323944,6557.803136439994
1710832323984,6557.803136439994
1710832324025,6557.803136439994
1710832324064,6557.803136439994
1710832324104,7916.004873035941
1710832324145,9075.862832794897
1710832324185,10196.74723318452
1710832324226,10593.59234298626
1710832324265,10934.119335802738
1710832324305,12324.300308644539
1710832324345,13013.573183425236
1710832324386,13120.725390155334
1710832324426,13120.725390155334
1710832324466,13120.725390155334
1710832324506,13120.725390155334
1710832324546,13120.725390155334
1710832324586,13120.725390155334
1710832324627,13120.725390155334
1710832324666,13120.725390155334
1710832324706,13120.725390155334
1710832324746,13120.725390155334
1710832324786,13120.725390155334
1710832324827,13101.670863606269
1710832324867,12873.242565045366
1710832324907,12873.242565045366
1710832324947,12873.242565045366
1710832324987,12873.242565045366
1710832325028,12873.242565045366
1710832325067,12873.242565045366
1710832325107,12873.242565045366
1710832325147,12873.242565045366
1710832325188,12873.242565045366
1710832325228,12873.242565045366
1710832325268,12522.178471809719
1710832325308,12428.940380586544
1710832325348,12326.260330555495
1710832325388,12310.501287267078
1710832325429,12029.20236662589
1710832325468,12029.20236662589
1710832325508,12029.20236662589
1710832325548,12029.20236662589
1710832325588,12029.20236662589
1710832325630,12029.20236662589
1710832325669,12029.20236662589
1710832325709,10755.710982573684
1710832325749,9643.51785899233
1710832325789,8290.516106336145
1710832325829,7495.28506762255
1710832325869,7056.114118424244
1710832325909,7056.114118424244
1710832325952,7056.114118424244
1710832325989,7056.114118424244
1710832326030,7056.114118424244
1710832326069,7056.114118424244
1710832326109,7056.114118424244
1710832326150,7046.09855147358
1710832326190,6615.3755325586535
1710832326231,6475.693957362324
1710832326270,5942.65384577075
1710832326310,5589.841937645804
1710832326350,5296.449103002902
1710832326390,5295.093214071589
1710832326431,5062.367971930187
1710832326470,5062.367971930187
1710832326511,5062.367971930187
1710832326551,4992.1256436230615
1710832326591,4825.515717248432
1710832326632,3771.9600181514397
1710832326671,2643.3222854444757
1710832326711,1626.3969076550566
1710832326751,796.5928987124935
1710832326791,660.3629219844006
1710832326832,376.9591965470463
1710832326872,275.6683998350054
1710832326911,275.6683998350054
1710832326952,275.6683998350054
1710832326992,271.4782708454877
1710832327032,214.27699068095535
1710832327072,180.9341530855745
1710832327112,-97.87642142502591
1710832327152,-471.4724108548835
1710832327192,-690.8862187368795
1710832327233,-726.3442800836638
1710832327272,-947.383573803585
1710832327313,-1144.8200336890295
1710832327353,-1144.8200336890295
1710832327393,-1367.1540165776387
1710832327434,-4477.8271478759125
1710832327473,-7322.813016737346
1710832327513,-9481.994349066168
1710832327553,-11725.485426693223
1710832327593,-13996.72057837667
1710832327634,-13996.72057837667
1710832327674,-13996.72057837667
1710832327714,-13996.72057837667
1710832327754,-13996.72057837667
1710832327794,-13996.72057837667
1710832327835,-13996.72057837667
1710832327874,-13996.72057837667
1710832327914,-13996.72057837667
1710832327955,-13996.72057837667
1710832327995,-13996.72057837667
1710832328035,-15211.163177523762
1710832328075,-15211.163177523762
1710832328115,-15211.163177523762
1710832328158,-15211.163177523762
1710832328195,-15211.163177523762
1710832328236,-15211.163177523762
1710832328275,-15211.163177523762
1710832328316,-15211.163177523762
1710832328355,-15211.163177523762
1710832328396,-15211.163177523762
1710832328437,-15227.947253686376
1710832328476,-16659.22026539035
1710832328516,-17000.714673456037
1710832328556,-17000.714673456037
1710832328596,-17000.714673456037
1710832328639,-17000.714673456037
1710832328675,-17000.714673456037
1710832328715,-17000.714673456037
1710832328755,-17000.714673456037
1710832328795,-17000.714673456037
1710832328836,-17000.714673456037
1710832328875,-17000.714673456037
1710832328915,-17000.714673456037
1710832328955,-16320.0904940248
1710832328995,-15047.464691021945
1710832329036,-15047.464691021945
1710832329076,-15047.464691021945
1710832329116,-15047.464691021945
1710832329156,-15047.464691021945
1710832329196,-15047.464691021945
1710832329237,-14761.12041842658
1710832329276,-14240.128886283375
1710832329316,-13916.776873380411
1710832329357,-13672.395301415352
1710832329397,-12809.835263166577
1710832329438,-12625.206807679264
1710832329477,-12351.362403796054
1710832329517,-11486.146425818093
1710832329557,-11468.404159433441
1710832329597,-11468.404159433441
1710832329638,-11468.404159433441
1710832329678,-11468.404159433441
1710832329718,-11468.404159433441
1710832329758,-9983.862092406489
1710832329798,-8186.119154015556
1710832329839,-6243.139242371079
1710832329878,-4305.399824065855
1710832329918,-2422.372884090524
1710832329959,55.655414721462876
1710832329999,2456.35297751287
1710832330040,3146.344485900132
1710832330079,3690.866225671023
1710832330119,3793.213888418395
1710832330159,3805.8170535836834
1710832330199,3975.007008818211
1710832330240,3979.9637125094887
1710832330280,4021.8486080623697
1710832330320,4045.716630034847
1710832330360,4458.457165433327
1710832330400,4736.685560990591
1710832330441,4760.756090592826
1710832330481,4776.62193819182
1710832330521,4776.62193819182
1710832330561,4776.62193819182
1710832330601,4760.756090592826
1710832330642,4736.685560990591
1710832330681,4045.716630034847
1710832330722,4045.716630034847
1710832330762,4021.8486080623697
1710832330802,4021.8486080623697
1710832330843,4021.8486080623697
1710832330882,3975.007008818211
1710832330922,3975.007008818211
1710832330962,3975.007008818211
1710832331002,2547.5226567860227
1710832331043,862.566535863094
1710832331083,-819.8308956830297
1710832331123,-1940.2981910980307
1710832331163,-1940.2981910980307
1710832331203,-1940.2981910980307
1710832331243,-1940.2981910980307
1710832331283,-1940.2981910980307
1710832331323,-2219.973062509671
1710832331363,-2272.1304695010185
1710832331403,-2600.5612869497854
1710832331444,-3771.9760530903004
1710832331483,-3998.8280508783646
1710832331523,-4593.745349552948
1710832331564,-5173.516047762241
1710832331604,-5304.280276742298
1710832331646,-5706.512030259008
1710832331684,-5758.030530081131
1710832331724,-5758.030530081131
1710832331764,-5852.6468231917825
1710832331804,-8108.008439810015
1710832331845,-10204.328645362752
1710832331884,-13332.430325933732
1710832331925,-13460.022554146592
1710832331965,-13460.022554146592
1710832332005,-13460.022554146592
1710832332046,-13460.022554146592
1710832332085,-13460.022554146592
1710832332125,-13460.022554146592
1710832332165,-13881.803430675995
1710832332205,-13940.224416770507
1710832332246,-13999.160748877563
1710832332285,-14631.257557732053
1710832332325,-14992.410391198238
1710832332366,-15095.651935974602
1710832332406,-15095.651935974602
1710832332446,-15095.651935974602
1710832332486,-15095.651935974602
1710832332526,-15095.651935974602
1710832332566,-15095.651935974602
1710832332606,-15056.399045846425
1710832332647,-15056.399045846425
1710832332686,-15056.399045846425
1710832332726,-15056.399045846425
1710832332767,-15056.399045846425
1710832332807,-15056.399045846425
1710832332847,-15056.399045846425
1710832332887,-15056.399045846425
1710832332927,-15056.399045846425
1710832332967,-15056.399045846425
1710832333007,-15056.399045846425
1710832333048,-13118.186450554524
1710832333087,-12189.417569083162
1710832333128,-10887.535118072527
1710832333168,-8823.363093079068
1710832333208,-7174.432249046862
1710832333249,-6757.387111011194
1710832333288,-6627.198105585761
1710832333328,-6179.039499847451
1710832333368,-5988.691399869509
1710832333408,-5876.83014425775
1710832333449,-5537.749321849085
1710832333489,-4832.265687193256
1710832333529,-4570.426495097112
1710832333569,-4094.5786841460504
1710832333609,-3961.621872517746
1710832333649,-3442.837115628645
1710832333689,-3034.7347053810954
1710832333729,-2841.7233009180054
1710832333769,-2841.7233009180054
1710832333809,-2841.7233009180054
1710832333850,-2841.7233009180054
1710832333889,-2294.431896007154
1710832333930,-1251.1747495452873
1710832333970,343.70103263342753
1710832334010,1598.307637871243
1710832334050,3288.983878006693
1710832334090,4862.775129233021
1710832334130,6988.195537858177
1710832334170,9829.318428116385
1710832334210,12257.297249341616
1710832334251,14167.944495202508
1710832334290,14481.73544164258
1710832334331,14701.72062843619
1710832334371,14727.294733248185
1710832334411,14803.187888137763
1710832334452,14846.46207399061
1710832334491,15861.337046127068
1710832334531,16275.554516447242
1710832334571,17375.634684186894
1710832334611,17399.917585524032
1710832334654,18543.8887669337
1710832334692,19408.005490490235
1710832334732,19955.443413574714
1710832334772,20987.88413407281
1710832334812,22037.576122995466
1710832334853,23024.49744429253
1710832334892,23345.578787414357
1710832334932,23345.578787414357
1710832334972,23345.578787414357
1710832335012,23345.578787414357
1710832335053,23345.578787414357
1710832335093,23345.578787414357
1710832335133,23345.578787414357
1710832335173,23345.578787414357
1710832335213,23345.578787414357
1710832335254,23345.578787414357
1710832335294,23345.578787414357
1710832335333,23090.474011186976
1710832335374,22983.517589292955
1710832335414,22966.887763918843
1710832335454,22846.421876851935
1710832335494,22613.49453796423
1710832335534,22597.55695169652
1710832335574,21913.07828622125
1710832335614,21885.638187355828
1710832335655,21880.553817999316
1710832335695,21825.18984710914
1710832335734,21629.17289435398
1710832335775,21434.04459071136
1710832335815,21402.583481009817
1710832335856,21291.702429778175
1710832335895,21279.18706814875
1710832335935,20858.193966004765
1710832335975,18245.43378662225
1710832336016,15653.868197672069
1710832336056,14042.277727673762
1710832336096,11697.393887499813
1710832336136,10185.558514419012
1710832336176,8196.45569756208
1710832336216,7317.818905920256
1710832336257,7317.818905920256
1710832336296,7317.818905920256
1710832336336,7317.818905920256
1710832336376,7317.818905920256
1710832336416,7317.818905920256
1710832336457,7317.818905920256
1710832336497,7317.818905920256
1710832336537,7055.940746836364
1710832336577,7041.419042577501
1710832336617,6980.719382383395
1710832336658,6453.167969586793
1710832336697,6453.167969586793
1710832336738,6453.167969586793
1710832336778,6307.967695846222
1710832336818,6307.967695846222
1710832336859,6307.967695846222
1710832336898,6307.967695846222
1710832336938,6307.967695846222
1710832336979,6228.51801162865
1710832337018,5538.3487610323355
1710832337059,4807.004018436419
1710832337099,4774.938681575004
1710832337139,4316.156190582085
1710832337179,4316.156190582085
1710832337219,4316.156190582085
1710832337260,4316.156190582085
1710832337299,4316.156190582085
1710832337340,4316.156190582085
1710832337380,4316.156190582085
1710832337420,4316.156190582085
1710832337461,4302.728988354094
1710832337500,4177.262407866539
1710832337540,3966.1773088537157
1710832337581,3618.4529950092547
1710832337620,3541.528598809149
1710832337663,3206.9351377100684
1710832337701,3181.7311369422823
1710832337741,3181.7311369422823
1710832337781,3181.7311369422823
1710832337821,3181.7311369422823
1710832337862,1573.219138068147
1710832337901,318.2072437289171
1710832337941,318.2072437289171
1710832337981,318.2072437289171
1710832338021,318.2072437289171
1710832338062,318.2072437289171
1710832338101,318.2072437289171
1710832338141,318.2072437289171
1710832338182,318.2072437289171
1710832338222,318.2072437289171
1710832338262,318.2072437289171
1710832338302,318.2072437289171
1710832338342,1616.5390510912985
1710832338382,2777.7721291910857
1710832338422,3634.47205469897
1710832338463,3649.5452719675377
1710832338502,3649.5452719675377
1710832338543,3649.5452719675377
1710832338583,3649.5452719675377
1710832338623,3649.5452719675377
1710832338664,3649.5452719675377
1710832338703,3649.5452719675377
1710832338743,3649.5452719675377
1710832338783,3649.5452719675377
1710832338823,3649.5452719675377
1710832338864,3649.5452719675377
1710832338904,2840.567758801859
1710832338943,2840.567758801859
1710832338984,2840.567758801859
1710832339024,2840.567758801859
1710832339064,2840.567758801859
1710832339104,2840.567758801859
1710832339144,2840.567758801859
1710832339184,2383.197944233194
1710832339224,2185.821843446698
1710832339265,1475.7877686498687
1710832339304,1313.2596115740016
1710832339344,1041.359278941527
1710832339385,547.4763913275674
1710832339425,547.4763913275674
1710832339465,547.4763913275674
1710832339505,547.4763913275674
1710832339545,547.4763913275674
1710832339585,547.4763913275674
1710832339625,-2410.219585996121
1710832339666,-4921.701915890444
1710832339705,-7677.61260609515
1710832339746,-10049.968880360946
1710832339786,-11008.182218539994
1710832339826,-11008.182218539994
1710832339867,-11008.182218539994
1710832339906,-11008.182218539994
1710832339946,-11008.182218539994
1710832339986,-11008.182218539994
1710832340026,-11422.108984987251
1710832340067,-11476.398266206961
1710832340107,-12112.892930645496
1710832340146,-12284.394877444021
1710832340187,-12396.021163031459
1710832340227,-12945.233217701782
1710832340268,-12949.540382782929
1710832340307,-12949.540382782929
1710832340347,-12949.540382782929
1710832340387,-12949.540382782929
1710832340427,-12949.540382782929
1710832340468,-16959.832672832068
1710832340508,-19055.935568147805
1710832340548,-20800.96875491715
1710832340588,-22912.99186886754
1710832340628,-22912.99186886754
1710832340670,-22912.99186886754
1710832340712,-22912.99186886754
1710832340752,-22912.99186886754
1710832340792,-22912.99186886754
1710832340833,-22912.99186886754
1710832340873,-22912.99186886754
1710832340913,-22912.99186886754
1710832340953,-22912.99186886754
1710832340993,-22912.99186886754
1710832341033,-22792.18914978206
1710832341074,-22792.18914978206
1710832341113,-22792.18914978206
1710832341153,-22792.18914978206
1710832341194,-22792.18914978206
1710832341234,-22792.18914978206
1710832341275,-22792.18914978206
1710832341314,-22792.18914978206
1710832341354,-21905.666457884014
1710832341394,-21697.777468938613
1710832341434,-21527.10400656797
1710832341475,-20504.329831439536
1710832341514,-20504.329831439536
1710832341555,-20504.329831439536
1710832341595,-20504.329831439536
1710832341635,-20504.329831439536
1710832341676,-20504.329831439536
1710832341715,-20504.329831439536
1710832341755,-20504.329831439536
1710832341795,-20504.329831439536
1710832341835,-19769.785643938463
1710832341876,-19769.785643938463
1710832341916,-19769.785643938463
1710832341956,-19769.785643938463
1710832341996,-19702.850492738187
1710832342036,-18869.96032990911
1710832342077,-18585.39293739572
1710832342116,-18525.831732661463
1710832342156,-18133.946358754067
1710832342196,-17744.14523720462
1710832342236,-16952.984860063065
1710832342277,-16889.63486058009
1710832342317,-15621.455678235507
1710832342357,-15621.455678235507
1710832342397,-15621.455678235507
1710832342437,-15621.455678235507
1710832342478,-15621.455678235507
1710832342518,-15621.455678235507
1710832342557,-15026.707462687045
1710832342598,-15026.707462687045
1710832342638,-15026.707462687045
1710832342678,-14913.601159222191
1710832342718,-14670.794321845286
1710832342758,-14398.157218006207
1710832342798,-13983.169598653214
1710832342838,-13773.513352242764
1710832342879,-13610.046679526335
1710832342919,-13205.640290829353
1710832342959,-12447.483900188003
1710832342999,-12230.91851939098
1710832343039,-11119.00378298061
1710832343080,-10714.886542402208
1710832343120,-10598.110557725187
1710832343160,-10598.110557725187
1710832343200,-10598.110557725187
1710832343240,-10598.110557725187
1710832343281,-9474.893822949147
1710832343320,-8178.814067950007
1710832343360,-6775.53259615181
1710832343400,-4833.769885529764
1710832343441,-2798.118225055281
1710832343482,-1175.4508458366618
1710832343521,-338.4926275247708
1710832343561,-213.67854306241497
1710832343601,-59.24491786817089
1710832343641,-50.51951054809615
1710832343684,232.7399163050577
1710832343722,614.6082388982177
1710832343762,771.2732246895321
1710832343802,1075.7229962777346
1710832343842,1356.020273197908
1710832343883,1436.347376150079
1710832343922,2728.384613400791
1710832343963,3453.5585976883303
1710832344003,5650.43569109845
1710832344043,7402.759853609372
1710832344084,9136.534447669983
1710832344123,10356.980883250479
1710832344163,12117.661398818716
1710832344203,14500.073702350724
1710832344243,15304.875433394453
1710832344284,15421.724320244044
1710832344323,15460.796991260722
1710832344363,15645.953190040309
1710832344404,15940.667829484213
1710832344444,16679.092845946085
1710832344485,16983.84366217139
1710832344524,17442.428342158906
1710832344564,17890.16849379684
1710832344604,18085.966176689602
1710832344644,19036.331046435516
1710832344685,19341.00262650661
1710832344724,20284.818326549605
1710832344765,21199.297177019995
1710832344805,22051.446134020807
1710832344845,22051.446134020807
1710832344886,22051.446134020807
1710832344925,22051.446134020807
1710832344965,22051.446134020807
1710832345005,22051.446134020807
1710832345045,22051.446134020807
1710832345086,22051.446134020807
1710832345125,22051.446134020807
1710832345166,22051.446134020807
1710832345206,22051.446134020807
1710832345246,22031.062694058754
1710832345287,21805.901287455577
1710832345326,21419.874240715522
1710832345366,21369.197333021788
1710832345406,20894.939410577528
1710832345446,20293.413046883652
1710832345487,19957.942044305615
1710832345527,19683.60966927465
1710832345567,19353.62954579573
1710832345607,19289.832736308454
1710832345647,19269.12726271851
1710832345688,19184.378519858466
1710832345727,19134.388971602777
1710832345767,19111.695263750385
1710832345807,19079.301370552042
1710832345847,15698.559955723118
1710832345888,12439.858451943379
1710832345928,10469.91963963164
1710832345968,8785.89493676275
1710832346008,7482.1869324431755
1710832346048,6908.716445393395
1710832346089,6676.926555280574
1710832346128,6597.779648978729
1710832346168,5857.329448551172
1710832346208,5131.17161940597
1710832346249,4764.5470182201825
1710832346289,4412.73259035754
1710832346329,4401.557759943418
1710832346369,3731.2678667218424
1710832346409,3703.479677860625
1710832346449,3565.8221399928443
1710832346490,3501.244481534697
1710832346529,2984.727039789781
1710832346569,1429.2047520549968
1710832346609,-2043.8265455472283
1710832346649,-4546.265817132546
1710832346692,-5831.00148790516
1710832346730,-5831.00148790516
1710832346770,-5831.00148790516
1710832346810,-5831.00148790516
1710832346850,-5831.00148790516
1710832346891,-5831.00148790516
1710832346930,-5831.00148790516
1710832346970,-5831.00148790516
1710832347010,-6240.653934899019
1710832347050,-6392.048823354766
1710832347091,-7386.295071204659
1710832347131,-7471.02320088353
1710832347171,-7471.02320088353
1710832347211,-7471.02320088353
1710832347251,-7471.02320088353
1710832347292,-7471.02320088353
1710832347331,-7471.02320088353
1710832347371,-7471.02320088353
1710832347411,-7471.02320088353
1710832347451,-8121.148401239654
1710832347492,-8121.148401239654
1710832347532,-8121.148401239654
1710832347572,-8121.148401239654
1710832347612,-8121.148401239654
1710832347652,-8121.148401239654
1710832347693,-8121.148401239654
1710832347732,-8121.148401239654
1710832347772,-8121.148401239654
1710832347813,-8121.148401239654
1710832347852,-8121.148401239654
1710832347893,-7672.304544695653
1710832347933,-7672.304544695653
1710832347973,-7672.304544695653
1710832348013,-7672.304544695653
1710832348053,-7672.304544695653
1710832348094,-7672.304544695653
1710832348133,-7383.03698320291
1710832348174,-7277.68257944379
1710832348214,-6464.7849485091865
1710832348254,-6463.864916041959
1710832348295,-6077.750162770506
1710832348334,-4983.213432145305
1710832348374,-4806.746431054315
1710832348414,-4201.090920693474
1710832348454,-4201.090920693474
1710832348495,-4201.090920693474
1710832348535,-4201.090920693474
1710832348575,-4201.090920693474
1710832348615,-4201.090920693474
1710832348655,-4201.090920693474
1710832348696,-2610.65459652734
1710832348735,-1342.5337334675714
1710832348776,-144.85709558962844
1710832348816,1546.3832224418875
1710832348856,2998.11381525849
1710832348897,4745.730181328254
1710832348936,5252.3494607573375
1710832348976,5275.037652174011
1710832349016,5709.890848183772
1710832349056,6042.428560739849
1710832349097,6091.883454127237
1710832349137,6568.61097310856
1710832349177,6926.041889597662
1710832349217,7068.773529730737
1710832349257,7535.077975022141
1710832349298,7855.69546324783
1710832349337,8076.316357142758
1710832349378,8680.276454980718
1710832349417,9905.786391792819
1710832349458,10512.826635027304
1710832349499,12308.309156802949
1710832349538,14120.971140351845
1710832349578,15508.09582369076
1710832349618,15812.057893847348
1710832349658,15890.805689581437
1710832349701,15890.805689581437
1710832349739,15890.805689581437
1710832349779,15890.805689581437
1710832349819,15890.805689581437
1710832349859,15890.805689581437
1710832349900,15890.805689581437
1710832349940,15890.805689581437
1710832349980,15890.805689581437
1710832350020,15890.805689581437
1710832350060,15812.057893847348
1710832350101,15617.206810239237
1710832350140,15500.103124763351
1710832350180,14984.959238554351
1710832350221,14873.540078962222
1710832350261,14865.71270956751
1710832350302,14862.57607792085
1710832350341,14776.859993344173
1710832350381,14733.127525694668
1710832350421,14654.902084318688
1710832350461,14645.751593275229
1710832350502,14359.572542909067
1710832350541,12534.126103887334
1710832350581,9229.893830942921
1710832350621,6925.957919614855
1710832350661,5686.409420866286
1710832350702,3822.728412080556
1710832350742,2848.4896789342165
1710832350782,2129.7040242226794
1710832350822,2129.7040242226794
1710832350862,2129.7040242226794
1710832350903,1899.6420994731598
1710832350942,1633.6626565598417
1710832350982,1510.6695775964763
1710832351022,1103.2711287005804
1710832351062,1032.8811148614623
1710832351103,818.1517432718538
1710832351142,704.3427278648596
1710832351183,695.3892066052649
1710832351223,652.5102817304432
1710832351263,94.67787384311669
1710832351304,-1435.1339186734986
1710832351343,-5190.968521828996
1710832351383,-7489.822186826961
1710832351423,-9030.490070319735
1710832351463,-10518.944685917813
1710832351504,-10518.944685917813
1710832351544,-10518.944685917813
1710832351584,-10518.944685917813
1710832351624,-10518.944685917813
1710832351664,-10518.944685917813
1710832351705,-10604.141797600314
1710832351744,-11082.26232716022
1710832351784,-11190.643584225094
1710832351824,-11207.80062602926
1710832351864,-11278.538471475942
1710832351905,-11351.792166049127
1710832351945,-11371.44051842275
1710832351985,-11508.092002368998
1710832352025,-11508.092002368998
1710832352065,-11676.70535629848
1710832352105,-13998.070255926345
1710832352145,-16423.188825460616
1710832352185,-18050.693308874266
1710832352225,-18050.693308874266
1710832352265,-18050.693308874266
1710832352306,-18050.693308874266
1710832352345,-18050.693308874266
1710832352386,-18050.693308874266
1710832352426,-18050.693308874266
1710832352466,-18050.693308874266
1710832352507,-18050.693308874266
1710832352546,-18050.693308874266
1710832352586,-18050.693308874266
1710832352626,-17568.560880070552
1710832352666,-17568.560880070552
1710832352709,-17568.560880070552
1710832352744,-17568.560880070552
1710832352784,-17568.560880070552
1710832352824,-17425.670379220974
1710832352864,-17304.156411034055
1710832352905,-16770.154876852408
1710832352944,-16572.42034560931
1710832352984,-16244.791524929926
1710832353024,-15292.776577709708
1710832353064,-15033.734534177464
1710832353105,-15018.29147547041
1710832353145,-13151.514959312277
1710832353185,-13151.514959312277
1710832353225,-13151.514959312277
1710832353265,-13151.514959312277
1710832353306,-13151.514959312277
1710832353345,-13151.514959312277
1710832353385,-10877.667377896141
1710832353425,-9253.333236505743
1710832353466,-7403.342213944998
1710832353506,-5437.012948145624
1710832353546,-3114.489543495467
1710832353586,-988.8017203484196
1710832353626,1231.680960197933
1710832353666,3660.2892519666348
1710832353707,4684.147769629024
1710832353746,4792.995323879644
1710832353787,4873.912861933
1710832353827,5059.243486159714
1710832353867,5276.934771927539
1710832353908,5558.999786834931
1710832353947,6343.892731716158
1710832353987,6572.606053987984
1710832354027,7399.773927000118
1710832354068,7756.697651745286
1710832354108,8109.222018327564
1710832354148,8703.572070912458
1710832354188,9580.196288104868
1710832354228,10377.687005479354
1710832354268,11298.860209354432
1710832354309,11298.860209354432
1710832354348,11298.860209354432
1710832354388,11298.860209354432
1710832354429,11298.860209354432
1710832354469,11298.860209354432
1710832354509,11298.860209354432
1710832354549,11298.860209354432
1710832354589,11298.860209354432
1710832354629,11298.860209354432
1710832354669,11298.860209354432
1710832354710,10362.815070201876
1710832354750,9478.545555648394
1710832354790,9478.545555648394
1710832354830,9478.545555648394
1710832354870,9478.545555648394
1710832354911,9478.545555648394
1710832354950,9382.343603889924
1710832354990,9167.701173381414
1710832355031,9091.773559628054
1710832355071,9073.515565654961
1710832355111,8793.694238615222
1710832355151,8730.021516179666
1710832355191,8677.188046766445
1710832355231,8663.615073666442
1710832355271,8322.510056257946
1710832355312,8157.11487159133
