Timestamp,Cleaned PPG
1710826325661,0.0
1710826325701,0.0
1710826325744,0.0
1710826325782,0.0
1710826325822,0.0
1710826325862,0.0
1710826325902,0.0
1710826325942,0.0
1710826325983,0.0
1710826326022,0.0
1710826326062,0.0
1710826326102,0.0
1710826326142,0.0
1710826326183,0.0
1710826326223,0.0
1710826326262,0.0
1710826326303,0.0
1710826326343,0.0
1710826326384,0.0
1710826326423,0.0
1710826326463,0.0
1710826326503,0.0
1710826326543,0.0
1710826326584,0.0
1710826326623,0.0
1710826326663,0.0
1710826326703,0.0
1710826326743,0.0
1710826326784,0.0
1710826326824,0.0
1710826326864,0.0
1710826326904,0.0
1710826326944,1153501.1045164075
1710826326985,1153501.1045164075
1710826327024,1153501.1045164075
1710826327064,1153501.1045164075
1710826327104,1153501.1045164075
1710826327144,1153501.1045164075
1710826327186,1153501.1045164075
1710826327225,1153501.1045164075
1710826327265,1153501.1045164075
1710826327305,1153501.1045164075
1710826327345,1153501.1045164075
1710826327386,1097127.9474617057
1710826327425,1045422.845325782
1710826327465,996251.4908510526
1710826327505,939813.572632405
1710826327545,882777.657845415
1710826327586,827818.4544120608
1710826327625,767102.8597801188
1710826327666,695451.7683808063
1710826327705,616276.1772885039
1710826327746,547378.7288272798
1710826327787,491916.67490826873
1710826327826,455886.7475183881
1710826327866,423216.73660410685
1710826327906,386246.0092221652
1710826327949,354779.00022835843
1710826327987,336118.0929613088
1710826328027,318497.4584764261
1710826328067,303201.10124889296
1710826328107,282652.11519595236
1710826328147,260802.0381324445
1710826328188,230516.12388282688
1710826328227,143187.5870667908
1710826328267,129563.4705934478
1710826328307,100881.18366234191
1710826328347,86110.41525733704
1710826328389,77404.3128415409
1710826328428,74220.64447288006
1710826328468,73319.77140087634
1710826328508,64265.37482459587
1710826328548,46146.78857712378
1710826328589,43035.805425910046
1710826328628,43035.805425910046
1710826328668,43035.805425910046
1710826328708,43035.805425910046
1710826328748,43035.805425910046
1710826328789,43035.805425910046
1710826328828,43035.805425910046
1710826328869,43035.805425910046
1710826328909,43035.805425910046
1710826328949,38521.09160287306
1710826328990,31660.230387886055
1710826329029,31660.230387886055
1710826329069,35296.94499436556
1710826329109,38521.09160287306
1710826329149,43035.805425910046
1710826329190,53311.62710417737
1710826329230,68439.74006666895
1710826329270,72639.98000716884
1710826329310,82312.03822646895
1710826329350,82312.03822646895
1710826329391,82312.03822646895
1710826329430,82312.03822646895
1710826329470,82312.03822646895
1710826329510,73317.64943152783
1710826329550,68828.54361685645
1710826329591,68439.74006666895
1710826329630,67068.5980449263
1710826329671,63966.71602036711
1710826329711,62838.37566833664
1710826329751,62838.37566833664
1710826329792,62838.37566833664
1710826329831,62838.37566833664
1710826329871,62838.37566833664
1710826329911,62838.37566833664
1710826329951,58629.59572957968
1710826329992,52701.9785381048
1710826330031,48357.42518831184
1710826330072,46343.29546477692
1710826330112,45838.54877339234
1710826330155,45396.885468822904
1710826330193,45394.42751386808
1710826330232,45340.52448355453
1710826330272,44928.134750762256
1710826330312,41721.48012266145
1710826330352,41721.48012266145
1710826330393,41721.48012266145
1710826330433,41721.48012266145
1710826330473,41721.48012266145
1710826330513,43943.26977277151
1710826330553,44928.134750762256
1710826330594,45340.52448355453
1710826330633,45394.42751386808
1710826330673,45396.885468822904
1710826330713,45838.54877339234
1710826330753,46343.29546477692
1710826330794,47281.85657396633
1710826330834,56096.35133274272
1710826330874,68535.27941262769
1710826330914,79778.03495205473
1710826330954,90200.05339305755
1710826330995,90200.05339305755
1710826331034,90200.05339305755
1710826331074,90200.05339305755
1710826331114,90200.05339305755
1710826331155,90200.05339305755
1710826331195,90200.05339305755
1710826331235,90200.05339305755
1710826331275,90200.05339305755
1710826331315,90200.05339305755
1710826331355,90200.05339305755
1710826331396,86147.65619172272
1710826331435,77580.61619671411
1710826331475,69055.28467993811
1710826331516,59476.437138987705
1710826331556,49755.12490888871
1710826331597,43767.942189961206
1710826331636,30365.044238404837
1710826331676,24736.557309819385
1710826331716,24736.557309819385
1710826331756,24275.287272725254
1710826331797,22962.100554570556
1710826331837,19116.244330686517
1710826331877,19064.63170730276
1710826331917,17737.568693046458
1710826331957,17222.66849401174
1710826331998,14467.531546517275
1710826332037,12467.490351203829
1710826332077,12116.11553443037
1710826332118,11822.801377864555
1710826332157,11118.968426043168
1710826332198,10551.569888346829
1710826332238,9469.613749464974
1710826332278,3327.2159019415267
1710826332318,-1769.042782687582
1710826332358,-5266.099532223772
1710826332399,-5266.099532223772
1710826332439,-5266.099532223772
1710826332479,-5266.099532223772
1710826332519,-5266.099532223772
1710826332559,-5266.099532223772
1710826332601,-5266.099532223772
1710826332640,-5266.099532223772
1710826332680,-5266.099532223772
1710826332721,-5266.099532223772
1710826332761,-5266.099532223772
1710826332802,-5266.099532223772
1710826332842,-5266.099532223772
1710826332881,-5266.099532223772
1710826332924,-5266.099532223772
1710826332965,-5266.099532223772
1710826333005,-5266.099532223772
1710826333045,-5266.099532223772
1710826333085,-5266.099532223772
1710826333125,-5266.099532223772
1710826333165,-5266.099532223772
1710826333206,-5291.001914865337
1710826333246,-6696.231374262832
1710826333286,-6965.809733932838
1710826333326,-7437.358481153846
1710826333366,-8670.827976525761
1710826333407,-9442.67327988334
1710826333447,-9454.206722118892
1710826333487,-9728.043837915175
1710826333527,-11251.975179812871
1710826333567,-11715.653012846597
1710826333608,-13502.57858548779
1710826333648,-14013.76774421893
1710826333688,-14702.8485587365
1710826333728,-14702.8485587365
1710826333768,-14702.8485587365
1710826333810,-14702.8485587365
1710826333849,-14013.76774421893
1710826333889,-11715.653012846597
1710826333930,-11715.653012846597
1710826333970,-11715.653012846597
1710826334011,-14013.76774421893
1710826334050,-14064.75594227761
1710826334090,-16346.053586105816
1710826334131,-16346.053586105816
1710826334171,-16346.053586105816
1710826334212,-16346.053586105816
1710826334251,-16346.053586105816
1710826334292,-16895.26461739745
1710826334332,-16895.26461739745
1710826334372,-16895.26461739745
1710826334413,-16895.26461739745
1710826334453,-16895.26461739745
1710826334493,-16895.26461739745
1710826334533,-16346.053586105816
1710826334573,-16016.386431713589
1710826334614,-15359.216658840422
1710826334654,-15076.852393568493
1710826334694,-15076.852393568493
1710826334734,-15076.852393568493
1710826334775,-15076.852393568493
1710826334817,-15076.852393568493
1710826334857,-15076.852393568493
1710826334897,-14685.113322657999
1710826334937,-12961.311978642363
1710826334978,-8007.427172634983
1710826335019,-6340.11694234563
1710826335058,-6340.11694234563
1710826335098,-6340.11694234563
1710826335139,-6340.11694234563
1710826335179,-6340.11694234563
1710826335220,-6340.11694234563
1710826335259,-6273.276469438337
1710826335300,-5823.1003752257675
1710826335340,-4503.097634422826
1710826335380,-4330.671039949637
1710826335421,-2556.749277020339
1710826335460,-2388.1372877887916
1710826335501,-207.30881865299307
1710826335541,45.076317336410284
1710826335581,1338.3668847563677
1710826335622,1338.3668847563677
1710826335661,1338.3668847563677
1710826335702,1338.3668847563677
1710826335742,1338.3668847563677
1710826335782,1338.3668847563677
1710826335823,1778.473055871902
1710826335862,1778.473055871902
1710826335904,1778.473055871902
1710826335944,1778.473055871902
1710826335985,2887.4067974714562
1710826336026,2887.4067974714562
1710826336065,2887.4067974714562
1710826336105,2887.4067974714562
1710826336145,2887.4067974714562
1710826336186,2887.4067974714562
1710826336227,2887.4067974714562
1710826336266,2280.716312564444
1710826336306,2082.9778421402443
1710826336347,2082.9778421402443
1710826336387,2082.9778421402443
1710826336428,2082.9778421402443
1710826336467,2082.9778421402443
1710826336507,2082.9778421402443
1710826336547,2082.9778421402443
1710826336588,2082.9778421402443
1710826336629,2082.9778421402443
1710826336668,2280.716312564444
1710826336709,3041.3033605269156
1710826336749,3071.653807168361
1710826336789,3096.94464978599
1710826336830,3460.805978346616
1710826336869,4080.4329847579356
1710826336911,4323.80303657474
1710826336952,4323.80303657474
1710826336992,4323.80303657474
1710826337033,4323.80303657474
1710826337072,4323.80303657474
1710826337113,4323.80303657474
1710826337153,4323.80303657474
1710826337193,4323.80303657474
1710826337234,4080.4329847579356
1710826337274,3460.805978346616
1710826337314,3191.457063225331
1710826337354,3096.94464978599
1710826337394,2816.0367103917524
1710826337435,2816.0367103917524
1710826337475,2731.4587146639824
1710826337515,2618.7717110300437
1710826337555,2443.886900766287
1710826337595,2221.162998056039
1710826337636,2201.183459339896
1710826337676,2158.1673756621312
1710826337715,2149.85853061988
1710826337754,2149.85853061988
1710826337793,2149.85853061988
1710826337832,2062.3344322128687
1710826337871,238.66611097147688
1710826337910,-168.5687157965731
1710826337949,-331.57427639118396
1710826337988,-727.2120264424011
1710826338027,-892.8513482850976
1710826338066,-892.8513482850976
1710826338105,-892.8513482850976
1710826338144,-892.8513482850976
1710826338183,-2434.0664631135296
1710826338222,-2434.0664631135296
1710826338261,-2434.0664631135296
1710826338300,-2434.0664631135296
1710826338339,-2434.0664631135296
1710826338378,-892.8513482850976
1710826338417,-331.57427639118396
1710826338456,-168.5687157965731
1710826338495,-32.65463702240959
1710826338534,-32.65463702240959
1710826338573,-168.5687157965731
1710826338612,-768.8748265458271
1710826338651,-2530.0958431065083
1710826338690,-3472.0262917981017
1710826338729,-3472.0262917981017
1710826338768,-3472.0262917981017
1710826338807,-3472.0262917981017
1710826338846,-3472.0262917981017
1710826338885,-3472.0262917981017
1710826338925,-3472.0262917981017
1710826338965,-3472.0262917981017
1710826339005,-3537.253196043428
1710826339045,-3537.253196043428
1710826339085,-3537.253196043428
1710826339125,-3537.253196043428
1710826339165,-3544.5400149698835
1710826339205,-3544.5400149698835
1710826339245,-3544.5400149698835
1710826339285,-3544.5400149698835
1710826339325,-3544.5400149698835
1710826339365,-3544.5400149698835
1710826339405,-3836.402156875469
1710826339445,-4819.202431861311
1710826339485,-4819.202431861311
1710826339525,-4819.202431861311
1710826339565,-4819.202431861311
1710826339605,-4819.202431861311
1710826339645,-4819.202431861311
1710826339685,-4819.202431861311
1710826339725,-4819.202431861311
1710826339765,-4819.202431861311
1710826339805,-4754.829622108024
1710826339845,-4754.829622108024
1710826339885,-4754.829622108024
1710826339925,-4754.829622108024
1710826339965,-4754.829622108024
1710826340005,-4754.829622108024
1710826340045,-4754.829622108024
1710826340085,-4754.829622108024
1710826340125,-4754.829622108024
1710826340165,-4754.829622108024
1710826340205,-4754.829622108024
1710826340245,-3930.996897699777
1710826340285,-3930.996897699777
1710826340325,-3930.996897699777
1710826340365,-3930.996897699777
1710826340405,-3930.996897699777
1710826340445,-3221.448106334079
1710826340485,-3221.448106334079
1710826340525,-3221.448106334079
1710826340565,-3221.448106334079
1710826340605,-3221.448106334079
1710826340645,-3221.448106334079
1710826340685,-3221.448106334079
1710826340725,-3221.448106334079
1710826340765,-3221.448106334079
1710826340805,-3221.448106334079
1710826340845,-3221.448106334079
1710826340885,-3221.448106334079
1710826340925,-3221.448106334079
1710826340965,-3221.448106334079
1710826341005,-3248.966283433605
1710826341045,-3480.068075108109
1710826341085,-3480.068075108109
1710826341125,-3480.068075108109
1710826341165,-3480.068075108109
1710826341205,-3480.068075108109
1710826341245,-3480.068075108109
1710826341285,-3758.061013872735
1710826341325,-3758.061013872735
1710826341365,-3758.061013872735
1710826341405,-3758.061013872735
1710826341445,-3758.061013872735
1710826341485,-4611.236582806334
1710826341525,-5148.580172912218
1710826341565,-5524.81720277993
1710826341605,-5524.81720277993
1710826341645,-5524.81720277993
1710826341685,-5859.327796350233
1710826341725,-5879.800720957108
1710826341765,-5890.633899746463
1710826341805,-6066.70689661568
1710826341845,-6318.018091461621
1710826341885,-6318.018091461621
1710826341925,-6318.018091461621
1710826341965,-6100.028081633383
1710826342005,-6100.028081633383
1710826342045,-6100.028081633383
1710826342085,-5879.800720957108
1710826342125,-5859.327796350233
1710826342165,-5859.327796350233
1710826342205,-5859.327796350233
1710826342245,-5472.652795179281
1710826342285,-5472.652795179281
1710826342325,-5472.652795179281
1710826342365,-5472.652795179281
1710826342405,-5472.652795179281
1710826342445,-5879.800720957108
1710826342485,-6100.028081633383
1710826342525,-6612.869170953054
1710826342565,-6612.869170953054
1710826342605,-6612.869170953054
1710826342645,-6612.869170953054
1710826342685,-11016.407218812732
1710826342725,-11433.273931139847
1710826342765,-11433.273931139847
1710826342805,-11433.273931139847
1710826342845,-11433.273931139847
1710826342885,-11433.273931139847
1710826342925,-11433.273931139847
1710826342965,-11433.273931139847
1710826343005,-11433.273931139847
1710826343045,-11433.273931139847
1710826343085,-11433.273931139847
1710826343125,-11016.407218812732
1710826343165,-10237.02873421833
1710826343205,-6226.249806083273
1710826343245,-3771.4428605786525
1710826343285,1654.888889370719
1710826343325,1654.888889370719
1710826343365,1654.888889370719
1710826343405,1654.888889370719
1710826343445,1654.888889370719
1710826343485,1654.888889370719
1710826343525,1654.888889370719
1710826343565,1654.888889370719
1710826343605,749.9352547312155
1710826343645,-3771.4428605786525
1710826343685,-6226.249806083273
1710826343725,-10237.02873421833
1710826343765,-15464.940209446475
1710826343805,-35532.73443766683
1710826343845,-41960.902898466215
1710826343885,-48089.61142327171
1710826343925,-48089.61142327171
1710826343965,-48089.61142327171
1710826344005,-48089.61142327171
1710826344045,-48089.61142327171
1710826344085,-48089.61142327171
1710826344125,-48089.61142327171
1710826344165,-48089.61142327171
1710826344205,-48089.61142327171
1710826344245,-41960.902898466215
1710826344285,-35532.73443766683
1710826344325,-32832.91015265882
1710826344365,-24876.753532132134
1710826344405,-24876.753532132134
1710826344445,-24876.753532132134
1710826344485,-24876.753532132134
1710826344525,-24876.753532132134
1710826344565,-21448.31042083958
1710826344605,-20092.972572378814
1710826344645,-18704.43391241366
1710826344685,-18010.22579855984
1710826344725,-17790.151085216086
1710826344765,-10261.394844877534
1710826344805,-6138.9701737668365
1710826344845,-982.3180504944175
1710826344885,693.4172835755162
1710826344925,12302.128944439813
1710826344965,14066.287603822537
1710826345005,33553.50506824488
1710826345045,51198.18425302999
1710826345085,67163.97866826039
1710826345125,67163.97866826039
1710826345165,67163.97866826039
1710826345205,67163.97866826039
1710826345245,67163.97866826039
1710826345285,67163.97866826039
1710826345325,67163.97866826039
1710826345365,67163.97866826039
1710826345405,67163.97866826039
1710826345445,67163.97866826039
1710826345485,67163.97866826039
1710826345525,50146.28399750218
1710826345565,45542.27116975421
1710826345605,45542.27116975421
1710826345645,45542.27116975421
1710826345685,45542.27116975421
1710826345725,45542.27116975421
1710826345765,45542.27116975421
1710826345805,45542.27116975421
1710826345845,45542.27116975421
1710826345885,36966.96779589867
1710826345925,36864.94621337345
1710826345965,32978.4844165938
1710826346005,20037.892298914492
1710826346045,20037.892298914492
1710826346085,20037.892298914492
1710826346125,20037.892298914492
1710826346165,32978.4844165938
1710826346205,36864.94621337345
1710826346245,37393.119990312494
1710826346285,39520.228130868636
1710826346325,45542.27116975421
1710826346365,54097.18138615461
1710826346405,59769.55726747401
1710826346445,59769.55726747401
1710826346485,59769.55726747401
1710826346525,59769.55726747401
1710826346565,59769.55726747401
1710826346605,59769.55726747401
1710826346645,59769.55726747401
1710826346685,59769.55726747401
1710826346725,59769.55726747401
1710826346765,59769.55726747401
1710826346805,59769.55726747401
1710826346845,59769.55726747401
1710826346885,59769.55726747401
1710826346925,59769.55726747401
1710826346965,59769.55726747401
1710826347005,59769.55726747401
1710826347045,62123.396941344254
1710826347085,66807.69474725146
1710826347125,66807.69474725146
1710826347165,66807.69474725146
1710826347205,66807.69474725146
1710826347245,66807.69474725146
1710826347285,66807.69474725146
1710826347325,66807.69474725146
1710826347365,66807.69474725146
1710826347405,66807.69474725146
1710826347445,66807.69474725146
1710826347485,76501.48016833467
1710826347525,76501.48016833467
1710826347565,76501.48016833467
1710826347605,76501.48016833467
1710826347645,76501.48016833467
1710826347685,76501.48016833467
1710826347725,76501.48016833467
1710826347765,76501.48016833467
1710826347805,76501.48016833467
1710826347845,76501.48016833467
1710826347885,76501.48016833467
1710826347925,46237.15838020295
1710826347965,21393.675717310514
1710826348005,125.46837932476774
1710826348045,125.46837932476774
1710826348085,125.46837932476774
1710826348125,125.46837932476774
1710826348165,125.46837932476774
1710826348205,-10969.7919730125
1710826348245,-15885.170434821397
1710826348285,-25766.069167884067
1710826348325,-34006.39982382581
1710826348365,-42549.72759475326
1710826348405,-52897.34288886003
1710826348445,-59069.3027197402
1710826348485,-65231.16018269863
1710826348525,-69850.78052860312
1710826348565,-69850.78052860312
1710826348605,-70635.29506782955
1710826348645,-90583.10373227997
1710826348685,-116009.3367398358
1710826348725,-116009.3367398358
1710826348765,-116009.3367398358
1710826348805,-116009.3367398358
1710826348845,-116009.3367398358
1710826348885,-116009.3367398358
1710826348925,-116009.3367398358
1710826348965,-116009.3367398358
1710826349005,-116009.3367398358
1710826349045,-116009.3367398358
1710826349085,-116009.3367398358
1710826349125,-88325.12001244817
1710826349165,-84628.97134828288
1710826349205,-84573.44218482124
1710826349245,-82318.54180253297
1710826349285,-74086.4054059051
1710826349325,-57330.724747707136
1710826349365,-55587.645757273305
1710826349405,-18333.2530855434
1710826349445,-2424.3646179139614
1710826349485,-534.3932960582897
1710826349525,4520.183495944366
1710826349565,15074.685177487321
1710826349605,18747.68146311445
1710826349645,23472.54121428076
1710826349685,27448.497863012366
1710826349725,29227.602388123516
1710826349765,41968.53138693236
1710826349806,48579.624936817214
1710826349845,57060.049335401505
1710826349886,59660.74771071458
1710826349926,74287.76259850571
1710826349966,75567.31934576947
1710826350007,86472.13575252239
1710826350046,104359.01036298089
1710826350086,110258.65872796997
1710826350126,113142.83536617411
1710826350166,113489.7618148094
1710826350207,119111.19704406708
1710826350247,119111.19704406708
1710826350286,119111.19704406708
1710826350327,119111.19704406708
1710826350367,119111.19704406708
1710826350407,119111.19704406708
1710826350447,113489.7618148094
1710826350487,113142.83536617411
1710826350527,110258.65872796997
1710826350567,109252.58485184424
1710826350608,86472.13575252239
1710826350647,77639.65953314025
1710826350687,77639.65953314025
1710826350728,48509.61110253073
1710826350768,39771.99662865093
1710826350809,22203.100036306307
1710826350848,19255.556556013413
1710826350888,17767.59199075075
1710826350928,11760.47242685873
1710826350968,10629.883778258227
1710826351009,-9545.0023931982
1710826351048,-9545.0023931982
1710826351089,-21910.304513173178
1710826351129,-35392.56005239254
1710826351169,-38752.65763674304
1710826351210,-43266.10727805691
1710826351249,-50648.536479195114
1710826351289,-58176.48832926946
1710826351329,-59204.29880909715
1710826351369,-60452.96936284099
1710826351410,-65420.41212326661
1710826351450,-65420.41212326661
1710826351490,-65420.41212326661
1710826351530,-61321.2618498425
1710826351570,-60452.96936284099
1710826351611,-59204.29880909715
1710826351650,-52338.15458514681
1710826351690,-50648.536479195114
1710826351730,-43266.10727805691
1710826351770,-38752.65763674304
1710826351812,-35392.56005239254
1710826351851,-28636.94180210959
1710826351891,-28636.94180210959
1710826351931,-28636.94180210959
1710826351971,-28284.555591912474
1710826352012,-18344.505717284977
1710826352051,-13065.985389614012
1710826352091,-11232.761544087902
1710826352132,-4458.537119021174
1710826352172,-3699.5139947691932
1710826352212,-3169.7463408885524
1710826352252,-1948.8645151006058
1710826352292,-1288.4216359574348
1710826352332,10016.205088486895
1710826352372,14208.76184901502
1710826352413,16835.131647698116
1710826352453,24279.46173628792
1710826352493,24704.125258690678
1710826352533,28123.700071869418
1710826352573,37367.23941870872
1710826352614,46515.91289629834
1710826352653,46784.2670947751
1710826352693,57061.76397999469
1710826352733,64014.85968821868
1710826352774,74269.19137962535
1710826352814,74455.49456208572
1710826352854,74455.49456208572
1710826352894,74269.19137962535
1710826352934,57061.76397999469
1710826352974,57061.76397999469
1710826353015,57061.76397999469
1710826353054,57061.76397999469
1710826353095,57061.76397999469
1710826353135,57061.76397999469
1710826353175,57061.76397999469
1710826353215,57061.76397999469
1710826353255,55854.48153347056
1710826353295,26690.85764973052
1710826353335,21197.03100330569
1710826353376,18545.36290543666
1710826353416,7184.565574620385
1710826353456,6481.845975354314
1710826353496,2212.451699985191
1710826353536,54.55965928826481
1710826353576,-2448.7454433660023
1710826353617,-7220.71730383113
1710826353656,-7923.000036087353
1710826353696,-14639.248665542342
1710826353737,-16270.130703979637
1710826353777,-19613.9413482002
1710826353817,-22733.421013810672
1710826353857,-24421.974746280815
1710826353897,-29261.757584520616
1710826353937,-30186.533167582937
1710826353977,-33774.19547471963
1710826354018,-48745.5196962296
1710826354057,-48745.5196962296
1710826354097,-48745.5196962296
1710826354137,-48745.5196962296
1710826354177,-48745.5196962296
1710826354218,-48745.5196962296
1710826354258,-48745.5196962296
1710826354298,-48745.5196962296
1710826354338,-48745.5196962296
1710826354378,-48745.5196962296
1710826354418,-48745.5196962296
1710826354458,-30508.57938058721
1710826354498,-23571.2894310588
1710826354538,-16927.121954655275
1710826354578,610.1440678988583
1710826354619,17301.069323600736
1710826354658,36087.4111570362
1710826354698,40579.769613289274
1710826354739,46249.53248936031
1710826354779,49728.84856551187
1710826354819,49980.46597074717
1710826354859,53437.23390113143
1710826354899,53478.067700606305
1710826354939,63127.73710659193
1710826354979,63194.664895244874
1710826355020,63194.664895244874
1710826355059,63194.664895244874
1710826355099,63194.664895244874
1710826355139,63194.664895244874
1710826355180,63194.664895244874
1710826355220,62134.085094072856
1710826355260,59343.550518641714
1710826355300,58890.370737208985
1710826355340,58890.370737208985
1710826355380,58890.370737208985
1710826355421,58890.370737208985
1710826355460,58890.370737208985
1710826355500,58890.370737208985
1710826355540,54385.24322714284
1710826355580,54071.78193069901
1710826355621,49681.07850795658
1710826355661,41058.12537058676
1710826355701,33705.26133342367
1710826355741,27487.269161507487
1710826355781,17491.84405289404
1710826355822,4565.625874548219
1710826355861,2494.800423084758
1710826355901,1386.1063944087364
1710826355941,240.108610981144
1710826355981,-2402.0031479028985
1710826356022,-4259.631767148152
1710826356061,-4516.398591890931
1710826356102,-4984.276952868793
1710826356142,-7837.1724515892565
1710826356182,-11008.45142062055
1710826356223,-11008.45142062055
1710826356262,-7837.1724515892565
1710826356302,-4984.276952868793
1710826356342,-4516.398591890931
1710826356382,-4347.230178246275
1710826356423,-4347.230178246275
1710826356462,-4259.631767148152
1710826356503,-4259.631767148152
1710826356543,-4259.631767148152
1710826356583,-4347.230178246275
1710826356624,-4516.398591890931
1710826356663,-4984.276952868793
1710826356703,-4984.276952868793
1710826356743,-6956.140208962373
1710826356783,-10371.88679999439
1710826356824,-10371.88679999439
1710826356863,-10371.88679999439
1710826356903,-10371.88679999439
1710826356944,-10371.88679999439
1710826356984,-10371.88679999439
1710826357025,-10371.88679999439
1710826357064,-18891.444705436472
1710826357104,-22526.684762097895
1710826357144,-23453.406672641635
1710826357184,-31314.532210748177
1710826357225,-39109.43911797553
1710826357264,-39975.65680076461
1710826357305,-52437.18436673656
1710826357345,-69760.85878902394
1710826357385,-70370.20305550843
1710826357426,-71975.71079074172
1710826357465,-72454.00489164237
1710826357505,-79823.89184179343
1710826357545,-89087.5182262361
1710826357585,-126145.75016257772
1710826357626,-126567.55146553367
1710826357665,-126567.55146553367
1710826357706,-126567.55146553367
1710826357746,-126567.55146553367
1710826357786,-126567.55146553367
1710826357827,-126567.55146553367
1710826357866,-126567.55146553367
1710826357906,-126567.55146553367
1710826357946,-126567.55146553367
1710826357986,-126567.55146553367
1710826358027,-126567.55146553367
1710826358067,-117804.59337732382
1710826358107,-105310.29871184146
1710826358147,-104376.38122789655
1710826358187,-98907.23792829551
1710826358228,-95578.4385480429
1710826358267,-92162.27772233263
1710826358307,-92162.27772233263
1710826358347,-92162.27772233263
1710826358387,-92162.27772233263
1710826358429,-88542.09655185603
1710826358467,-88526.59613341931
1710826358508,-88408.30564262066
1710826358548,-87713.63080233056
1710826358588,-87215.54028081382
1710826358629,-87136.99582906254
1710826358668,-86479.90279160626
1710826358708,-86479.90279160626
1710826358748,-84701.68121083733
1710826358789,-84701.68121083733
1710826358830,-83611.96441614488
1710826358869,-59748.7280772673
1710826358909,-47004.50659985142
1710826358949,-46562.32225878537
1710826358989,-46225.06544418726
1710826359030,-45279.853592137806
1710826359069,-44637.33073566388
1710826359109,-44434.7241800928
1710826359150,-42417.80333955726
1710826359190,-41425.595234480454
1710826359231,-41323.82697035093
1710826359270,-40959.60917699686
1710826359310,-40510.74997436139
1710826359350,-37540.14892855147
1710826359390,-32244.566386701073
1710826359431,-29610.781631850637
1710826359470,-29610.781631850637
1710826359511,-29610.781631850637
1710826359551,-29610.781631850637
1710826359591,-29610.781631850637
1710826359632,-29610.781631850637
1710826359671,-29610.781631850637
1710826359711,-29610.781631850637
1710826359751,-29610.781631850637
1710826359791,-29610.781631850637
1710826359833,-29610.781631850637
1710826359872,-29610.781631850637
1710826359912,-28251.713675939478
1710826359952,-28251.713675939478
1710826359992,-28251.713675939478
1710826360033,-28251.713675939478
1710826360072,-28251.713675939478
1710826360113,-28251.713675939478
1710826360153,-28251.713675939478
1710826360193,-28251.713675939478
1710826360234,-28251.713675939478
1710826360273,-28251.713675939478
1710826360313,-26609.882865990745
1710826360353,-22545.888072675793
1710826360393,-22017.8647918324
1710826360435,-19198.991835606983
1710826360474,-18004.201364084147
1710826360514,-17684.85770076653
1710826360554,-16957.72081960924
1710826360594,-16741.350773782935
1710826360635,-16506.02308380953
1710826360674,-15228.701388737885
1710826360715,-13583.554832817987
1710826360755,-12948.465605115518
1710826360795,-12066.940226777457
1710826360836,-11840.189132422442
1710826360875,-10352.66249845596
1710826360915,-10060.463752481854
1710826360956,-9651.22964408435
1710826360996,-8994.008483324666
1710826361037,-8052.042853489518
1710826361076,-8052.042853489518
1710826361116,-5142.370906580007
1710826361156,-3448.328306421172
1710826361196,-1610.1141525190324
1710826361237,-512.3666511569172
1710826361276,-512.3666511569172
1710826361316,281.8886703683529
1710826361356,400.5971058148425
1710826361396,1395.6732026119716
1710826361438,2206.154699128587
1710826361477,2634.6707504382357
1710826361517,2869.139152682852
1710826361557,4645.693347227294
1710826361597,4925.838915037457
1710826361638,5218.821019612253
1710826361677,5364.518426463008
1710826361774,6528.861223323736
1710826361814,7320.712880635634
1710826361854,7379.48894343758
1710826361895,7379.48894343758
1710826361934,7379.48894343758
1710826361975,7379.48894343758
1710826362015,7866.23163336888
1710826362055,9721.931955108419
1710826362096,9721.931955108419
1710826362135,10034.109814592404
1710826362175,10182.739333570702
1710826362215,10551.422528455034
1710826362255,11129.359945498407
1710826362296,11752.443260038272
1710826362335,11833.253853957634
1710826362375,11876.63682709285
1710826362416,12159.503198638558
1710826362456,12337.445243120193
1710826362497,13153.852669773856
1710826362536,13566.8446814497
1710826362576,13666.483725239057
1710826362616,13763.599927150412
1710826362656,13763.599927150412
1710826362697,13763.599927150412
1710826362736,13763.599927150412
1710826362776,13763.599927150412
1710826362817,13763.599927150412
1710826362857,14262.501409792807
1710826362898,15147.814563220832
1710826362937,16581.42880617804
1710826362977,16581.42880617804
1710826363017,16581.42880617804
1710826363057,16581.42880617804
1710826363098,16616.436117893085
1710826363137,16902.552577218274
1710826363178,17038.72934781597
1710826363218,17131.947780050337
1710826363258,17303.55077208928
1710826363299,17330.15613300819
1710826363338,17436.13245728542
1710826363378,17521.538531977218
1710826363418,17897.916192176286
1710826363458,17897.916192176286
1710826363499,17897.916192176286
1710826363539,17897.916192176286
1710826363579,17897.916192176286
1710826363619,17897.916192176286
1710826363659,17897.916192176286
1710826363700,17897.916192176286
1710826363739,18254.951771366876
1710826363779,18903.282304704655
1710826363819,18903.282304704655
1710826363859,18903.282304704655
1710826363900,18903.282304704655
1710826363939,18903.282304704655
1710826363979,18903.282304704655
1710826364020,18903.282304704655
1710826364060,18903.282304704655
1710826364100,18903.282304704655
1710826364140,18903.282304704655
1710826364180,18903.282304704655
1710826364220,18260.797430444974
1710826364260,17452.20303408103
1710826364301,17322.770201347535
1710826364340,17322.770201347535
1710826364381,17322.770201347535
1710826364421,17188.91327504767
1710826364461,17188.91327504767
1710826364502,17188.91327504767
1710826364541,17188.91327504767
1710826364581,17188.91327504767
1710826364621,17188.91327504767
1710826364661,17188.91327504767
1710826364702,17149.799875611672
1710826364742,17127.297143417876
1710826364782,17127.297143417876
1710826364822,17127.297143417876
1710826364862,17127.297143417876
1710826364903,17127.297143417876
1710826364942,17127.297143417876
1710826364982,17127.297143417876
1710826365022,17127.297143417876
1710826365062,17127.297143417876
1710826365103,17127.297143417876
1710826365142,15238.559611661825
1710826365183,13136.339383095969
1710826365223,12559.372978517786
1710826365263,12559.372978517786
1710826365304,12559.372978517786
1710826365343,12559.372978517786
1710826365383,12559.372978517786
1710826365423,12559.372978517786
1710826365463,12559.372978517786
1710826365504,12559.372978517786
1710826365544,12559.372978517786
1710826365584,12559.372978517786
1710826365624,12559.372978517786
1710826365664,12588.726046622498
1710826365705,12588.726046622498
1710826365744,12588.726046622498
1710826365784,12588.726046622498
1710826365824,12588.726046622498
1710826365864,12588.726046622498
1710826365905,12588.726046622498
1710826365945,12588.726046622498
1710826365985,12588.726046622498
1710826366025,12588.726046622498
1710826366065,12588.726046622498
1710826366106,11780.820282578701
1710826366146,9901.704151643673
1710826366186,9770.168404837139
1710826366226,9770.168404837139
1710826366266,9770.168404837139
1710826366307,9770.168404837139
1710826366346,9770.168404837139
1710826366387,9770.168404837139
1710826366427,9770.168404837139
1710826366467,9770.168404837139
1710826366508,9770.168404837139
1710826366547,9770.168404837139
1710826366587,9693.86011205567
1710826366627,9693.86011205567
1710826366668,9693.86011205567
1710826366708,9688.386571743991
1710826366748,9688.386571743991
1710826366788,9688.386571743991
1710826366828,9688.386571743991
1710826366868,9688.386571743991
1710826366909,9688.386571743991
1710826366948,9688.386571743991
1710826366988,8682.140932563692
1710826367029,6654.164389241487
1710826367069,4427.137902848888
1710826367109,3532.797356734518
1710826367149,3290.3360673969146
1710826367189,3280.5260377617087
1710826367229,2790.694469667971
1710826367269,2790.694469667971
1710826367310,2790.694469667971
1710826367349,2790.694469667971
1710826367390,2790.694469667971
1710826367430,2790.694469667971
1710826367470,2790.694469667971
1710826367511,2743.7022517612204
1710826367550,2433.5998868360184
1710826367590,2269.0627727247775
1710826367630,2056.044822020922
1710826367670,2030.8842568146065
1710826367711,1912.2916528084315
1710826367751,1510.793824706925
1710826367791,1405.9357834551483
1710826367831,1287.134055579314
1710826367871,1273.5097722071223
1710826367912,1273.5097722071223
1710826367951,-316.2733429791406
1710826367991,-2969.1563143229578
1710826368031,-3273.771576900268
1710826368072,-3273.771576900268
1710826368113,-3273.771576900268
1710826368152,-3273.771576900268
1710826368192,-3273.771576900268
1710826368232,-3273.771576900268
1710826368272,-3273.771576900268
1710826368313,-3273.771576900268
1710826368352,-3273.771576900268
1710826368392,-3811.862082065083
1710826368432,-3863.4490863839164
1710826368473,-3863.4490863839164
1710826368513,-3811.862082065083
1710826368553,-3273.771576900268
1710826368593,-2079.305763716111
1710826368633,-2014.5627711575944
1710826368673,-1170.9072172529995
1710826368714,-639.694211187074
1710826368753,-550.2790594780818
1710826368793,-481.6956887450069
1710826368833,-106.36625238321722
1710826368873,84.53322273585945
1710826368914,971.0960052567534
1710826368954,1203.5284177644644
1710826368993,1736.1571625832003
1710826369034,2238.7991453395225
1710826369074,2607.4981165230274
1710826369114,4824.122079468798
1710826369154,8062.230423696339
1710826369194,10982.904600193026
1710826369234,15018.460333763622
1710826369274,15018.460333763622
1710826369315,15018.460333763622
1710826369354,15018.460333763622
1710826369394,15018.460333763622
1710826369435,15018.460333763622
1710826369475,15018.460333763622
1710826369515,15018.460333763622
1710826369555,15018.460333763622
1710826369595,15018.460333763622
1710826369635,15018.460333763622
1710826369675,13741.63860624982
1710826369716,13741.63860624982
1710826369755,13741.63860624982
1710826369795,13741.63860624982
1710826369835,13741.63860624982
1710826369876,13741.63860624982
1710826369916,13741.63860624982
1710826369956,13741.63860624982
1710826369996,12219.69117935677
1710826370036,12018.010381015483
1710826370076,11940.353865952231
1710826370117,10882.309227548074
1710826370156,10849.181879760465
1710826370196,10849.181879760465
1710826370237,10849.181879760465
1710826370277,11523.293705269694
1710826370317,11523.293705269694
1710826370357,11523.293705269694
1710826370397,11523.293705269694
1710826370437,11523.293705269694
1710826370477,11737.325341918971
1710826370518,11737.325341918971
1710826370557,11737.325341918971
1710826370598,11737.325341918971
1710826370638,11737.325341918971
1710826370678,11737.325341918971
1710826370719,11737.325341918971
1710826370758,11523.293705269694
1710826370798,11523.293705269694
1710826370838,10866.347338679247
1710826370878,10866.347338679247
1710826370919,10866.347338679247
1710826370958,10866.347338679247
1710826370999,10866.347338679247
1710826371039,10866.347338679247
1710826371079,9856.332776370458
1710826371120,9856.332776370458
1710826371159,10866.347338679247
1710826371199,10866.347338679247
1710826371239,10866.347338679247
1710826371279,10866.347338679247
1710826371320,4410.220740248449
1710826371360,-4257.148029119242
1710826371400,-7112.532995518297
1710826371440,-12180.90945538273
1710826371480,-14611.108630212024
1710826371521,-14933.139135139994
1710826371560,-14933.139135139994
1710826371600,-16745.789943032898
1710826371640,-16745.789943032898
1710826371680,-16745.789943032898
1710826371721,-16745.789943032898
1710826371761,-15910.024606106803
1710826371801,-14933.139135139994
1710826371841,-14611.108630212024
1710826371881,-11093.772486641537
1710826371922,-11093.772486641537
1710826371961,-11093.772486641537
1710826372001,-11093.772486641537
1710826372041,-11093.772486641537
1710826372082,-7940.7402447653
1710826372122,-6951.681472827215
1710826372162,-6539.834234041162
1710826372202,-4276.669916060753
1710826372242,-3591.7739426302724
1710826372282,-1034.953868846409
1710826372323,718.450673871208
1710826372362,2825.6257205130532
1710826372402,7404.339336624835
1710826372443,8030.336400362197
1710826372483,9881.198157583829
1710826372523,17373.85900827404
1710826372563,36406.751776190475
1710826372603,47990.47644320782
1710826372643,54254.95394900441
1710826372683,55637.960125477985
1710826372724,56409.688615735155
1710826372764,60312.603017868474
1710826372804,64217.40130367875
1710826372844,64217.40130367875
1710826372884,66331.70619563852
1710826372925,66331.70619563852
1710826372964,66331.70619563852
1710826373004,66331.70619563852
1710826373045,66331.70619563852
1710826373084,66331.70619563852
1710826373125,66331.70619563852
1710826373165,64293.29581764806
1710826373205,64293.29581764806
1710826373245,64293.29581764806
1710826373285,64293.29581764806
1710826373326,64293.29581764806
1710826373365,63763.93931646459
1710826373406,63544.16775872931
1710826373446,62051.98397029936
1710826373486,61270.71792511828
1710826373527,61068.870863510296
1710826373566,55866.808791978285
1710826373606,52750.491108205635
1710826373647,49959.62461339822
1710826373687,30633.821793344803
1710826373728,30217.441553086042
1710826373767,7156.907302003354
1710826373806,2722.77442068886
1710826373845,1925.1939341025427
1710826373884,-7892.753605640493
1710826373923,-9545.230827290565
1710826373962,-18473.28748022765
1710826374001,-32138.89219091693
1710826374040,-34179.43601025967
1710826374079,-34566.99501114711
1710826374118,-35937.525105476845
1710826374157,-39026.074913566
1710826374196,-41940.70861990657
1710826374235,-42747.20238131331
1710826374274,-44783.73483454529
1710826374313,-44901.79722001543
1710826374352,-45670.178450361826
1710826374391,-45670.178450361826
1710826374430,-46408.262411336415
1710826374469,-47904.76455841446
1710826374508,-48462.56227804767
1710826374548,-49736.188765580766
1710826374588,-52098.034213002305
1710826374628,-52098.034213002305
1710826374668,-49736.188765580766
1710826374708,-49736.188765580766
1710826374748,-49366.5001562112
1710826374788,-49366.5001562112
1710826374828,-49366.5001562112
1710826374868,-49366.5001562112
1710826374908,-49366.5001562112
1710826374948,-49366.5001562112
1710826374988,-49366.5001562112
1710826375028,-49366.5001562112
1710826375068,-39306.40077794902
1710826375108,-37155.45056311507
1710826375148,-31296.24241903145
1710826375188,-30284.314065089915
1710826375228,-21293.650076854043
1710826375268,-21293.650076854043
1710826375308,-21293.650076854043
1710826375348,-21293.650076854043
1710826375388,-21293.650076854043
1710826375428,-21293.650076854043
1710826375468,-21293.650076854043
1710826375508,-21293.650076854043
1710826375548,-21293.650076854043
1710826375588,-21293.650076854043
1710826375628,-21293.650076854043
1710826375668,-25479.748307231814
1710826375708,-28792.870909614954
1710826375748,-31050.591407718137
1710826375788,-36941.49647661671
1710826375828,-37969.56184570212
1710826375868,-38231.14912807359
1710826375908,-38231.14912807359
1710826375948,-38231.14912807359
1710826375988,-38231.14912807359
1710826376028,-38231.14912807359
1710826376068,-38454.288040916435
1710826376108,-38571.231007551076
1710826376148,-38732.365295132855
1710826376188,-38896.48526545963
1710826376228,-39160.226562887896
1710826376268,-39302.65717173554
1710826376308,-39375.234959019814
1710826376348,-39440.26061174343
1710826376388,-39694.084212203976
1710826376428,-40904.48506843462
1710826376468,-45270.859183867695
1710826376508,-47811.35214237147
1710826376548,-48137.217446503
1710826376588,-51059.354155797046
1710826376628,-51510.72441323777
1710826376668,-51855.65602084203
1710826376708,-51855.65602084203
1710826376748,-51855.65602084203
1710826376788,-51855.65602084203
1710826376828,-51855.65602084203
1710826376868,-51855.65602084203
1710826376908,-51855.65602084203
1710826376948,-51880.02377218101
1710826376988,-51510.72441323777
1710826377028,-51510.72441323777
1710826377068,-51059.354155797046
1710826377108,-48497.70358421933
1710826377148,-48137.217446503
1710826377188,-48008.609882111894
1710826377228,-47811.35214237147
1710826377268,-47055.72059416142
1710826377308,-43336.65290933824
1710826377348,-42349.56214781338
1710826377388,-41457.69797964627
1710826377428,-39672.504554463085
1710826377468,-37809.65108266543
1710826377508,-37458.71859895764
1710826377548,-33538.412347499514
1710826377588,-30063.883613004582
1710826377628,-25824.910634331172
1710826377668,-22974.828336215112
1710826377708,-15257.497317024041
1710826377748,-3649.0853494061157
1710826377788,-3426.2216271858197
1710826377828,-1176.529920194298
1710826377868,-624.3646523652133
1710826377908,680.7390533010475
1710826377948,1030.410311897751
1710826377988,1030.410311897751
1710826378028,1030.410311897751
1710826378068,1030.410311897751
1710826378108,1030.410311897751
1710826378148,1030.410311897751
1710826378188,1030.410311897751
1710826378228,680.7390533010475
1710826378268,-257.00868669804186
1710826378308,-624.3646523652133
1710826378348,-1176.529920194298
1710826378388,-2362.9254193487577
1710826378428,-3426.2216271858197
1710826378468,-3431.5548352957703
1710826378508,-3472.33260375401
1710826378548,-6023.805563018192
1710826378588,-8965.12808744656
1710826378628,-10013.542870464968
1710826378668,-10854.941840969026
1710826378708,-10908.156236756826
1710826378748,-10910.410947484197
1710826378788,-14508.609712200006
1710826378828,-17788.954533994896
1710826378868,-24825.98917928571
1710826378908,-25552.621971751796
1710826378948,-28070.419558020774
1710826378988,-28070.419558020774
1710826379028,-28070.419558020774
1710826379068,-28070.419558020774
1710826379108,-28070.419558020774
1710826379148,-28070.419558020774
1710826379188,-28070.419558020774
1710826379228,-28070.419558020774
1710826379268,-28070.419558020774
1710826379308,-28070.419558020774
1710826379348,-28070.419558020774
1710826379388,-12413.938248265535
1710826379428,-10006.21165196551
1710826379468,-8653.7540358291
1710826379508,-8501.20462923497
1710826379548,-7842.420462849317
1710826379588,-6705.591913918499
1710826379628,-6705.591913918499
1710826379668,-6705.591913918499
1710826379708,-6705.591913918499
1710826379748,-6705.591913918499
1710826379788,-6705.591913918499
1710826379828,-6170.698040701449
1710826379868,-6029.299518100452
1710826379908,-6029.299518100452
1710826379948,-5666.263681789162
1710826379988,-5666.263681789162
1710826380028,-5666.263681789162
1710826380068,-5666.263681789162
1710826380108,-6029.299518100452
1710826380148,-6705.591913918499
1710826380188,-6705.591913918499
1710826380228,-6705.591913918499
1710826380268,-6705.591913918499
1710826380308,-7885.028136644047
1710826380348,-8085.372689889744
1710826380388,-9024.343914512312
1710826380428,-9029.575723642949
1710826380468,-9142.46473213192
1710826380508,-9191.05510538374
1710826380548,-9191.05510538374
1710826380588,-9142.46473213192
1710826380628,-9142.46473213192
1710826380668,-9142.46473213192
1710826380708,-9142.46473213192
1710826380748,-9142.46473213192
1710826380788,-9142.46473213192
1710826380828,-9142.46473213192
1710826380868,-9142.46473213192
1710826380908,-9142.46473213192
1710826380948,-7708.159285433358
1710826380988,-6841.545106002595
1710826381028,-5868.204261062667
1710826381068,-5517.721891983878
1710826381108,-5517.721891983878
1710826381148,-5428.515493446961
1710826381188,-5377.195297475904
1710826381228,-5121.954386780504
1710826381268,-5107.751649301965
1710826381308,-4344.787634194596
1710826381348,-4089.1838235508185
1710826381388,-3913.3197188139893
1710826381428,-3329.0264268284664
1710826381468,-2116.7446366581134
1710826381508,-2116.7446366581134
1710826381548,-2116.7446366581134
1710826381588,-2116.7446366581134
1710826381628,-2116.7446366581134
1710826381668,-2116.7446366581134
1710826381708,-2116.7446366581134
1710826381748,-1472.4568294561468
1710826381788,-38.77660130197182
1710826381828,276.22039060434327
1710826381868,276.22039060434327
1710826381908,660.302251023706
1710826381948,1292.225119515555
1710826381988,1452.1390220746398
1710826382028,1624.8644445720129
1710826382068,1983.9325253369752
1710826382108,2467.661942671519
1710826382148,2475.040055840742
1710826382188,2631.979628005065
1710826382228,2949.5473192818463
1710826382268,3303.9772373004816
1710826382308,3394.0025780368596
1710826382348,3394.0025780368596
1710826382388,3394.0025780368596
1710826382428,3394.0025780368596
1710826382468,3394.0025780368596
1710826382508,3394.0025780368596
1710826382548,3394.0025780368596
1710826382588,5345.831822605338
1710826382628,6431.497041589348
1710826382668,6431.497041589348
1710826382708,6431.497041589348
1710826382748,6431.497041589348
1710826382788,6431.497041589348
1710826382828,6431.497041589348
1710826382868,6431.497041589348
1710826382908,6431.497041589348
1710826382948,6431.497041589348
1710826382988,6431.497041589348
1710826383028,6431.497041589348
1710826383068,6162.078912062338
1710826383108,5693.912227841793
1710826383148,5639.455233840039
1710826383188,5639.455233840039
1710826383228,5639.455233840039
1710826383268,5639.455233840039
1710826383308,5639.455233840039
1710826383348,5639.455233840039
1710826383388,5639.455233840039
1710826383428,5639.455233840039
1710826383468,5639.455233840039
1710826383508,5639.455233840039
1710826383548,6162.078912062338
1710826383588,8034.53073374927
1710826383628,8034.53073374927
1710826383668,8034.53073374927
1710826383708,8034.53073374927
1710826383748,8219.824956468306
1710826383788,8219.824956468306
1710826383828,8219.824956468306
1710826383868,8219.824956468306
1710826383908,8659.273942465428
1710826383948,8739.816443925723
1710826383988,9356.369337328244
1710826384028,10124.4213481138
1710826384068,10124.4213481138
1710826384108,10124.4213481138
1710826384148,10124.4213481138
1710826384188,10124.4213481138
1710826384228,10124.4213481138
1710826384268,10124.4213481138
1710826384308,10124.4213481138
1710826384348,10124.4213481138
1710826384388,10617.040840546135
1710826384428,11338.161302252673
1710826384468,11435.695394267095
1710826384508,11922.480775668519
1710826384548,12593.092880377546
1710826384588,12593.092880377546
1710826384628,12699.769017887069
1710826384668,12809.712632574607
1710826384708,13608.421456626384
1710826384748,13703.967195404693
1710826384788,13867.46227750997
1710826384828,13913.969240699895
1710826384868,13945.22246083594
1710826384908,14433.372732388321
1710826384948,14848.837231372483
1710826384988,14943.833135141525
1710826385028,15194.131568264216
1710826385068,15239.2601439422
1710826385108,15239.2601439422
1710826385148,15239.2601439422
1710826385188,15239.2601439422
1710826385228,15239.2601439422
1710826385268,14943.833135141525
1710826385308,14943.833135141525
1710826385348,14943.833135141525
1710826385388,14943.833135141525
1710826385428,14943.833135141525
1710826385468,14943.833135141525
1710826385508,14943.833135141525
1710826385548,14943.833135141525
1710826385588,14943.833135141525
1710826385628,14005.562967004254
1710826385668,14005.562967004254
1710826385708,12928.839378543664
1710826385748,12835.388871806208
1710826385837,12835.388871806208
1710826385877,12835.388871806208
1710826385918,12835.388871806208
1710826385958,12835.388871806208
1710826385998,12835.388871806208
1710826386038,12835.388871806208
1710826386078,12835.388871806208
1710826386118,12835.388871806208
1710826386159,12760.567539959215
1710826386199,12760.567539959215
1710826386239,12760.567539959215
1710826386279,12615.835559525527
1710826386319,12407.375880003441
1710826386360,12273.47989526554
1710826386399,11646.423030189006
1710826386439,11646.423030189006
1710826386479,11646.423030189006
1710826386519,11646.423030189006
1710826386560,11646.423030189006
1710826386600,10015.943594799843
1710826386640,9693.811479223426
1710826386680,9568.88726795651
1710826386720,9305.533373664832
1710826386761,9301.719952725805
1710826386800,9301.719952725805
1710826386840,9301.719952725805
1710826386881,9301.719952725805
1710826386921,9301.719952725805
1710826386961,9301.719952725805
1710826387001,8923.388585394248
1710826387041,8841.410900901537
1710826387081,8841.410900901537
1710826387121,8841.410900901537
1710826387162,8743.972240105737
1710826387201,8475.788979128469
1710826387242,8319.17186464928
1710826387282,8015.292082544882
1710826387322,8015.292082544882
1710826387363,8015.292082544882
1710826387402,6039.816367938183
1710826387442,2983.3461176478304
1710826387482,2086.903674930334
1710826387522,2086.903674930334
1710826387563,2086.903674930334
1710826387603,2086.903674930334
1710826387643,2086.903674930334
1710826387683,2086.903674930334
1710826387723,2086.903674930334
1710826387764,2086.903674930334
1710826387803,2086.903674930334
1710826387843,2086.903674930334
1710826387883,2086.903674930334
1710826387924,2086.903674930334
1710826387965,2086.903674930334
1710826388004,2086.903674930334
1710826388044,2086.903674930334
1710826388084,2086.903674930334
1710826388124,2086.903674930334
1710826388165,2086.903674930334
1710826388205,2086.903674930334
1710826388245,2086.903674930334
1710826388285,2086.903674930334
1710826388325,64.54645848576911
1710826388366,64.54645848576911
1710826388405,64.54645848576911
1710826388445,64.54645848576911
1710826388485,64.54645848576911
1710826388526,64.54645848576911
1710826388567,64.54645848576911
1710826388606,64.54645848576911
1710826388646,64.54645848576911
1710826388686,64.54645848576911
1710826388726,64.54645848576911
1710826388767,189.56857311259955
1710826388807,189.56857311259955
1710826388847,189.56857311259955
1710826388887,189.56857311259955
1710826388927,189.56857311259955
1710826388968,189.56857311259955
1710826389007,189.56857311259955
1710826389048,189.56857311259955
1710826389088,189.56857311259955
1710826389128,189.56857311259955
1710826389169,189.56857311259955
1710826389208,-541.5314551154152
1710826389248,-541.5314551154152
1710826389289,-541.5314551154152
1710826389329,-541.5314551154152
1710826389370,-541.5314551154152
1710826389409,-541.5314551154152
1710826389449,-541.5314551154152
1710826389489,-541.5314551154152
1710826389530,-541.5314551154152
1710826389570,-541.5314551154152
1710826389610,-541.5314551154152
1710826389650,-541.5314551154152
1710826389690,-541.5314551154152
1710826389730,-541.5314551154152
1710826389771,-541.5314551154152
1710826389811,-541.5314551154152
1710826389851,-541.5314551154152
1710826389891,-541.5314551154152
1710826389931,-541.5314551154152
1710826389972,-541.5314551154152
1710826390012,-541.5314551154152
1710826390052,-2393.0205351444893
1710826390092,-4075.0236368845217
1710826390132,-4075.0236368845217
1710826390173,-4075.0236368845217
1710826390212,-4075.0236368845217
1710826390253,-4075.0236368845217
1710826390293,-4075.0236368845217
1710826390333,-4075.0236368845217
1710826390374,-4075.0236368845217
1710826390413,-4075.0236368845217
1710826390454,-4075.0236368845217
1710826390494,-4115.833739984548
1710826390534,-4652.354190937243
1710826390575,-4652.354190937243
1710826390614,-4652.354190937243
1710826390655,-4652.354190937243
1710826390695,-4652.354190937243
1710826390735,-4652.354190937243
1710826390776,-4652.354190937243
1710826390816,-4652.354190937243
1710826390856,-4652.354190937243
1710826390896,-4956.123524831608
1710826390936,-6000.17336495081
1710826390977,-6000.17336495081
1710826391017,-6000.17336495081
1710826391057,-6000.17336495081
1710826391097,-6000.17336495081
1710826391138,-6000.17336495081
1710826391179,-6000.17336495081
1710826391218,-6000.17336495081
1710826391258,-6000.17336495081
1710826391299,-6000.17336495081
1710826391339,-6000.17336495081
1710826391380,-6000.17336495081
1710826391419,-6000.17336495081
1710826391460,-6000.17336495081
1710826391500,-6000.17336495081
1710826391540,-6000.17336495081
1710826391581,-6000.17336495081
1710826391621,-6000.17336495081
1710826391661,-6000.17336495081
1710826391701,-6000.17336495081
1710826391741,-6000.17336495081
1710826391782,-8454.461187271867
1710826391822,-8454.461187271867
1710826391862,-8454.461187271867
1710826391902,-8454.461187271867
1710826391943,-8454.461187271867
1710826391983,-8454.461187271867
1710826392023,-8454.461187271867
1710826392063,-8454.461187271867
1710826392103,-8454.461187271867
1710826392144,-8454.461187271867
1710826392185,-8454.461187271867
1710826392224,-7866.8300554594025
1710826392265,-7020.499258073047
1710826392305,-7020.499258073047
1710826392345,-7020.499258073047
1710826392386,-7020.499258073047
1710826392426,-7020.499258073047
1710826392466,-7020.499258073047
1710826392506,-7020.499258073047
1710826392547,-7020.499258073047
1710826392588,-7020.499258073047
1710826392627,-7020.499258073047
1710826392668,-7020.499258073047
1710826392708,-10840.092376773246
1710826392748,-15785.715497034136
1710826392789,-17472.105947543867
1710826392828,-20972.409052097937
1710826392868,-20972.409052097937
1710826392909,-20972.409052097937
1710826392949,-20972.409052097937
1710826392989,-20972.409052097937
1710826393029,-20972.409052097937
1710826393069,-20972.409052097937
1710826393109,-20972.409052097937
1710826393150,-20972.409052097937
1710826393190,-20972.409052097937
1710826393230,-20972.409052097937
1710826393271,-7835.784106974257
1710826393311,-1973.546976490412
1710826393351,4337.195302316686
1710826393392,5871.496714450885
1710826393431,8729.582858978305
1710826393472,16963.799603995634
1710826393512,16963.799603995634
1710826393552,17436.928100295598
1710826393593,21444.50807312876
1710826393632,22133.3486108887
1710826393673,23664.85040583182
1710826393713,24092.694709031377
1710826393753,25299.39610664663
1710826393794,26394.333048467524
1710826393833,27875.626925229328
1710826393874,30292.120639369125
1710826393914,30538.734635697678
1710826393954,31785.73772975197
1710826393995,33930.269407073036
1710826394035,33930.269407073036
1710826394075,33930.269407073036
1710826394115,33930.269407073036
1710826394155,33930.269407073036
1710826394196,33930.269407073036
1710826394236,33930.269407073036
1710826394277,33930.269407073036
1710826394317,33930.269407073036
1710826394357,33930.269407073036
1710826394398,33930.269407073036
1710826394438,28956.785685503855
1710826394478,21198.542593109887
1710826394518,14304.162433105987
1710826394558,-1642.1968663402367
1710826394599,-5111.149812105112
1710826394639,-12523.897309161257
1710826394679,-15804.056861622026
1710826394720,-16339.523343755398
1710826394760,-17823.176663753577
1710826394801,-18708.225828720722
1710826394840,-19910.646565664094
1710826394880,-20630.26339225215
1710826394921,-21382.71586941043
1710826394961,-21885.12224193616
1710826395002,-22616.538314458216
1710826395041,-23741.985041352455
1710826395082,-23741.985041352455
1710826395122,-23911.735212211497
1710826395162,-24153.62179925712
1710826395203,-24153.62179925712
1710826395243,-23911.735212211497
1710826395283,-23741.985041352455
1710826395323,-23741.985041352455
1710826395363,-23741.985041352455
1710826395404,-23741.985041352455
1710826395444,-23741.985041352455
1710826395484,-23741.985041352455
1710826395524,-23525.15959938802
1710826395565,-23525.15959938802
1710826395605,-22616.538314458216
1710826395645,-20628.668929470703
1710826395685,-1036.4124376687687
1710826395725,4990.445880400948
1710826395766,5257.6974420927
1710826395807,5912.067220446188
1710826395846,6809.6101497842465
1710826395887,7067.746038876241
1710826395927,8057.039808654226
1710826395967,11997.714861382032
1710826396008,16163.519342981279
1710826396048,19431.240607066546
1710826396088,22604.0931907068
1710826396128,28012.105490293354
1710826396168,28567.01431960007
1710826396209,28567.01431960007
1710826396248,28567.01431960007
1710826396289,28567.01431960007
1710826396329,28567.01431960007
1710826396369,28567.01431960007
1710826396410,28567.01431960007
1710826396449,28567.01431960007
1710826396489,28567.01431960007
1710826396530,28567.01431960007
1710826396570,28567.01431960007
1710826396611,26818.91453376226
1710826396650,25623.41988043813
1710826396690,25185.581400988158
1710826396730,25122.005630868254
1710826396771,22670.80873055826
1710826396811,22415.32101307297
1710826396851,20711.565415844554
1710826396891,19368.19445717847
1710826396931,18546.73672185
1710826396971,18101.60694601247
1710826397013,17899.720531942556
1710826397052,15413.993524526944
1710826397092,12723.791916184127
1710826397132,9637.508985661203
1710826397172,6270.71910309419
1710826397213,1276.1238451409154
1710826397253,-2797.114208209794
1710826397293,-3561.3563948720694
1710826397333,-3561.3563948720694
1710826397374,-3561.3563948720694
1710826397414,-3561.3563948720694
1710826397454,-3561.3563948720694
1710826397494,-3561.3563948720694
1710826397534,-3561.3563948720694
1710826397575,-3561.3563948720694
1710826397616,-3777.2208690375555
1710826397655,-4770.648351103999
1710826397695,-4825.069802235346
1710826397736,-5498.599211919587
1710826397776,-5714.582574956818
1710826397817,-5753.202241454506
1710826397857,-5753.202241454506
1710826397898,-5753.202241454506
1710826397938,-5753.202241454506
1710826397979,-5753.202241454506
1710826398019,-5753.202241454506
1710826398059,-9470.618809211534
1710826398099,-9470.618809211534
1710826398139,-9470.618809211534
1710826398179,-9470.618809211534
1710826398220,-9470.618809211534
1710826398259,-9470.618809211534
1710826398299,-9470.618809211534
1710826398340,-9470.618809211534
1710826398380,-9470.618809211534
1710826398420,-9470.618809211534
1710826398460,-9607.57951229019
1710826398500,-9607.57951229019
1710826398540,-9607.57951229019
1710826398580,-9607.57951229019
1710826398621,-9607.57951229019
1710826398660,-9470.618809211534
1710826398701,-9457.155548488256
1710826398741,-9414.534120453056
1710826398781,-9410.984782563057
1710826398822,-9004.757431049831
1710826398861,-9004.757431049831
1710826398901,-9004.757431049831
1710826398941,-9004.757431049831
1710826398981,-9410.984782563057
1710826399022,-9414.534120453056
1710826399062,-9640.560533441138
1710826399102,-9690.71935450565
1710826399142,-9690.71935450565
1710826399182,-9690.71935450565
1710826399223,-9872.405002174666
1710826399262,-10072.816292493371
1710826399303,-10305.713668505196
1710826399343,-10305.713668505196
1710826399383,-10305.713668505196
1710826399424,-10072.816292493371
1710826399463,-9872.405002174666
1710826399503,-9872.405002174666
1710826399543,-9872.405002174666
1710826399583,-9872.405002174666
1710826399624,-9872.405002174666
1710826399664,-9872.405002174666
1710826399704,-9690.71935450565
1710826399744,-9471.12091977615
1710826399784,-9367.168722837465
1710826399825,-7394.840235072188
1710826399864,-5636.6221927443985
1710826399904,-4931.433458319167
1710826399945,-4704.559944932815
1710826399985,-3923.314746017102
1710826400026,-2738.7261105952784
1710826400065,-1014.8067577006295
1710826400105,484.9642868745141
1710826400145,3893.983980569057
1710826400185,7114.352270653471
1710826400226,10460.367690460756
1710826400266,11279.361905272119
1710826400306,11279.361905272119
1710826400346,11279.361905272119
1710826400386,11279.361905272119
1710826400427,11279.361905272119
1710826400466,12726.733085751766
1710826400507,14876.706395520363
1710826400547,15063.583621581085
1710826400587,16824.76676012855
1710826400628,17518.83783437847
1710826400667,17897.034205900738
1710826400707,19476.470193775604
1710826400747,21166.686834278982
1710826400787,21310.859200149775
1710826400828,21166.686834278982
1710826400868,20129.247850193875
1710826400908,17897.034205900738
1710826400948,16824.76676012855
1710826400988,15063.583621581085
1710826401028,15048.139096107334
1710826401068,15048.139096107334
1710826401108,15048.139096107334
1710826401148,15048.139096107334
1710826401188,15048.139096107334
1710826401229,15048.139096107334
1710826401268,15048.139096107334
1710826401308,11052.814958159812
1710826401349,8072.8383761532605
1710826401389,6978.931521712802
1710826401429,5729.130535514094
1710826401469,4551.633761444595
1710826401509,2612.6423175153323
1710826401549,548.4683641637675
1710826401589,-1223.1486918795854
1710826401630,-2545.076329074567
1710826401669,-3742.3895422597416
1710826401710,-5444.1346741728485
1710826401750,-5916.599639787804
1710826401790,-6063.234014683403
1710826401830,-6223.721956395777
1710826401870,-6241.970661791973
1710826401910,-6401.30165239051
1710826401950,-7028.281531210523
1710826401990,-7616.931678228546
1710826402031,-11461.767067779554
1710826402070,-17528.350944187026
1710826402110,-19364.05041981279
1710826402150,-23136.79974060785
1710826402191,-23136.79974060785
1710826402231,-23136.79974060785
1710826402271,-23136.79974060785
1710826402311,-23136.79974060785
1710826402351,-23136.79974060785
1710826402391,-23136.79974060785
1710826402432,-23136.79974060785
1710826402471,-23894.37389650056
1710826402511,-24170.45059159724
1710826402551,-24170.45059159724
1710826402591,-24170.45059159724
1710826402632,-23894.37389650056
1710826402672,-23058.835695419228
1710826402712,-21729.503700244706
1710826402752,-20412.314471009187
1710826402792,-19894.056467603892
1710826402833,-18577.430808029836
1710826402872,-18064.31161626056
1710826402912,-17119.957235986367
1710826402952,-15978.580818904331
1710826402992,-14449.906931401696
1710826403033,-9080.353634287138
1710826403073,-4659.003767751856
1710826403113,-1047.3366212076508
1710826403153,2559.6189645042177
1710826403193,5226.106400460703
1710826403234,8395.756728375563
1710826403273,10871.88305547554
1710826403313,12023.746973634232
1710826403353,12947.83777049603
1710826403393,16098.156623635907
1710826403434,18478.400678480742
1710826403473,19490.89894732088
1710826403514,20461.81493885559
1710826403554,20461.81493885559
1710826403594,20701.84566519549
1710826403635,20767.777411534684
1710826403674,21075.635777857155
1710826403714,21479.68528886931
1710826403754,21669.419404519722
1710826403794,21758.335582059808
1710826403835,21969.62596108322
1710826403875,22548.20806794986
1710826403915,22548.20806794986
1710826403955,22548.20806794986
1710826403995,22548.20806794986
1710826404036,22548.20806794986
1710826404075,23679.890858991304
1710826404115,26625.51052972488
1710826404155,27691.04931831034
1710826404195,28024.725731977727
1710826404236,28294.883561650757
1710826404276,28892.46598648606
1710826404316,29409.107772556134
1710826404356,29841.121622092323
1710826404396,29884.33640334569
1710826404437,30921.156371494522
1710826404476,31134.396317254286
1710826404516,32438.579620565986
1710826404557,32586.25851430185
1710826404597,32715.440807691542
1710826404637,33631.48574315477
1710826404677,34406.4949504449
1710826404717,34618.892497152556
1710826404757,35170.61746786861
1710826404797,35315.01169099705
1710826404838,35524.673159842845
1710826404877,35524.673159842845
1710826404917,35524.673159842845
1710826404958,35524.673159842845
1710826404998,35524.673159842845
1710826405038,35524.673159842845
1710826405078,35524.673159842845
1710826405118,35524.673159842845
1710826405158,35170.61746786861
1710826405198,35170.61746786861
1710826405239,35170.61746786861
1710826405278,31959.38504157099
1710826405319,27438.79946482042
1710826405359,24327.510606014635
1710826405399,17498.77181870723
1710826405440,10826.744204178452
1710826405479,5850.852820934262
1710826405519,2660.092687607277
1710826405560,111.37516513303854
1710826405600,-2773.8480751733296
1710826405641,-3117.825488712173
1710826405680,-3359.8939837003127
1710826405720,-3421.9754962846637
1710826405760,-3509.0904189124703
1710826405801,-3642.313726800494
1710826405842,-3793.242731365608
1710826405881,-4252.236497214064
1710826405921,-4472.174841478001
1710826405962,-4491.916124556912
1710826406002,-5394.483720806427
1710826406043,-5723.274410146289
1710826406082,-10908.25015458325
1710826406123,-16355.578483527526
1710826406163,-18950.38516746834
1710826406203,-21212.965362206334
1710826406244,-22091.697714162525
1710826406284,-22121.577893328387
1710826406324,-22121.577893328387
1710826406364,-22121.577893328387
1710826406404,-22121.577893328387
1710826406445,-22638.68176545389
1710826406485,-22664.127221623436
1710826406525,-22691.410748910625
1710826406565,-22725.69370664796
1710826406605,-23256.025980312377
1710826406646,-23256.025980312377
1710826406686,-23256.025980312377
1710826406726,-23256.025980312377
1710826406767,-23256.025980312377
1710826406807,-23316.32510029734
1710826406848,-23375.43997471803
1710826406888,-27080.774487779476
1710826406928,-31246.631877804175
1710826406968,-38132.81593606016
1710826407008,-38132.81593606016
1710826407049,-38132.81593606016
1710826407088,-38132.81593606016
1710826407129,-38132.81593606016
1710826407169,-38132.81593606016
1710826407209,-38132.81593606016
1710826407250,-38132.81593606016
1710826407289,-38132.81593606016
1710826407329,-38567.56366681121
1710826407370,-38857.99644725304
1710826407410,-38960.86948312726
1710826407450,-39619.99003865942
1710826407490,-39619.99003865942
1710826407530,-39619.99003865942
1710826407570,-39774.2312757452
1710826407611,-39774.2312757452
1710826407651,-40234.84254519525
1710826407691,-41119.02535154787
1710826407731,-41273.84963675495
1710826407771,-41328.7751400962
1710826407811,-41328.7751400962
1710826407852,-41328.7751400962
1710826407892,-41328.7751400962
1710826407932,-41328.7751400962
1710826407972,-41328.7751400962
1710826408012,-41328.7751400962
1710826408053,-41328.7751400962
1710826408093,-41328.7751400962
1710826408133,-41328.7751400962
1710826408173,-41328.7751400962
1710826408213,-40120.67765083467
1710826408254,-36808.86365127051
1710826408294,-35456.70336429216
1710826408334,-33627.804206000874
1710826408374,-32388.22972201486
1710826408414,-31846.356689632405
1710826408456,-31302.46021466097
1710826408495,-31119.26265372918
1710826408535,-30691.864475833252
1710826408576,-30363.19731193129
1710826408616,-27661.130320038414
1710826408657,-27454.713074906264
1710826408696,-27229.55533598014
1710826408736,-26412.259631499648
1710826408777,-26171.623269309755
1710826408817,-26052.785842489917
1710826408858,-25128.02695451863
1710826408897,-24459.541296074167
1710826408938,-23437.794480815297
1710826408978,-22413.11862370791
1710826409018,-21046.609328913968
1710826409059,-19128.66607823316
1710826409099,-18976.603664551163
1710826409139,-18976.603664551163
1710826409179,-18916.21758714784
1710826409220,-17932.911959533114
1710826409261,-17526.750831717625
1710826409300,-17526.750831717625
1710826409341,-17526.750831717625
1710826409381,-17498.909285032656
1710826409421,-16933.668355918024
1710826409462,-16616.250218104804
1710826409502,-16123.841222855961
1710826409542,-15180.19125128095
1710826409582,-15001.043671673164
1710826409622,-15001.043671673164
1710826409663,-15001.043671673164
1710826409703,-15001.043671673164
1710826409743,-15001.043671673164
1710826409783,-15001.043671673164
1710826409824,-15001.043671673164
1710826409864,-14751.654487160267
1710826409904,-13024.356900520623
1710826409943,-12292.345028525451
1710826409983,-11944.908493664116
1710826410023,-11832.544739568839
1710826410064,-11598.2520549139
1710826410104,-11358.566902937368
1710826410144,-11162.725055276416
1710826410184,-10609.438072497956
1710826410224,-10135.560609221226
1710826410265,-9960.263523184462
1710826410304,-9376.171469447203
1710826410344,-9247.188456418458
1710826410385,-7735.50612876052
1710826410425,-6745.617083699908
1710826410465,-6347.159500912763
1710826410505,-4796.197992889909
1710826410545,-4796.197992889909
1710826410585,-4796.197992889909
1710826410625,-4718.309815376066
1710826410666,-2922.57891616039
1710826410705,926.3644934054464
1710826410745,2709.345744807506
1710826410785,4461.043178748805
1710826410825,4551.480181089602
1710826410866,4694.861076228786
1710826410906,5550.571204464883
1710826410946,5580.18173396471
1710826410986,6131.332735746866
1710826411026,6525.53405894991
1710826411067,7481.199115839787
1710826411106,7504.9453643208835
1710826411146,7698.094172965735
1710826411186,7708.069448766066
1710826411226,7869.0186996948905
1710826411267,7869.0186996948905
1710826411306,7708.069448766066
1710826411347,7698.094172965735
1710826411387,7698.094172965735
1710826411427,7698.094172965735
1710826411468,7698.094172965735
1710826411507,7698.094172965735
1710826411547,7698.094172965735
1710826411587,7698.094172965735
1710826411627,7481.199115839787
1710826411668,7407.743077984545
1710826411707,7407.743077984545
1710826411747,3945.5572850126773
1710826411787,3945.5572850126773
1710826411828,3945.5572850126773
1710826411868,3945.5572850126773
1710826411908,3945.5572850126773
1710826411948,3945.5572850126773
1710826411988,3945.5572850126773
1710826412028,3945.5572850126773
1710826412069,3945.5572850126773
1710826412108,3735.185740120709
1710826412148,3057.6461180804763
1710826412188,2978.3881354425102
1710826412228,2757.821228362387
1710826412269,2757.821228362387
1710826412309,2757.821228362387
1710826412349,2477.913263601251
1710826412389,2477.913263601251
1710826412429,2477.913263601251
1710826412470,2477.913263601251
1710826412509,2525.177301004529
1710826412549,2525.177301004529
1710826412589,2525.177301004529
1710826412629,2525.177301004529
1710826412670,2525.177301004529
1710826412709,2525.177301004529
1710826412750,2525.177301004529
1710826412790,2525.177301004529
1710826412830,2525.177301004529
1710826412870,2525.177301004529
1710826412910,2525.177301004529
1710826412950,2525.177301004529
1710826412990,2525.177301004529
1710826413030,2525.177301004529
1710826413071,2525.177301004529
1710826413110,2525.177301004529
1710826413151,2525.177301004529
1710826413191,2525.177301004529
1710826413231,2525.177301004529
1710826413271,2525.177301004529
1710826413311,2525.177301004529
1710826413351,1016.8256439510733
1710826413391,-1092.6247441237792
1710826413431,-1106.6186435488053
1710826413472,-1106.6186435488053
1710826413511,-1106.6186435488053
1710826413551,-1106.6186435488053
1710826413591,-1106.6186435488053
1710826413632,-1106.6186435488053
1710826413672,-1156.2075928356498
1710826413712,-1512.144495532848
1710826413752,-1559.5789628643543
1710826413792,-1608.0658156499267
1710826413832,-1925.4059508242644
1710826413873,-2018.5974230365828
1710826413912,-2184.005158717511
1710826413952,-2468.0267949670088
1710826413993,-2747.2220389381982
1710826414033,-2802.8342423494905
1710826414073,-4385.978305238765
1710826414113,-4534.034970044624
1710826414153,-4534.034970044624
1710826414193,-4534.034970044624
1710826414233,-4534.034970044624
1710826414274,-4534.034970044624
1710826414313,-4534.034970044624
1710826414354,-4534.034970044624
1710826414394,-4534.034970044624
1710826414434,-4534.034970044624
1710826414474,-4534.034970044624
1710826414514,-4534.034970044624
1710826414554,-3662.171146641951
1710826414594,-3662.171146641951
1710826414634,-3662.171146641951
1710826414675,-3317.831527689472
1710826414714,-3317.831527689472
1710826414754,-3316.7752328719944
1710826414794,-3316.7752328719944
1710826414835,-3310.125754484907
1710826414875,-2968.1998024538625
1710826414915,-2671.422826501308
1710826414955,-1580.1689467679244
1710826414995,-1092.047878896352
1710826415035,-777.0370436687954
1710826415076,-777.0370436687954
1710826415115,-777.0370436687954
1710826415155,-777.0370436687954
1710826415195,-777.0370436687954
1710826415235,-777.0370436687954
1710826415276,-777.0370436687954
1710826415316,-133.4184193275869
1710826415356,1223.438365947688
1710826415396,2195.5876121385954
1710826415436,3177.152310796082
1710826415477,3177.152310796082
1710826415516,3177.152310796082
1710826415556,3177.152310796082
1710826415596,3177.152310796082
1710826415636,3177.152310796082
1710826415677,3177.152310796082
1710826415717,3177.152310796082
1710826415757,3925.9934110962786
1710826415797,4084.6953053355683
1710826415837,4633.866771805566
1710826415878,4712.946043698583
1710826415917,4712.946043698583
1710826415957,4712.946043698583
1710826415997,4712.946043698583
1710826416037,4712.946043698583
1710826416078,4712.946043698583
1710826416117,4712.946043698583
1710826416158,4712.946043698583
1710826416198,5520.914769062307
1710826416238,6238.732624154305
1710826416279,6554.555511948653
1710826416318,6819.357037523296
1710826416358,7356.359176465776
1710826416398,8196.605571254157
1710826416438,8282.2399877063
1710826416479,9161.994997641537
1710826416519,10775.382005142514
1710826416559,10922.722779149888
1710826416599,11279.911458692746
1710826416639,15133.269834875595
1710826416680,20781.822034575976
1710826416719,25163.620626147836
1710826416759,26939.522933621425
1710826416799,29034.40421458846
1710826416840,32279.830114341807
1710826416881,32279.830114341807
1710826416920,32279.830114341807
1710826416960,32279.830114341807
1710826417000,32279.830114341807
1710826417040,32279.830114341807
1710826417081,32279.830114341807
1710826417120,32279.830114341807
1710826417160,32279.830114341807
1710826417201,32279.830114341807
1710826417241,32279.830114341807
1710826417282,32190.99975409126
1710826417321,29431.39850916271
1710826417361,26334.691234130412
1710826417401,23118.966937440448
1710826417441,20598.373150471132
1710826417483,18402.28227838874
1710826417522,18402.28227838874
1710826417562,18402.28227838874
1710826417602,18402.28227838874
1710826417642,17830.95387451444
1710826417683,17587.24933557841
1710826417723,16167.579416448949
1710826417763,14955.359218046535
1710826417803,14417.456595659722
1710826417844,13809.261655039852
1710826417885,13326.188523750054
1710826417924,12190.258850050624
1710826417964,12152.79427040671
1710826418004,12152.79427040671
1710826418045,12152.79427040671
1710826418086,12152.79427040671
1710826418125,12152.79427040671
1710826418165,12152.79427040671
1710826418205,11285.883476865478
1710826418245,10331.176492312225
1710826418286,9535.334311780985
1710826418326,9193.131270940881
1710826418366,8821.28188502579
1710826418406,8610.659932975192
1710826418446,7843.373894299846
1710826418487,7550.55335610616
1710826418527,7180.171265611658
1710826418567,6933.734100109199
1710826418607,6737.4544117162
1710826418647,6727.229638684541
1710826418688,6553.685688687023
1710826418727,6216.55048198672
1710826418768,4939.573088641278
1710826418808,1080.5761616209056
1710826418848,-2871.3918425869197
1710826418889,-5302.816003488377
1710826418928,-5800.2941791922785
1710826418968,-6441.230307873106
1710826419009,-6441.230307873106
1710826419049,-6441.230307873106
1710826419090,-6441.230307873106
1710826419129,-6441.230307873106
1710826419170,-6441.230307873106
1710826419210,-6786.270147410454
1710826419250,-7125.941534941085
1710826419291,-7736.347695393488
1710826419330,-8270.1450025714
1710826419370,-8439.21391741559
1710826419411,-8456.17887150147
1710826419451,-8981.65294796601
1710826419492,-9086.12074064603
1710826419532,-9086.12074064603
1710826419572,-9086.12074064603
1710826419612,-9353.558763471898
1710826419652,-10520.99995981087
1710826419693,-12655.240563797066
1710826419733,-12668.687004711246
1710826419773,-12668.687004711246
1710826419813,-12668.687004711246
1710826419853,-12668.687004711246
1710826419895,-12668.687004711246
1710826419934,-12668.687004711246
1710826419974,-12668.687004711246
1710826420015,-12668.687004711246
1710826420055,-12668.687004711246
1710826420096,-13743.35303210537
1710826420135,-13991.30581288482
1710826420176,-14041.638541230932
1710826420218,-14041.638541230932
1710826420258,-14545.448843830498
1710826420299,-14551.535606106045
1710826420338,-14721.053693873342
1710826420379,-14721.053693873342
1710826420419,-14721.053693873342
1710826420459,-14948.322489058599
1710826420500,-15243.878821665887
1710826420540,-15243.878821665887
1710826420580,-15243.878821665887
1710826420620,-15243.878821665887
1710826420660,-15243.878821665887
1710826420701,-15243.878821665887
1710826420741,-15243.878821665887
1710826420781,-15243.878821665887
1710826420821,-15243.878821665887
1710826420862,-15243.878821665887
1710826420902,-15243.878821665887
1710826420942,-14738.330950070871
1710826420982,-14738.330950070871
1710826421022,-14531.19269369333
1710826421063,-14477.45896419906
1710826421104,-14134.026297527598
1710826421143,-13956.645768726012
1710826421184,-13148.343157522846
1710826421224,-13047.248410730623
1710826421264,-12907.757987235207
1710826421305,-12788.924630014692
1710826421344,-12251.722571457969
1710826421384,-11746.130105066812
1710826421425,-10917.396477237344
1710826421465,-10108.435228938702
1710826421506,-10108.435228938702
1710826421545,-10108.435228938702
1710826421585,-10108.435228938702
1710826421625,-10108.435228938702
1710826421666,-10108.435228938702
1710826421707,-10108.435228938702
1710826421746,-8675.719535976183
1710826421786,-7444.396893973229
1710826421826,-6751.635275364853
1710826421866,-4682.327579648234
1710826421907,-3925.445564556867
1710826421947,-3890.5385168227367
1710826421988,-3355.4968689382076
1710826422028,-3009.9342764986213
1710826422068,-2999.7775911402423
1710826422109,-1528.9332685791887
1710826422148,-1196.170964738354
1710826422188,-1094.2780543412082
1710826422228,-988.5741974799894
1710826422268,-830.6674777169246
1710826422309,-803.8232264015824
1710826422349,-512.3958892636001
1710826422389,-409.1619686745107
1710826422429,-409.1619686745107
1710826422469,529.4818154722452
1710826422510,1002.2156768245623
1710826422549,2269.6160237831064
1710826422589,5032.965451698285
1710826422629,8255.151389630046
1710826422669,12484.782286792295
1710826422710,19704.781712769996
1710826422749,27702.317457296187
1710826422790,33878.695366891334
1710826422830,37122.87997406628
1710826422870,41618.841197375674
1710826422911,46224.74768837076
1710826422950,49627.28851172794
1710826422990,50221.85356328008
1710826423030,50221.85356328008
1710826423070,50221.85356328008
1710826423111,50221.85356328008
1710826423151,50221.85356328008
1710826423191,50221.85356328008
1710826423231,50221.85356328008
1710826423271,50221.85356328008
1710826423312,50221.85356328008
1710826423351,50221.85356328008
1710826423391,50221.85356328008
1710826423431,49702.941822178196
1710826423471,48991.843709791545
1710826423512,48096.589131660294
1710826423551,47198.7611777375
1710826423592,43752.62406362081
1710826423632,38196.35074289958
1710826423672,34469.89539891342
1710826423713,33741.88617786532
1710826423752,32697.529795018956
1710826423792,31481.76546049211
1710826423832,31131.932622997323
1710826423872,31131.932622997323
1710826423913,30862.158574495465
1710826423952,30851.533245448954
1710826423993,30805.84298971831
1710826424033,30765.55903909728
1710826424073,30437.904406465124
1710826424114,30323.37535198126
1710826424153,30299.33114741277
1710826424193,29998.794194783084
1710826424233,29738.69174875808
1710826424273,29700.34446457168
1710826424314,29395.986028212355
1710826424354,28468.025367500028
1710826424394,27621.732881737407
1710826424434,27621.732881737407
1710826424474,27621.732881737407
1710826424514,27621.732881737407
1710826424554,27621.732881737407
1710826424594,27170.40547408024
1710826424634,27170.40547408024
1710826424674,27170.40547408024
1710826424715,25870.09731393028
1710826424754,23325.142545053503
1710826424795,23280.24910181854
1710826424835,22547.827571311034
1710826424875,21947.10306571657
1710826424916,21947.10306571657
1710826424955,21947.10306571657
1710826424995,21947.10306571657
1710826425035,21947.10306571657
1710826425075,21947.10306571657
1710826425116,21947.10306571657
1710826425155,20217.840389871504
1710826425196,18855.61867201561
1710826425236,17564.14023169619
1710826425276,16503.783618226647
1710826425317,16311.973801037297
1710826425356,14396.743923132308
1710826425396,13295.866213842994
1710826425436,11650.390956114978
1710826425476,11456.684459981509
1710826425517,10218.879963797983
1710826425557,9179.432196256705
1710826425597,8950.502159476979
1710826425637,8912.128567641601
1710826425677,8699.795080596115
1710826425718,8674.182359448168
1710826425757,8372.346382485237
1710826425797,8132.301772336476
1710826425837,4983.718114482239
1710826425877,1492.3688248470426
1710826425918,-1082.8941657072864
1710826425957,-1082.8941657072864
1710826425998,-1082.8941657072864
1710826426038,-1082.8941657072864
1710826426078,-1082.8941657072864
1710826426119,-1082.8941657072864
1710826426158,-1082.8941657072864
1710826426198,-1082.8941657072864
1710826426238,-1082.8941657072864
1710826426278,-1082.8941657072864
1710826426319,-1082.8941657072864
1710826426358,739.9583545764908
1710826426399,807.9962425241247
1710826426439,1528.4218666600063
1710826426479,6163.216451059096
1710826426520,6499.801156874513
1710826426559,8668.355879483745
1710826426599,10509.0598658924
1710826426639,14315.851512512658
1710826426679,14315.851512512658
1710826426720,14315.851512512658
1710826426760,14315.851512512658
1710826426800,14315.851512512658
1710826426840,14315.851512512658
1710826426880,14315.851512512658
1710826426921,14315.851512512658
1710826426960,14315.851512512658
1710826427000,14315.851512512658
1710826427040,14315.851512512658
1710826427080,13526.881240911782
1710826427121,13220.097586764488
1710826427161,13117.135437636636
1710826427201,12884.583230301738
1710826427241,12667.596041236073
1710826427281,12166.09593065735
1710826427322,6792.916818339378
1710826427361,1234.2463792823255
1710826427401,-695.3817661460489
1710826427441,-2573.456907642074
1710826427482,-2573.456907642074
1710826427522,-3082.1405274383724
1710826427562,-3082.1405274383724
1710826427602,-3082.1405274383724
1710826427642,-3691.6564038614742
1710826427682,-4280.222340042703
1710826427723,-4376.952169686556
1710826427763,-4709.646623938344
1710826427803,-4824.816094391979
1710826427843,-5026.297775682062
1710826427883,-5150.846435180865
1710826427924,-5339.706689663231
1710826427963,-5975.247035250068
1710826428003,-6924.44004419446
1710826428043,-7516.923255086876
1710826428083,-9199.544770189561
1710826428124,-9990.391465930268
1710826428163,-10211.117871331517
1710826428204,-10211.117871331517
1710826428243,-10211.117871331517
1710826428284,-10211.117871331517
1710826428325,-10211.117871331517
1710826428364,-10211.117871331517
1710826428404,-10211.117871331517
1710826428444,-10211.117871331517
1710826428484,-10424.146157496143
1710826428525,-10714.844527013134
1710826428564,-10764.036778225098
1710826428604,-10899.05853434652
1710826428644,-11207.39577080682
1710826428684,-11273.270746600349
1710826428725,-11273.270746600349
1710826428765,-11273.270746600349
1710826428805,-11207.39577080682
1710826428845,-10899.05853434652
1710826428885,-10424.146157496143
1710826428926,-9959.385563723277
1710826428965,-9883.46299882885
1710826429005,-8626.843485382386
1710826429045,-8201.182380519807
1710826429085,-8201.182380519807
1710826429126,-8201.182380519807
1710826429165,-8201.182380519807
1710826429205,-8201.182380519807
1710826429245,-8201.182380519807
1710826429286,-7193.045631496701
1710826429326,-7193.045631496701
1710826429366,-6980.3333351523615
1710826429406,-5911.0247332945
1710826429446,-5911.0247332945
1710826429486,-5682.041514770128
1710826429527,-5638.671496373136
1710826429566,-5346.34669040516
1710826429606,-4979.904575808207
1710826429647,-4362.926570423879
1710826429687,-4273.441830957076
1710826429728,-3930.7181879754644
1710826429767,-3202.663847524207
1710826429807,-2422.950192345772
1710826429847,-2422.950192345772
1710826429888,-2422.950192345772
1710826429928,-2422.950192345772
1710826429968,-2422.950192345772
1710826430008,-2422.950192345772
1710826430048,-1769.671328548342
1710826430090,-1769.671328548342
1710826430132,-1522.3011351954192
1710826430171,-1436.8970813557971
1710826430211,-491.55731473863125
1710826430251,-491.55731473863125
1710826430292,-491.55731473863125
1710826430333,-491.55731473863125
1710826430372,-491.55731473863125
1710826430412,-401.2690621269867
1710826430453,-401.2690621269867
1710826430493,-268.98839915473945
1710826430534,238.84395762975328
1710826430573,238.84395762975328
1710826430614,238.84395762975328
1710826430654,238.84395762975328
1710826430694,238.84395762975328
1710826430735,238.84395762975328
1710826430774,238.84395762975328
1710826430815,238.84395762975328
1710826430855,238.84395762975328
1710826430895,2776.5306126489304
1710826430936,5278.122476338409
1710826430976,7454.262555419467
1710826431016,12337.3806491117
1710826431056,12337.3806491117
1710826431097,12337.3806491117
1710826431137,12337.3806491117
1710826431177,12337.3806491117
1710826431217,12337.3806491117
1710826431257,12337.3806491117
1710826431298,12337.3806491117
1710826431339,12337.3806491117
1710826431378,12337.3806491117
1710826431418,12337.3806491117
1710826431459,10464.206561022904
1710826431499,10381.342559064273
1710826431540,10124.394084008876
1710826431580,8696.692855512723
1710826431620,8673.743170126108
1710826431660,8559.387762224302
1710826431700,8502.228821530472
1710826431741,8490.456307454966
1710826431781,7966.460746767698
1710826431821,7891.822574624792
1710826431861,7891.822574624792
1710826431901,7891.822574624792
1710826431943,7891.822574624792
1710826431982,7891.822574624792
1710826432022,7966.460746767698
1710826432063,8207.68373188749
1710826432103,8490.456307454966
1710826432145,8490.456307454966
1710826432184,8490.456307454966
1710826432224,8490.456307454966
1710826432265,8490.456307454966
1710826432305,9938.274256040342
1710826432346,14249.7666187156
1710826432385,17762.374350560363
1710826432425,20496.141858781688
1710826432465,20943.21537816152
1710826432506,20998.749198397156
1710826432547,21199.783748415764
1710826432586,21447.45129597094
1710826432626,21550.27753473632
1710826432666,21589.54054827057
1710826432706,21775.123595337383
1710826432747,21904.807305265218
1710826432787,21988.571288370527
1710826432827,22555.225828100927
1710826432867,23113.083975791465
1710826432907,24211.947658952326
1710826432948,24384.425045963377
1710826432988,24384.425045963377
1710826433028,25713.582735576667
1710826433068,29518.57731629815
1710826433108,31433.423677816987
1710826433149,31433.423677816987
1710826433189,31433.423677816987
1710826433229,31433.423677816987
1710826433269,31433.423677816987
1710826433309,31433.423677816987
1710826433350,31433.423677816987
1710826433390,31433.423677816987
1710826433430,31433.423677816987
1710826433470,31433.423677816987
1710826433511,31433.423677816987
1710826433552,27895.54264426045
1710826433591,21940.598710308783
1710826433631,16907.1766362451
1710826433672,13173.181163291913
1710826433712,9883.607141160872
1710826433753,7163.95509264851
1710826433792,2666.4519089125097
1710826433833,-1444.0951225981116
1710826433873,-4357.468633478042
1710826433913,-6588.850443136878
1710826433954,-7264.3407372850925
1710826433994,-7499.871348770801
1710826434033,-8748.412263196427
1710826434072,-12801.038419499528
1710826434111,-19049.3420964838
1710826434150,-21570.130494621582
1710826434189,-22017.416425233707
1710826434228,-27519.071780862287
1710826434267,-35840.88361795107
1710826434306,-41718.08777874755
1710826434345,-48359.42720196955
1710826434384,-50479.60581557453
1710826434423,-51480.77872698195
1710826434462,-51480.77872698195
1710826434501,-51480.77872698195
1710826434540,-51480.77872698195
1710826434579,-51480.77872698195
1710826434618,-51480.77872698195
1710826434657,-52112.67843105504
1710826434696,-53088.062382865464
1710826434735,-53415.71126993559
1710826434774,-54663.44267274719
1710826434814,-55140.02235073503
1710826434854,-55140.02235073503
1710826434894,-55140.02235073503
1710826434934,-55140.02235073503
1710826434974,-55110.62538194237
1710826435014,-53415.71126993559
1710826435054,-53088.062382865464
1710826435094,-52112.67843105504
1710826435134,-51564.842746740906
1710826435174,-51480.77872698195
1710826435214,-50588.788167072926
1710826435254,-50487.26394601702
1710826435294,-50487.26394601702
1710826435334,-50487.26394601702
1710826435374,-50487.26394601702
1710826435414,-50487.26394601702
1710826435454,-49916.741455606185
1710826435494,-49916.741455606185
1710826435534,-49916.741455606185
1710826435574,-49916.741455606185
1710826435614,-49916.741455606185
1710826435654,-49916.741455606185
1710826435694,-49916.741455606185
1710826435734,-49916.741455606185
1710826435774,-49916.741455606185
1710826435814,-49916.741455606185
1710826435854,-50630.5711693191
1710826435894,-50630.5711693191
1710826435934,-56618.23519367282
1710826435974,-57098.170258067315
1710826436014,-57098.170258067315
1710826436054,-57098.170258067315
1710826436094,-57098.170258067315
1710826436134,-57098.170258067315
1710826436174,-57098.170258067315
1710826436214,-57098.170258067315
1710826436254,-57098.170258067315
1710826436294,-57098.170258067315
1710826436334,-57098.170258067315
1710826436374,-57098.170258067315
1710826436414,-54178.807341204956
1710826436454,-54178.807341204956
1710826436494,-54178.807341204956
1710826436534,-54178.807341204956
1710826436574,-54178.807341204956
1710826436614,-54178.807341204956
1710826436654,-53014.675790358335
1710826436694,-53014.675790358335
1710826436734,-53014.675790358335
1710826436774,-53014.675790358335
1710826436814,-53014.675790358335
1710826436854,-53014.675790358335
1710826436894,-53014.675790358335
1710826436934,-53014.675790358335
1710826436974,-53014.675790358335
1710826437014,-53014.675790358335
1710826437054,-53014.675790358335
1710826437094,-53014.675790358335
1710826437134,-53014.675790358335
1710826437174,-53014.675790358335
1710826437214,-53014.675790358335
1710826437254,-47472.26473652804
1710826437294,-33400.24194052373
1710826437334,-32946.689986355836
1710826437374,-18580.622819177108
1710826437414,-17882.972074959427
1710826437454,-14249.60230777599
1710826437494,-8821.517534241313
1710826437534,-6337.089823194314
1710826437574,3784.583282090258
1710826437614,17467.76679274463
1710826437654,18381.742533812765
1710826437694,18562.79149320675
1710826437734,21570.954264711356
1710826437774,23923.722774511203
1710826437814,27106.89800212509
1710826437854,31557.999429006595
1710826437894,33361.93370559602
1710826437934,34537.94898179686
1710826437974,35905.20554912556
1710826438014,49215.63735382818
1710826438054,52947.804211417446
1710826438094,54125.66102884151
1710826438134,54125.66102884151
1710826438174,54125.66102884151
1710826438214,54125.66102884151
1710826438254,54125.66102884151
1710826438294,54125.66102884151
1710826438334,55958.88527228171
1710826438374,55958.88527228171
1710826438414,55958.88527228171
1710826438454,55958.88527228171
1710826438494,55994.18090945063
1710826438534,55958.88527228171
1710826438574,55958.88527228171
1710826438614,55958.88527228171
1710826438654,55958.88527228171
1710826438694,55958.88527228171
1710826438734,55958.88527228171
1710826438774,55958.88527228171
1710826438814,55958.88527228171
1710826438854,55958.88527228171
1710826438894,55958.88527228171
1710826438934,57227.9246692874
1710826438974,58383.529934016056
1710826439014,61295.927616914734
1710826439054,61295.927616914734
1710826439094,61295.927616914734
1710826439134,61295.927616914734
1710826439174,61295.927616914734
1710826439214,61295.927616914734
1710826439254,61295.927616914734
1710826439294,61295.927616914734
1710826439334,61295.927616914734
1710826439374,61295.927616914734
1710826439414,61295.927616914734
1710826439454,61228.672029642854
1710826439494,58662.077000438236
1710826439534,55358.86329800077
1710826439574,54859.684312197845
1710826439614,52534.186379309045
1710826439654,49352.80693434854
1710826439694,48329.88729552296
1710826439734,47601.08086259663
1710826439774,46573.407885719556
1710826439814,46340.229906448396
1710826439854,45498.85105097294
1710826439894,43974.337455692934
1710826439934,43837.557142904494
1710826439974,43539.39960636641
1710826440014,42642.518476097845
1710826440054,42168.65614079847
1710826440094,41587.079658601666
1710826440134,41531.891525518615
1710826440174,37015.47957447916
1710826440214,36025.56713560317
1710826440254,35912.14203220233
1710826440294,35126.91266762186
1710826440334,32916.14124656003
1710826440374,31845.04907061765
1710826440414,31548.861193682533
1710826440454,31439.511418376118
1710826440494,31222.944356129505
1710826440534,31214.76916435128
1710826440574,31109.242258610204
1710826440614,31076.609267277177
1710826440654,30783.381140774116
1710826440694,29975.670975074172
1710826440734,29762.431836341042
1710826440774,29460.693985919934
1710826440814,29459.523455615155
1710826440854,29134.324692509137
1710826440894,28852.468355435878
1710826440934,26100.810994319618
1710826440974,20103.718591832556
1710826441014,17965.360537682194
1710826441054,17235.334166569635
1710826441094,17144.59718119353
1710826441134,16782.544344735797
1710826441174,16247.808466460556
1710826441214,14398.22510689916
1710826441254,2159.2815129570663
1710826441294,-5631.649692794308
1710826441334,-5631.649692794308
1710826441374,-10173.328242596239
1710826441414,-12082.97793692723
1710826441454,-12082.97793692723
1710826441494,-12082.97793692723
1710826441534,-12082.97793692723
1710826441574,-12082.97793692723
1710826441614,-12082.97793692723
1710826441654,-12082.97793692723
1710826441694,-12082.97793692723
1710826441734,-10173.328242596239
1710826441774,-7819.950136961415
1710826441814,-5631.649692794308
1710826441854,-5592.449143504724
1710826441894,-3286.4174341922626
1710826441934,1280.7185346577317
1710826441974,11093.71998232603
1710826442014,14734.956086250022
1710826442054,14734.956086250022
1710826442094,14734.956086250022
1710826442134,14734.956086250022
1710826442174,15578.895669820718
1710826442214,21770.681490936782
1710826442254,21869.763142504264
1710826442294,22383.70811262261
1710826442334,24251.212847267278
1710826442374,24669.676476997323
1710826442414,24672.584809950553
1710826442454,25483.071127675008
1710826442494,25852.474967281334
1710826442534,25852.474967281334
1710826442574,25852.474967281334
1710826442614,25852.474967281334
1710826442654,25852.474967281334
1710826442694,25483.071127675008
1710826442734,25335.613410278223
1710826442774,21869.763142504264
1710826442814,14734.956086250022
1710826442854,10941.495753377676
1710826442894,10941.495753377676
1710826442934,10941.495753377676
1710826442974,5153.26450322289
1710826443014,-1494.8801626437344
1710826443054,-4472.804273405112
1710826443094,-4472.804273405112
1710826443134,-4472.804273405112
1710826443174,-4472.804273405112
1710826443214,-4472.804273405112
1710826443254,-4955.975693712942
1710826443294,-4955.975693712942
1710826443334,-4955.975693712942
1710826443374,-4955.975693712942
1710826443414,-4472.804273405112
1710826443454,-2792.355801234022
1710826443494,-2792.355801234022
1710826443534,-2792.355801234022
1710826443574,-2789.6441801730543
1710826443614,2034.5164153617807
1710826443654,2756.231863372028
1710826443694,2756.231863372028
1710826443734,2756.231863372028
1710826443774,2756.231863372028
1710826443814,2756.231863372028
1710826443854,2756.231863372028
1710826443894,2756.231863372028
1710826443934,2756.231863372028
1710826443974,2034.5164153617807
1710826444014,-2792.355801234022
1710826444054,-6222.1188442399725
1710826444094,-14005.322304366622
1710826444134,-14005.322304366622
1710826444174,-14005.322304366622
1710826444214,-14005.322304366622
1710826444254,-14005.322304366622
1710826444294,-14005.322304366622
1710826444334,-14005.322304366622
1710826444374,-16141.863208888099
1710826444414,-21565.118241490796
1710826444454,-22627.809023970738
1710826444494,-22627.809023970738
1710826444534,-21565.118241490796
1710826444574,-21299.740921955556
1710826444614,-16141.863208888099
1710826444654,-16141.863208888099
1710826444694,-16141.863208888099
1710826444734,-16141.863208888099
1710826444774,-16141.863208888099
1710826444814,-16141.863208888099
1710826444854,-16141.863208888099
1710826444894,-16141.863208888099
1710826444934,-17420.279761576094
1710826444974,-17420.279761576094
1710826445014,-17420.279761576094
1710826445054,-17420.279761576094
1710826445094,-17420.279761576094
1710826445134,-17420.279761576094
1710826445174,-17420.279761576094
1710826445214,-17420.279761576094
1710826445254,-10164.926863005385
1710826445294,-6717.765197935514
1710826445334,-6700.387297700159
1710826445374,42816.32446957566
1710826445414,42816.32446957566
1710826445454,42816.32446957566
1710826445494,42816.32446957566
1710826445534,42816.32446957566
1710826445574,42816.32446957566
1710826445614,42816.32446957566
1710826445654,42816.32446957566
1710826445694,42816.32446957566
1710826445734,42816.32446957566
1710826445774,42816.32446957566
1710826445814,42401.35855212668
1710826445854,40774.15077874297
1710826445894,39224.0723855719
1710826445934,38268.50324316416
1710826445974,38028.35246344097
1710826446011,37405.83834305126
1710826446051,36873.34667182155
1710826446091,36030.80859681219
1710826446132,29567.802665431984
1710826446171,21488.05196499126
1710826446211,17231.965562201105
1710826446251,15042.763523687609
1710826446291,13974.487656956539
1710826446332,12857.950211289339
1710826446371,12591.462084179744
1710826446411,11198.95383534208
1710826446452,11059.552531965543
1710826446492,10736.438842955511
1710826446533,10531.89452912286
1710826446572,9932.006543688476
1710826446612,9358.772699153516
1710826446652,9275.048550915904
1710826446692,9160.18920300249
1710826446733,9078.777936367318
1710826446772,9075.609824776184
1710826446813,8973.30098261591
1710826446852,8212.391718566883
1710826446893,7637.688005223405
1710826446934,6214.302398494445
1710826446973,3068.4592936979607
1710826447013,-3507.483688500244
1710826447053,-10695.304856375325
1710826447093,-17489.619285680354
1710826447134,-24531.9893832393
1710826447173,-28563.096179004293
1710826447213,-28563.096179004293
1710826447253,-28563.096179004293
1710826447293,-28563.096179004293
1710826447334,-28563.096179004293
1710826447373,-28563.096179004293
1710826447414,-28563.096179004293
1710826447454,-28563.096179004293
1710826447494,-28563.096179004293
1710826447535,-28563.096179004293
1710826447574,-28563.096179004293
1710826447614,-22259.013802827336
1710826447654,-19373.7319405484
1710826447694,-17900.15932863485
1710826447735,-17481.889067118987
1710826447775,-14995.471956879366
1710826447815,-14811.961247467902
1710826447855,-14357.271844739094
1710826447895,-13205.9700990594
1710826447936,-11385.953189435415
1710826447975,-10628.456590921152
1710826448015,-9891.876087003388
1710826448055,-5583.584327309392
1710826448095,417.087722315453
1710826448136,7867.0829933723435
1710826448175,12900.069063502364
1710826448215,13568.807116070762
1710826448256,14396.933890884742
1710826448295,15905.326554584317
1710826448337,15947.379263401963
1710826448376,17516.797434171196
1710826448416,22145.83102270495
1710826448456,22145.83102270495
1710826448496,22145.83102270495
1710826448537,22145.83102270495
1710826448576,22145.83102270495
1710826448616,22145.83102270495
1710826448656,22145.83102270495
1710826448696,22145.83102270495
1710826448738,22145.83102270495
1710826448777,22145.83102270495
1710826448817,22145.83102270495
1710826448857,19884.34836578928
1710826448897,16389.438874918967
1710826448938,14013.16991899535
1710826448977,14013.16991899535
1710826449017,14013.16991899535
1710826449057,13503.71064013429
1710826449097,13503.71064013429
1710826449138,13344.193961128592
1710826449178,13344.193961128592
1710826449218,13250.870009856299
1710826449258,12570.699597748928
1710826449298,11035.51527051907
1710826449339,10971.62883167155
1710826449378,10174.822178309783
1710826449418,9909.711167082656
1710826449458,9711.825052096043
1710826449498,9281.399738624692
1710826449539,9281.399738624692
1710826449579,9281.399738624692
1710826449619,9281.399738624692
1710826449659,9909.711167082656
1710826449699,8321.801059371792
1710826449740,5016.4813071954995
1710826449779,4781.48533600755
1710826449819,4145.682492039166
1710826449859,3755.737657019403
1710826449899,2345.935841131024
1710826449940,2345.935841131024
1710826449979,2345.935841131024
1710826450020,2345.935841131024
1710826450060,2345.935841131024
1710826450100,2547.1079830154777
1710826450141,3713.2021943465807
1710826450180,3713.2021943465807
1710826450220,3713.2021943465807
1710826450260,3755.737657019403
1710826450300,3963.2254344271496
1710826450341,4145.682492039166
1710826450380,4624.88325157715
1710826450421,5507.675694548059
1710826450461,5507.675694548059
1710826450501,5507.675694548059
1710826450542,8412.72710503824
1710826450581,8648.14480805397
1710826450621,12181.758957856335
1710826450661,12181.758957856335
1710826450701,12676.534667362459
1710826450742,12676.534667362459
1710826450782,13536.059245578479
1710826450822,13536.059245578479
1710826450862,13536.059245578479
1710826450902,13536.059245578479
1710826450943,13536.059245578479
1710826450982,13536.059245578479
1710826451022,13536.059245578479
1710826451062,13536.059245578479
1710826451102,13536.059245578479
1710826451143,11289.681355562061
1710826451182,8079.5086634466425
1710826451223,6726.255543154664
1710826451263,-8960.386075712275
1710826451303,-18174.94815679686
1710826451343,-18174.94815679686
1710826451383,-18174.94815679686
1710826451423,-21923.279473078903
1710826451463,-21923.279473078903
1710826451503,-26791.861778615043
1710826451544,-27616.565535360947
1710826451583,-28124.159186287783
1710826451624,-30034.366769860964
1710826451664,-31544.24005948659
1710826451704,-33460.60346487351
1710826451745,-35660.81806207355
1710826451784,-36361.82678216137
1710826451824,-36361.82678216137
1710826451864,-38068.528175784275
1710826451904,-38068.528175784275
1710826451945,-38068.528175784275
1710826451985,-38068.528175784275
1710826452025,-47120.78756111488
1710826452065,-61978.23975559184
1710826452105,-71271.32225719374
1710826452146,-71271.32225719374
1710826452185,-71271.32225719374
1710826452225,-71271.32225719374
1710826452265,-71271.32225719374
1710826452306,-71271.32225719374
1710826452346,-71271.32225719374
1710826452386,-71271.32225719374
1710826452426,-71271.32225719374
1710826452466,-71271.32225719374
1710826452506,-71271.32225719374
1710826452547,-69657.56589087332
1710826452586,-65071.08922847686
1710826452626,-58076.46699815849
1710826452666,-50963.42066805693
1710826452707,-49932.400727361906
1710826452747,-48545.01487624319
1710826452787,-47488.12787872134
1710826452827,-47458.907044779044
1710826452867,-45069.5221761195
1710826452907,-45069.5221761195
1710826452948,-45069.5221761195
1710826452987,-43930.10909562744
1710826453028,-40059.6694802735
1710826453068,-36811.0990764047
1710826453108,-31741.60665142443
1710826453149,-26546.141619198024
1710826453188,-24873.29827492358
1710826453228,-23804.520356476773
1710826453268,-13427.884714866988
1710826453308,-11079.359971554019
1710826453349,-8719.666035559494
1710826453388,-5490.198891948443
1710826453429,-4308.240378269926
1710826453469,-3946.6160288066603
1710826453509,-3020.877067710273
1710826453550,840.2769791921601
1710826453589,840.2769791921601
1710826453629,840.2769791921601
1710826453669,840.2769791921601
1710826453709,1183.24908068683
1710826453750,1314.849336758256
1710826453789,6309.587131413631
1710826453829,19641.189912462607
1710826453869,19641.189912462607
1710826453910,19641.189912462607
1710826453950,19641.189912462607
1710826453990,26685.01400726987
1710826454030,26685.01400726987
1710826454070,26685.01400726987
1710826454110,26685.01400726987
1710826454151,26691.582747007255
1710826454190,27281.55078745354
1710826454230,28984.540033813566
1710826454270,28984.540033813566
1710826454310,28984.540033813566
1710826454351,31752.587914827745
1710826454391,31367.672968981322
1710826454431,31367.672968981322
1710826454471,31367.672968981322
1710826454511,31367.672968981322
1710826454551,31367.672968981322
1710826454591,31910.44938688446
1710826454631,36932.83066802565
1710826454671,36932.83066802565
1710826454711,36932.83066802565
1710826454752,36932.83066802565
1710826454791,36932.83066802565
1710826454831,36932.83066802565
1710826454872,36932.83066802565
1710826454911,36932.83066802565
1710826454952,36932.83066802565
1710826454992,32237.249856782146
1710826455032,31910.44938688446
1710826455072,31367.672968981322
1710826455112,20108.408940132707
1710826455153,12620.490582332946
1710826455192,12075.790139169432
1710826455232,12075.790139169432
1710826455272,12075.790139169432
1710826455312,12075.790139169432
1710826455353,12075.790139169432
1710826455393,12075.790139169432
1710826455433,12075.790139169432
1710826455473,12075.790139169432
1710826455513,12075.790139169432
1710826455554,12075.790139169432
1710826455593,12075.790139169432
1710826455633,12024.570582648274
1710826455673,12024.570582648274
1710826455714,10744.681736338884
1710826455754,10744.681736338884
1710826455794,10744.681736338884
1710826455834,10744.681736338884
1710826455874,10744.681736338884
1710826455914,10744.681736338884
1710826455955,10744.681736338884
1710826455994,10699.526349257678
1710826456034,10699.526349257678
1710826456074,10699.526349257678
1710826456114,10699.526349257678
1710826456155,10699.526349257678
1710826456195,10699.526349257678
1710826456235,10699.526349257678
1710826456275,10699.526349257678
1710826456315,10699.526349257678
1710826456356,10699.526349257678
1710826456395,10699.526349257678
1710826456435,13982.118101691827
1710826456475,15754.662562089972
1710826456515,15754.662562089972
1710826456556,15754.662562089972
1710826456596,15754.662562089972
1710826456636,15754.662562089972
1710826456676,15754.662562089972
1710826456716,15754.662562089972
1710826456757,15754.662562089972
1710826456796,15754.662562089972
1710826456836,15754.662562089972
1710826456876,15754.662562089972
1710826456917,15088.331154037267
1710826456957,8553.822463252116
1710826456997,3958.304033780005
1710826457037,3958.304033780005
1710826457077,3958.304033780005
1710826457117,3958.304033780005
1710826457158,3958.304033780005
1710826457197,3958.304033780005
1710826457237,3958.304033780005
1710826457277,3958.304033780005
1710826457317,3958.304033780005
1710826457358,3958.304033780005
1710826457398,3958.304033780005
1710826457438,4771.355002543889
1710826457478,5978.334691156633
1710826457518,7125.630444160663
1710826457559,7125.630444160663
1710826457598,7125.630444160663
1710826457638,7125.630444160663
1710826457678,7125.630444160663
1710826457718,7125.630444160663
1710826457759,7125.630444160663
1710826457799,7125.630444160663
1710826457839,7125.630444160663
1710826457879,7125.630444160663
1710826457919,7125.630444160663
1710826457960,1788.1892234873958
1710826457999,1788.1892234873958
1710826458085,1788.1892234873958
1710826458125,1788.1892234873958
1710826458165,1788.1892234873958
1710826458206,1788.1892234873958
1710826458245,1788.1892234873958
1710826458286,1788.1892234873958
1710826458325,1788.1892234873958
1710826458366,1788.1892234873958
1710826458407,1788.1892234873958
1710826458446,3261.0678355973214
1710826458486,4944.44391447911
1710826458526,6222.375167445745
1710826458566,6222.375167445745
1710826458607,6222.375167445745
1710826458647,6222.375167445745
1710826458687,6222.375167445745
1710826458727,6222.375167445745
1710826458768,6222.375167445745
1710826458809,6222.375167445745
1710826458848,6222.375167445745
1710826458889,6222.375167445745
1710826458929,6222.375167445745
1710826458969,3363.2032249690965
1710826459010,838.4971053488553
1710826459049,838.4971053488553
1710826459090,838.4971053488553
1710826459130,838.4971053488553
1710826459170,838.4971053488553
1710826459211,838.4971053488553
1710826459251,838.4971053488553
1710826459291,838.4971053488553
1710826459331,838.4971053488553
1710826459372,838.4971053488553
1710826459412,838.4971053488553
1710826459452,838.4971053488553
1710826459492,838.4971053488553
1710826459532,838.4971053488553
1710826459573,838.4971053488553
1710826459614,838.4971053488553
1710826459653,838.4971053488553
1710826459694,838.4971053488553
1710826459734,838.4971053488553
1710826459774,838.4971053488553
1710826459815,838.4971053488553
1710826459854,-1764.945902514737
1710826459894,-4212.8025925103575
1710826459934,-4212.8025925103575
1710826459975,-4212.8025925103575
1710826460015,-4212.8025925103575
1710826460055,-4212.8025925103575
1710826460095,-4212.8025925103575
1710826460135,-4212.8025925103575
1710826460175,-4212.8025925103575
1710826460216,-4212.8025925103575
1710826460256,-4212.8025925103575
1710826460296,-4212.8025925103575
1710826460336,-4212.8025925103575
1710826460376,-4212.8025925103575
1710826460417,-4212.8025925103575
1710826460457,-4212.8025925103575
1710826460497,-4212.8025925103575
1710826460537,-4212.8025925103575
1710826460577,-4212.8025925103575
1710826460618,-4212.8025925103575
1710826460657,-4212.8025925103575
1710826460698,-4212.8025925103575
1710826460738,-7982.09396010777
1710826460779,-7982.09396010777
1710826460820,-7982.09396010777
1710826460860,-7982.09396010777
1710826460900,-7982.09396010777
1710826460940,-7982.09396010777
1710826460980,-7982.09396010777
1710826461021,-7982.09396010777
1710826461061,-7982.09396010777
1710826461101,-7982.09396010777
1710826461141,-7982.09396010777
1710826461182,-7159.551435580477
1710826461223,-5427.280993156135
1710826461262,-5427.280993156135
1710826461303,-5427.280993156135
1710826461343,-5427.280993156135
1710826461383,-5427.280993156135
1710826461424,-5427.280993156135
1710826461464,-5427.280993156135
1710826461504,-5427.280993156135
1710826461544,-5427.280993156135
1710826461584,-5427.280993156135
1710826461625,-5427.280993156135
1710826461665,-8036.236682722811
1710826461705,-10905.572885641828
1710826461745,-10905.572885641828
1710826461786,-10905.572885641828
1710826461827,-10905.572885641828
1710826461866,-10905.572885641828
1710826461906,-10905.572885641828
1710826461946,-10905.572885641828
1710826461987,-10905.572885641828
1710826462028,-10905.572885641828
1710826462067,-10905.572885641828
1710826462108,-10905.572885641828
1710826462148,-8210.745916596614
1710826462188,-8210.745916596614
1710826462229,-8210.745916596614
1710826462269,-8210.745916596614
1710826462309,-8210.745916596614
1710826462349,-8210.745916596614
1710826462389,-8210.745916596614
1710826462430,-8210.745916596614
1710826462470,-8210.745916596614
1710826462510,-8210.745916596614
1710826462550,-8210.745916596614
1710826462590,-11582.386605116539
1710826462632,-15418.542862087488
1710826462671,-15418.542862087488
1710826462713,-15418.542862087488
1710826462753,-15418.542862087488
1710826462793,-15418.542862087488
1710826462834,-15418.542862087488
1710826462873,-15418.542862087488
1710826462913,-15418.542862087488
1710826462954,-15418.542862087488
1710826462994,-15418.542862087488
1710826463035,-15418.542862087488
1710826463074,-13457.82879942283
1710826463114,-10914.725914780982
1710826463154,-8985.188842248172
1710826463195,-8985.188842248172
1710826463236,-8985.188842248172
1710826463275,-8985.188842248172
1710826463315,-8985.188842248172
1710826463355,-8985.188842248172
1710826463395,-8985.188842248172
1710826463436,-8985.188842248172
1710826463476,-8985.188842248172
1710826463516,-8985.188842248172
1710826463556,-8985.188842248172
1710826463596,-15971.140871008858
1710826463637,-18073.486625545658
1710826463677,-18073.486625545658
1710826463717,-18073.486625545658
1710826463757,-18073.486625545658
1710826463797,-18073.486625545658
1710826463838,-18073.486625545658
1710826463878,-18073.486625545658
1710826463918,-18073.486625545658
1710826463958,-18073.486625545658
1710826463998,-18073.486625545658
1710826464039,-18073.486625545658
1710826464079,-15793.737863735296
1710826464119,-13316.165377750061
1710826464159,-12658.85081238579
1710826464199,-12658.85081238579
1710826464240,-12658.85081238579
1710826464280,-12658.85081238579
1710826464320,-12658.85081238579
1710826464360,-12658.85081238579
1710826464400,-12658.85081238579
1710826464441,-12658.85081238579
1710826464481,-12658.85081238579
1710826464521,-12658.85081238579
1710826464561,-12658.85081238579
1710826464602,-17016.957483988255
1710826464643,-17016.957483988255
1710826464682,-17016.957483988255
1710826464722,-17016.957483988255
1710826464763,-17016.957483988255
1710826464803,-17016.957483988255
1710826464844,-17016.957483988255
1710826464883,-17016.957483988255
1710826464924,-17016.957483988255
1710826464964,-17016.957483988255
1710826465004,-17016.957483988255
1710826465045,-14173.637502131052
1710826465085,-12670.73247489985
1710826465125,-10308.726324487943
1710826465165,-8500.280224382877
1710826465205,-8500.280224382877
1710826465246,-8500.280224382877
1710826465286,-8500.280224382877
1710826465326,-8500.280224382877
1710826465366,-8500.280224382877
1710826465407,-8500.280224382877
1710826465448,-8500.280224382877
1710826465487,-8500.280224382877
1710826465528,-8500.280224382877
1710826465568,-8500.280224382877
1710826465608,-12420.858209203929
1710826465649,-12420.858209203929
1710826465688,-12420.858209203929
1710826465729,-12420.858209203929
1710826465769,-12420.858209203929
1710826465809,-12420.858209203929
1710826465850,-12420.858209203929
1710826465890,-12420.858209203929
1710826465930,-12420.858209203929
1710826465970,-12420.858209203929
1710826466010,-12420.858209203929
1710826466051,-10759.243309372803
1710826466091,-9396.613869522931
1710826466131,-7548.093556363601
1710826466171,-7548.093556363601
1710826466212,-7548.093556363601
1710826466253,-7548.093556363601
1710826466292,-7548.093556363601
1710826466332,-7548.093556363601
1710826466373,-7548.093556363601
1710826466412,-7548.093556363601
1710826466453,-7548.093556363601
1710826466493,-7548.093556363601
1710826466533,-7548.093556363601
1710826466573,-12238.820411400637
1710826466613,-12238.820411400637
1710826466654,-12238.820411400637
1710826466694,-12238.820411400637
1710826466734,-12238.820411400637
1710826466774,-12238.820411400637
1710826466814,-12238.820411400637
1710826466855,-12238.820411400637
1710826466894,-12238.820411400637
1710826466935,-12238.820411400637
1710826466975,-12238.820411400637
1710826467015,-11205.345956246369
1710826467056,-9531.000527077354
1710826467095,-7636.724079371896
1710826467135,-5745.876387033379
1710826467176,-5745.876387033379
1710826467216,-5745.876387033379
1710826467257,-5745.876387033379
1710826467296,-5745.876387033379
1710826467337,-5745.876387033379
1710826467377,-5745.876387033379
1710826467417,-5745.876387033379
1710826467458,-5745.876387033379
1710826467498,-5745.876387033379
1710826467539,-5745.876387033379
1710826467579,-7440.249408046249
1710826467619,-9531.85381896724
1710826467660,-9531.85381896724
1710826467700,-9531.85381896724
1710826467740,-9531.85381896724
1710826467780,-9531.85381896724
1710826467820,-9531.85381896724
1710826467861,-9531.85381896724
1710826467901,-9531.85381896724
1710826467941,-9531.85381896724
1710826467981,-9531.85381896724
1710826468022,-9531.85381896724
1710826468063,-8008.448624083772
1710826468102,-6213.423545265105
1710826468142,-4192.866619859356
1710826468183,-2518.4149351301603
1710826468223,-2518.4149351301603
1710826468264,-2518.4149351301603
1710826468304,-2518.4149351301603
1710826468344,-2518.4149351301603
1710826468384,-2518.4149351301603
1710826468424,-2518.4149351301603
1710826468465,-2518.4149351301603
1710826468504,-2518.4149351301603
1710826468545,-2518.4149351301603
1710826468585,-2518.4149351301603
1710826468625,-3365.1525761862285
1710826468666,-6046.059586561751
1710826468706,-6046.059586561751
1710826468746,-6046.059586561751
1710826468786,-6046.059586561751
1710826468827,-6046.059586561751
1710826468868,-6046.059586561751
1710826468907,-6046.059586561751
1710826468947,-6046.059586561751
1710826468987,-6046.059586561751
1710826469028,-6046.059586561751
1710826469069,-6046.059586561751
1710826469108,-3972.768109389115
1710826469149,-2542.6871624910273
1710826469189,-1174.1106997933239
1710826469229,301.87842868454754
1710826469270,301.87842868454754
1710826469309,301.87842868454754
1710826469350,301.87842868454754
1710826469390,301.87842868454754
1710826469430,301.87842868454754
1710826469471,301.87842868454754
1710826469511,301.87842868454754
1710826469551,301.87842868454754
1710826469591,301.87842868454754
1710826469631,301.87842868454754
1710826469672,-3787.267330895178
1710826469712,-6287.684305264847
1710826469752,-6287.684305264847
1710826469792,-6287.684305264847
1710826469832,-6287.684305264847
1710826469873,-6287.684305264847
1710826469913,-6287.684305264847
1710826469953,-6287.684305264847
1710826469993,-6287.684305264847
1710826470033,-6287.684305264847
1710826470074,-6287.684305264847
1710826470114,-6287.684305264847
1710826470153,-4585.707986658206
1710826470192,-3145.72524924716
1710826470231,-1099.2649155240506
1710826470270,618.571576050017
1710826470309,618.571576050017
1710826470348,618.571576050017
1710826470387,618.571576050017
1710826470426,618.571576050017
1710826470465,618.571576050017
1710826470504,618.571576050017
1710826470543,618.571576050017
1710826470582,618.571576050017
1710826470621,618.571576050017
1710826470660,618.571576050017
1710826470699,-5136.409491455182
1710826470738,-5136.409491455182
1710826470777,-5136.409491455182
1710826470816,-5136.409491455182
1710826470855,-5136.409491455182
1710826470894,-5136.409491455182
1710826470933,-5136.409491455182
1710826470972,-5136.409491455182
1710826471011,-5136.409491455182
1710826471050,-5136.409491455182
1710826471089,-5136.409491455182
1710826471128,-3215.2202102267183
1710826471168,-2336.758139161393
1710826471208,-807.3131133050192
1710826471248,1120.3519545341842
1710826471288,1120.3519545341842
1710826471328,1120.3519545341842
1710826471368,1120.3519545341842
1710826471408,1120.3519545341842
1710826471448,1120.3519545341842
1710826471488,1120.3519545341842
1710826471528,1120.3519545341842
1710826471568,1120.3519545341842
1710826471608,1120.3519545341842
1710826471648,1120.3519545341842
1710826471688,-1062.3975378936157
1710826471728,-3672.691770260455
1710826471768,-3672.691770260455
1710826471808,-3672.691770260455
1710826471848,-3672.691770260455
1710826471888,-3672.691770260455
1710826471928,-3672.691770260455
1710826471968,-3672.691770260455
1710826472008,-3672.691770260455
1710826472048,-3672.691770260455
1710826472088,-3672.691770260455
1710826472128,-3672.691770260455
1710826472168,-1876.9308992507868
1710826472208,-150.3672963497229
1710826472248,714.7624724884517
1710826472288,1640.2060939488001
1710826472328,1640.2060939488001
1710826472368,1640.2060939488001
1710826472408,1640.2060939488001
1710826472448,1640.2060939488001
1710826472488,1640.2060939488001
1710826472528,1640.2060939488001
1710826472568,1640.2060939488001
1710826472608,1640.2060939488001
1710826472648,1640.2060939488001
1710826472688,1640.2060939488001
1710826472728,-3668.151835021097
