Timestamp,Cleaned PPG
1712190136968,0.0
1712190137005,0.0
1712190137045,0.0
1712190137086,0.0
1712190137127,0.0
1712190137166,0.0
1712190137206,0.0
1712190137246,0.0
1712190137286,0.0
1712190137327,0.0
1712190137366,0.0
1712190137406,0.0
1712190137447,0.0
1712190137487,0.0
1712190137528,0.0
1712190137567,0.0
1712190137607,0.0
1712190137647,0.0
1712190137687,0.0
1712190137729,0.0
1712190137768,0.0
1712190137808,0.0
1712190137848,0.0
1712190137888,0.0
1712190137929,0.0
1712190137969,0.0
1712190138009,0.0
1712190138049,0.0
1712190138089,0.0
1712190138130,0.0
1712190138169,0.0
1712190138209,0.0
1712190138249,961248.0730816787
1712190138290,961248.0730816787
1712190138331,961248.0730816787
1712190138370,961248.0730816787
1712190138410,961248.0730816787
1712190138450,961248.0730816787
1712190138490,961248.0730816787
1712190138532,961248.0730816787
1712190138571,961248.0730816787
1712190138611,961248.0730816787
1712190138651,961248.0730816787
1712190138691,904201.3726749648
1712190138732,853558.33953042
1712190138773,805030.592849711
1712190138812,759624.6798250142
1712190138852,721367.8197203188
1712190138892,678737.7187368958
1712190138933,630546.0812041485
1712190138972,582380.2968562194
1712190139012,537058.7115630731
1712190139052,497210.8856565347
1712190139092,462660.2148991681
1712190139133,430785.68099575816
1712190139175,403000.4228671617
1712190139213,373840.25132595166
1712190139253,339988.44228222826
1712190139293,292815.11333849
1712190139334,269704.5895601297
1712190139373,247424.61045567878
1712190139413,227478.65866288776
1712190139453,210222.86858890834
1712190139493,196774.25783935515
1712190139535,183668.31667397777
1712190139573,169103.43257135525
1712190139614,146416.8411850629
1712190139654,125263.55817044433
1712190139694,109528.22017332632
1712190139735,97773.44153453456
1712190139774,88303.47017660504
1712190139814,78140.97926831059
1712190139854,66152.08791402122
1712190139894,53717.73224790767
1712190139935,45591.22584244725
1712190139975,37820.10488214204
1712190140015,31328.39861244429
1712190140055,28833.15665050363
1712190140095,28606.00034128595
1712190140136,28132.559391465737
1712190140175,27585.157745665405
1712190140215,27344.803317434853
1712190140255,24094.8412254164
1712190140295,16636.314150601625
1712190140336,8087.730598284397
1712190140376,454.83971299557015
1712190140416,454.83971299557015
1712190140456,454.83971299557015
1712190140496,454.83971299557015
1712190140537,454.5064622182399
1712190140576,-222.93558214325458
1712190140616,-1090.1868847818114
1712190140656,-1166.3466188157909
1712190140696,-2398.072374679614
1712190140737,-4025.3773430101573
1712190140776,-4172.207411944633
1712190140817,-7556.81991377892
1712190140857,-10781.99555850448
1712190140897,-10781.99555850448
1712190140938,-10781.99555850448
1712190140977,-10781.99555850448
1712190141017,-12927.97596874414
1712190141057,-12927.97596874414
1712190141097,-12927.97596874414
1712190141138,-12927.97596874414
1712190141178,-12927.97596874414
1712190141218,-12927.97596874414
1712190141258,-15967.417460946366
1712190141298,-16753.907176170032
1712190141339,-16808.97551799123
1712190141381,-19502.249709384516
1712190141418,-20180.50555150956
1712190141459,-20926.66950315237
1712190141499,-20926.66950315237
1712190141540,-20206.2661377755
1712190141579,-19740.187064067693
1712190141619,-19502.249709384516
1712190141659,-17285.097712284885
1712190141699,-16808.97551799123
1712190141740,-15967.417460946366
1712190141781,-13636.134857130935
1712190141820,-12927.97596874414
1712190141860,-9527.120806626044
1712190141900,-9273.92762240721
1712190141941,-9273.92762240721
1712190141980,-9273.92762240721
1712190142020,-11766.573949377052
1712190142060,-12840.594673334155
1712190142100,-11766.573949377052
1712190142142,-11291.190119948704
1712190142181,-9339.80070796702
1712190142221,-9273.92762240721
1712190142261,-9180.248745191842
1712190142301,-7860.098647022853
1712190142342,-6974.863332333043
1712190142381,-4717.927525780629
1712190142422,-4049.629405394895
1712190142462,-2463.4192720477004
1712190142502,-809.5830580804031
1712190142543,-794.423581188079
1712190142582,3226.6452886457555
1712190142622,3734.2864338248037
1712190142662,3734.2864338248037
1712190142702,3734.2864338248037
1712190142743,3734.2864338248037
1712190142783,7575.468209966086
1712190142823,12923.24068475468
1712190142863,13784.946189876646
1712190142903,13800.532514092047
1712190142944,14807.98562874808
1712190142983,15086.44137278595
1712190143024,15242.781202085083
1712190143063,15326.174533140613
1712190143104,15457.86855988577
1712190143145,15891.163931994699
1712190143184,16373.847737951903
1712190143224,17256.63894056296
1712190143264,17951.687136833556
1712190143304,17989.833654564107
1712190143345,17951.687136833556
1712190143385,16373.847737951903
1712190143425,15891.163931994699
1712190143465,15457.86855988577
1712190143505,15326.174533140613
1712190143546,15326.174533140613
1712190143585,15326.174533140613
1712190143625,15326.174533140613
1712190143665,15242.781202085083
1712190143705,15086.44137278595
1712190143747,15086.44137278595
1712190143786,15242.781202085083
1712190143826,16373.847737951903
1712190143866,17453.84011058323
1712190143906,17453.84011058323
1712190143947,17453.84011058323
1712190143987,17453.84011058323
1712190144027,17453.84011058323
1712190144067,14999.715982400812
1712190144107,14237.051565521862
1712190144148,11973.85673928936
1712190144187,11973.85673928936
1712190144227,11973.85673928936
1712190144267,11973.85673928936
1712190144307,11973.85673928936
1712190144349,14237.051565521862
1712190144388,14999.715982400812
1712190144428,15551.437071977649
1712190144468,17453.84011058323
1712190144508,19034.313084323425
1712190144549,20633.28392506484
1712190144589,22113.96978727728
1712190144629,23735.316783424933
1712190144669,25045.76994128106
1712190144709,25045.76994128106
1712190144750,25045.76994128106
1712190144791,25045.76994128106
1712190144829,28500.97117423173
1712190144870,34486.38454675861
1712190144910,39109.1042794236
1712190144951,43566.41494585434
1712190144990,43695.60098102153
1712190145030,43899.69747272832
1712190145070,44064.428429310676
1712190145110,44219.05933642527
1712190145151,44568.174048785586
1712190145190,44805.31931412569
1712190145230,44805.31931412569
1712190145270,44805.31931412569
1712190145311,44805.31931412569
1712190145351,44805.31931412569
1712190145391,44805.31931412569
1712190145431,44219.05933642527
1712190145471,44214.301832113415
1712190145511,44064.428429310676
1712190145552,43941.78727858886
1712190145591,43899.69747272832
1712190145631,43695.60098102153
1712190145672,43566.41494585434
1712190145711,41941.72112277849
1712190145753,37705.49524478614
1712190145792,35572.14700393798
1712190145832,35383.03035614267
1712190145872,34425.67961989483
1712190145912,31237.87242448423
1712190145953,29335.23139897315
1712190145992,29335.23139897315
1712190146032,28967.045535188634
1712190146072,26708.335475170985
1712190146113,24034.585361184087
1712190146154,23800.4410292767
1712190146193,23162.162613840774
1712190146233,22970.285611598287
1712190146273,21818.372936439235
1712190146313,20456.6445263552
1712190146354,20327.210836590268
1712190146393,18809.334686291637
1712190146433,18686.533122408204
1712190146473,18140.952179551823
1712190146514,15831.233943415806
1712190146554,15831.233943415806
1712190146594,15831.233943415806
1712190146634,15831.233943415806
1712190146674,13355.32238598098
1712190146714,12505.484756829683
1712190146755,12003.5576260034
1712190146794,11272.221689096885
1712190146834,10606.124671208207
1712190146875,10606.124671208207
1712190146915,10606.124671208207
1712190146956,10606.124671208207
1712190146995,10606.124671208207
1712190147035,11342.239029518096
1712190147075,12003.5576260034
1712190147115,12505.484756829683
1712190147156,13361.849599423818
1712190147195,15558.34766276367
1712190147236,15558.34766276367
1712190147276,15558.34766276367
1712190147316,15558.34766276367
1712190147357,13930.83607124514
1712190147396,13361.849599423818
1712190147436,12505.484756829683
1712190147476,11342.239029518096
1712190147516,9772.972991977818
1712190147557,9772.972991977818
1712190147597,9772.972991977818
1712190147637,9772.972991977818
1712190147677,5806.6636392246
1712190147717,2776.694426896982
1712190147758,-6266.207300476264
1712190147799,-7139.236811762443
1712190147837,-7139.236811762443
1712190147877,-7139.236811762443
1712190147917,-7139.236811762443
1712190147959,-7139.236811762443
1712190147998,-7165.0928028135095
1712190148038,-7274.076155530056
1712190148078,-7368.176078126766
1712190148118,-7388.324948364403
1712190148159,-7886.396662584506
1712190148198,-8116.177551531466
1712190148238,-8138.891098021995
1712190148278,-8154.3803568955045
1712190148319,-8154.3803568955045
1712190148360,-8170.002866992727
1712190148399,-12769.176935576368
1712190148439,-15122.755639856681
1712190148479,-15122.755639856681
1712190148519,-15122.755639856681
1712190148560,-15122.755639856681
1712190148599,-15122.755639856681
1712190148640,-16928.755594887072
1712190148680,-17521.18625393696
1712190148720,-17935.512403898872
1712190148761,-19971.101725396235
1712190148800,-19971.101725396235
1712190148840,-19971.101725396235
1712190148880,-19971.101725396235
1712190148921,-19268.942045631586
1712190148962,-17935.512403898872
1712190149002,-16928.755594887072
1712190149042,-16848.05393027072
1712190149082,-16116.812006135238
1712190149122,-16056.700460007647
1712190149162,-15122.755639856681
1712190149202,-14628.561562213581
1712190149242,-13020.390357102733
1712190149282,-11996.526548076188
1712190149322,-11996.526548076188
1712190149362,-14628.561562213581
1712190149402,-15131.524145597126
1712190149442,-16056.700460007647
1712190149482,-15339.735602608882
1712190149522,-15339.735602608882
1712190149562,-15339.735602608882
1712190149602,-15339.735602608882
1712190149642,-15131.524145597126
1712190149682,-14628.561562213581
1712190149722,-13823.877635693876
1712190149762,-12379.486147963908
1712190149802,-11996.526548076188
1712190149842,-9903.388463430107
1712190149882,-9691.448244634084
1712190149922,-12379.486147963908
1712190149962,-13823.877635693876
1712190150002,-14013.685265067033
1712190150042,-15131.524145597126
1712190150082,-15339.735602608882
1712190150122,-15528.978940145811
1712190150162,-16469.855295797344
1712190150202,-16469.855295797344
1712190150242,-16469.855295797344
1712190150282,-15528.978940145811
1712190150322,-15528.978940145811
1712190150362,-15449.930275987834
1712190150402,-14013.685265067033
1712190150442,-13823.877635693876
1712190150482,-12952.513952424051
1712190150522,-14013.685265067033
1712190150562,-15273.613080711802
1712190150602,-15449.930275987834
1712190150642,-17489.108959762612
1712190150682,-17936.093976981938
1712190150722,-18425.96723506879
1712190150762,-18578.807605038164
1712190150802,-18589.17161721643
1712190150842,-18589.17161721643
1712190150882,-18578.807605038164
1712190150922,-18425.96723506879
1712190150962,-17489.108959762612
1712190151002,-17258.441911984002
1712190151042,-15449.930275987834
1712190151082,-15273.613080711802
1712190151122,-14802.899072326254
1712190151162,-15273.613080711802
1712190151202,-15825.685940340161
1712190151242,-17258.441911984002
1712190151282,-18925.976222469937
1712190151322,-19309.020864791237
1712190151362,-19369.566604827996
1712190151402,-19967.303849002812
1712190151442,-19967.303849002812
1712190151482,-19369.566604827996
1712190151522,-18925.976222469937
1712190151562,-18721.76453004335
1712190151602,-17258.441911984002
1712190151642,-16092.17186074378
1712190151682,-15825.685940340161
1712190151722,-14802.899072326254
1712190151762,-13106.770514492644
1712190151802,-13106.770514492644
1712190151842,-13106.770514492644
1712190151882,-14562.773698669393
1712190151922,-15004.769122082507
1712190151962,-15004.769122082507
1712190152002,-14562.773698669393
1712190152042,-14251.071441950044
1712190152082,-13857.086749367649
1712190152122,-13690.38895598217
1712190152162,-13568.097820254043
1712190152202,-13106.770514492644
1712190152242,-12951.395222494146
1712190152282,-11976.442086592317
1712190152322,-9832.753120330628
1712190152362,-8766.665327670751
1712190152402,-8007.132330417167
1712190152442,-6386.539913772605
1712190152482,-5522.647475364385
1712190152522,-5522.647475364385
1712190152562,-5743.427034586202
1712190152602,-5816.307656892575
1712190152642,-5743.427034586202
1712190152682,-5522.647475364385
1712190152722,-5522.647475364385
1712190152762,-4916.804211300332
1712190152802,-4573.433034067275
1712190152842,-4489.758288331563
1712190152882,-4340.044585485011
1712190152922,-2540.6933887687046
1712190152962,-1747.6899348653387
1712190153002,-1517.2667958028615
1712190153042,427.54379805456847
1712190153082,1886.1716529205441
1712190153122,3430.5602588457987
1712190153162,3982.9352987646125
1712190153202,3421.479220015928
1712190153242,2212.1358804528136
1712190153282,2212.1358804528136
1712190153322,2444.0303065320477
1712190153362,3421.479220015928
1712190153402,4247.066708081402
1712190153442,4584.064050166868
1712190153482,5964.1447957369965
1712190153522,6585.103898579953
1712190153562,6636.812963063829
1712190153602,7829.399755635532
1712190153642,8241.021898592822
1712190153682,10311.875437328126
1712190153722,11356.520905103302
1712190153762,11639.53071200801
1712190153802,12893.991952665616
1712190153842,14460.190969474148
1712190153882,17192.43608331727
1712190153922,24228.398150626337
1712190153962,24228.398150626337
1712190154002,24377.67663516407
1712190154042,24377.67663516407
1712190154082,24377.67663516407
1712190154122,24377.67663516407
1712190154162,24377.67663516407
1712190154202,24377.67663516407
1712190154242,24377.67663516407
1712190154282,24377.67663516407
1712190154322,24536.68695758935
1712190154362,25900.85765300598
1712190154402,25900.85765300598
1712190154442,25684.218027434777
1712190154482,24536.68695758935
1712190154522,24228.398150626337
1712190154562,23629.06486613606
1712190154602,23032.762946526054
1712190154642,21917.928166438825
1712190154682,21852.381076285616
1712190154722,20236.310854820535
1712190154762,19844.29976721527
1712190154802,19753.24499929836
1712190154842,18605.010563496966
1712190154882,18076.109431585297
1712190154922,15769.128740460612
1712190154962,13869.56523901457
1712190155002,13869.56523901457
1712190155042,13869.56523901457
1712190155082,13869.56523901457
1712190155122,13869.56523901457
1712190155162,13291.1448428859
1712190155202,13105.66519033257
1712190155242,11907.124415287282
1712190155282,11279.529896057444
1712190155322,10661.663372998359
1712190155362,10506.610586990137
1712190155402,10329.063251220854
1712190155442,9410.675723381108
1712190155482,9410.32950961776
1712190155522,9374.205461494625
1712190155562,9125.556780610466
1712190155602,6010.118623933289
1712190155642,3285.730433966033
1712190155682,3285.730433966033
1712190155722,3285.730433966033
1712190155762,3285.730433966033
1712190155802,3285.730433966033
1712190155842,3285.730433966033
1712190155882,3285.730433966033
1712190155922,3285.730433966033
1712190155962,3235.793193885591
1712190156002,2401.6934775228146
1712190156042,2236.783929549856
1712190156082,2028.7113376231864
1712190156122,2107.56248010695
1712190156162,2107.56248010695
1712190156202,2107.56248010695
1712190156242,2107.56248010695
1712190156282,2236.783929549856
1712190156322,2401.6934775228146
1712190156363,3285.730433966033
1712190156404,3316.2705938369036
1712190156445,4164.464503439609
1712190156486,4767.483790338505
1712190156527,4767.483790338505
1712190156568,4767.483790338505
1712190156609,4767.483790338505
1712190156650,4164.464503439609
1712190156691,3971.9510568934493
1712190156732,3316.2705938369036
1712190156773,2401.6934775228146
1712190156814,2107.56248010695
1712190156855,2107.56248010695
1712190156896,2107.56248010695
1712190156937,2107.56248010695
1712190156978,1792.9994184095412
1712190157019,1589.22698360309
1712190157060,1589.22698360309
1712190157101,2185.8069852585904
1712190157142,2185.8069852585904
1712190157183,2185.8069852585904
1712190157224,2185.8069852585904
1712190157265,2185.8069852585904
1712190157306,2185.8069852585904
1712190157347,2185.8069852585904
1712190157388,1389.766987819923
1712190157429,764.9311963806394
1712190157470,-156.70513631263748
1712190157511,-206.33997459337115
1712190157552,-286.9617488835938
1712190157593,-522.7089908693451
1712190157634,-849.1113529945724
1712190157675,-1254.4298719451763
1712190157716,-1414.1259593092836
1712190157757,-1659.332721253857
1712190157798,-1438.517866872251
1712190157839,-1414.1259593092836
1712190157880,-1414.1259593092836
1712190157921,-1414.1259593092836
1712190157962,-1414.1259593092836
1712190158003,-1414.1259593092836
1712190158044,-1414.1259593092836
1712190158085,-1438.517866872251
1712190158126,-2615.6284228805453
1712190158167,-3208.5714183626696
1712190158208,-3394.6813366659917
1712190158249,-3951.1853843391873
1712190158290,-4185.177449824987
1712190158331,-4209.964327038266
1712190158372,-4641.067562347744
1712190158413,-5134.715555052506
1712190158454,-5647.359331661835
1712190158495,-5647.359331661835
1712190158536,-7794.784652289236
1712190158577,-10492.691343910294
1712190158618,-10492.691343910294
1712190158659,-10492.691343910294
1712190158700,-10492.691343910294
1712190158741,-10492.691343910294
1712190158782,-10492.691343910294
1712190158823,-10492.691343910294
1712190158864,-10492.691343910294
1712190158905,-10492.691343910294
1712190158946,-10492.691343910294
1712190158987,-10492.691343910294
1712190159028,-9504.541109407088
1712190159069,-8162.087879653554
1712190159110,-4921.155965702143
1712190159151,-3070.925276900176
1712190159192,-2673.7522310575005
1712190159233,-2165.1249867212027
1712190159274,-617.3618748607114
1712190159315,7002.623929638416
1712190159356,17853.558765578084
1712190159397,22547.453560811467
1712190159438,23218.739664531546
1712190159479,23218.739664531546
1712190159520,23218.739664531546
1712190159561,23218.739664531546
1712190159602,23218.739664531546
1712190159643,23218.739664531546
1712190159684,23218.739664531546
1712190159725,23218.739664531546
1712190159766,23218.739664531546
1712190159807,23218.739664531546
1712190159848,22547.453560811467
1712190159889,380.9038644025568
1712190159930,-11153.520306550432
1712190159971,-14565.976649306482
1712190160012,-16018.563613896258
1712190160053,-17180.809489123523
1712190160094,-17963.92485146504
1712190160135,-20391.99535748968
1712190160176,-22529.185431364225
1712190160217,-23199.60474680923
1712190160258,-25519.658496676013
1712190160299,-32008.689376297873
1712190160340,-33660.40535889752
1712190160381,-37346.68501281878
1712190160422,-40046.14252444636
1712190160463,-41093.05515398248
1712190160504,-45377.2324969694
1712190160545,-50751.11310980562
1712190160586,-57527.670515243895
1712190160627,-69641.95043903613
1712190160668,-76741.45698782522
1712190160709,-79440.30576050188
1712190160750,-79440.30576050188
1712190160791,-79440.30576050188
1712190160832,-79440.30576050188
1712190160873,-79440.30576050188
1712190160914,-79440.30576050188
1712190160955,-79440.30576050188
1712190160996,-79440.30576050188
1712190161037,-79440.30576050188
1712190161078,-79440.30576050188
1712190161117,-76741.45698782522
1712190161156,-59379.63962690183
1712190161195,-58965.30874886131
1712190161234,-58414.120364661096
1712190161273,-56737.89662737772
1712190161312,-55796.18901012
1712190161351,-53544.95151996752
1712190161390,-51861.279866778525
1712190161429,-46976.633785291575
1712190161468,-43443.529571945546
1712190161507,-41269.953187773004
1712190161546,-38848.09180756286
1712190161585,-34612.762678419705
1712190161624,-30724.9643165078
1712190161663,-30278.834129373776
1712190161702,-20879.89565075212
1712190161741,-11269.444954063278
1712190161780,-8775.062609146815
1712190161819,-7362.938945709029
1712190161858,-5682.131976802833
1712190161897,-4459.415272696875
1712190161936,-2995.8058123367373
1712190161975,-2352.1642506662756
1712190162014,-1759.7404104894958
1712190162053,-1745.2729731327854
1712190162092,-1402.0959145203233
1712190162131,-1352.610067221569
1712190162170,-1111.824289274402
1712190162209,-1111.824289274402
1712190162249,-1111.824289274402
1712190162289,-1111.824289274402
1712190162329,-1111.824289274402
1712190162369,-1111.824289274402
1712190162409,-1111.824289274402
1712190162449,609.7661765522789
1712190162489,745.7954445360228
1712190162529,745.7954445360228
1712190162569,745.7954445360228
1712190162609,745.7954445360228
1712190162649,745.7954445360228
1712190162689,745.7954445360228
1712190162729,745.7954445360228
1712190162769,745.7954445360228
1712190162809,745.7954445360228
1712190162849,745.7954445360228
1712190162889,609.7661765522789
1712190162929,263.6032289543655
1712190162969,-1550.3546050493605
1712190163009,-1550.3546050493605
1712190163049,-1550.3546050493605
1712190163089,-1550.3546050493605
1712190163129,-1550.3546050493605
1712190163169,-1550.3546050493605
1712190163209,-1550.3546050493605
1712190163249,-1550.3546050493605
1712190163289,-1550.3546050493605
1712190163329,-1550.3546050493605
1712190163369,263.6032289543655
1712190163409,1102.2967555285431
1712190163449,4347.875642812811
1712190163489,5912.367597654695
1712190163529,6863.635321321897
1712190163569,8185.284117379924
1712190163609,8719.306412291015
1712190163649,9779.759065320017
1712190163689,10715.177916499553
1712190163729,11191.47363697202
1712190163769,12627.536304332782
1712190163809,13076.497065924108
1712190163849,13804.032482296694
1712190163889,15041.7369951359
1712190163929,15390.944143047323
1712190163969,16564.953875717474
1712190164009,17158.457153095165
1712190164049,17801.513382574078
1712190164089,17801.513382574078
1712190164129,17158.457153095165
1712190164169,16564.953875717474
1712190164209,15261.07512725424
1712190164249,15041.7369951359
1712190164289,13804.032482296694
1712190164329,13804.032482296694
1712190164369,13804.032482296694
1712190164409,14397.2778466905
1712190164449,15041.7369951359
1712190164489,15237.834717931459
1712190164529,15261.07512725424
1712190164569,15620.592827160377
1712190164609,16564.953875717474
1712190164649,16907.08987691067
1712190164689,16907.08987691067
1712190164729,16907.08987691067
1712190164769,16907.08987691067
1712190164809,16907.08987691067
1712190164849,15620.592827160377
1712190164889,15513.91684521758
1712190164929,15513.91684521758
1712190164969,15513.91684521758
1712190165009,15620.592827160377
1712190165049,15645.275212571956
1712190165089,15721.784826006275
1712190165129,15915.979809485842
1712190165169,16057.952759050298
1712190165209,16374.368094724603
1712190165249,16907.08987691067
1712190165289,16935.155140258837
1712190165329,17086.434682544088
1712190165369,18365.091959937476
1712190165409,17086.434682544088
1712190165449,16935.155140258837
1712190165489,16374.368094724603
1712190165529,16057.952759050298
1712190165569,15915.979809485842
1712190165609,15721.784826006275
1712190165649,15645.275212571956
1712190165689,15645.275212571956
1712190165729,15645.275212571956
1712190165769,15334.251247379929
1712190165809,14610.788522181101
1712190165849,11133.920822671615
1712190165889,11133.920822671615
1712190165929,11133.920822671615
1712190165969,11133.920822671615
1712190166009,10837.862257504836
1712190166049,10326.68447026168
1712190166089,10041.394641425228
1712190166129,9985.87095963629
1712190166169,9956.753319903044
1712190166209,9768.533992933575
1712190166249,9509.201410012087
1712190166289,9289.635972970631
1712190166329,9153.283179315738
1712190166369,8825.594059362775
1712190166409,8313.860103481915
1712190166449,5084.747740044724
1712190166489,2779.9382073157467
1712190166529,2779.9382073157467
1712190166569,2779.9382073157467
1712190166609,2779.9382073157467
1712190166649,2402.4116189691704
1712190166689,2009.6004052115604
1712190166729,1536.4798424567562
1712190166769,1525.3696778859012
1712190166809,1453.1547538270243
1712190166849,1379.315649165772
1712190166889,1072.551646735752
1712190166929,570.9381488459185
1712190166969,241.09130422351882
1712190167009,65.03621440241113
1712190167049,-44.56376630719751
1712190167089,-4476.893353824038
1712190167129,-7062.492755556246
1712190167169,-7616.922791035147
1712190167209,-7616.922791035147
1712190167249,-7616.922791035147
1712190167289,-8308.822598940693
1712190167329,-8315.744362532627
1712190167369,-8317.130644912831
1712190167409,-8469.024341681972
1712190167449,-8501.797057536198
1712190167489,-9094.10026359465
1712190167529,-9627.455125006381
1712190167569,-9925.015259276144
1712190167609,-10286.812327480875
1712190167649,-10565.085226389114
1712190167689,-11622.354561166372
1712190167729,-16155.621962418314
1712190167769,-17423.99478753819
1712190167809,-17423.99478753819
1712190167849,-17423.99478753819
1712190167889,-17423.99478753819
1712190167929,-18327.990878728684
1712190167969,-18568.763176657725
1712190168009,-18985.367787517374
1712190168049,-19213.65396947018
1712190168089,-19372.43666245835
1712190168129,-19388.06111054332
1712190168169,-19610.14744786732
1712190168209,-19895.185857630102
1712190168249,-19931.731095674913
1712190168289,-20162.767062323866
1712190168329,-20873.024935376132
1712190168369,-24816.21981254616
1712190168409,-24816.21981254616
1712190168449,-24816.21981254616
1712190168489,-24816.21981254616
1712190168529,-24816.21981254616
1712190168569,-25722.252886357717
1712190168609,-26173.49170657806
1712190168649,-27255.52140096086
1712190168689,-27381.025934843812
1712190168729,-27504.539002199657
1712190168769,-27776.615811241325
1712190168809,-28003.536152652232
1712190168849,-28008.402022723574
1712190168889,-28008.402022723574
1712190168929,-28117.613264201675
1712190168969,-28210.450715258252
1712190169009,-28210.450715258252
1712190169049,-28117.613264201675
1712190169089,-28117.613264201675
1712190169129,-28117.613264201675
1712190169169,-28527.26136363065
1712190169209,-28590.187486698385
1712190169249,-30351.376135634724
1712190169289,-30756.483417283744
1712190169329,-31178.44748068787
1712190169369,-31178.44748068787
1712190169409,-31178.44748068787
1712190169449,-30756.483417283744
1712190169489,-30752.265373879578
1712190169529,-30631.452680022456
1712190169569,-30608.0777272759
1712190169609,-30398.314903128892
1712190169649,-30351.376135634724
1712190169689,-29352.380443900824
1712190169729,-28590.187486698385
1712190169769,-28527.26136363065
1712190169809,-28590.187486698385
1712190169849,-29352.380443900824
1712190169889,-30398.314903128892
1712190169929,-30398.314903128892
1712190169969,-30398.314903128892
1712190170009,-30398.314903128892
1712190170049,-30087.85319094034
1712190170089,-29352.380443900824
1712190170129,-29220.824531968683
1712190170169,-28716.608329609968
1712190170209,-28674.96920028841
1712190170249,-28374.870818289928
1712190170289,-27362.732189362403
1712190170329,-26619.43310595397
1712190170369,-26307.5956537365
1712190170409,-25652.479243237525
1712190170449,-25139.12079127389
1712190170489,-25139.12079127389
1712190170529,-25139.12079127389
1712190170569,-25139.12079127389
1712190170609,-24564.59672777378
1712190170649,-23943.33318674704
1712190170689,-23922.91958250897
1712190170729,-21786.96516834991
1712190170769,-21768.458671586122
1712190170809,-19988.259793763515
1712190170849,-19794.778780533932
1712190170889,-19076.445145976963
1712190170929,-18932.29426704673
1712190170969,-18490.32916167425
1712190171009,-17689.61587278056
1712190171049,-17689.61587278056
1712190171089,-17689.61587278056
1712190171129,-17689.61587278056
1712190171169,-17689.61587278056
1712190171209,-17211.253460926935
1712190171249,-15575.376941550756
1712190171289,-15337.86493198853
1712190171329,-14807.021307691932
1712190171369,-14037.40413046442
1712190171409,-13319.715352348983
1712190171449,-12908.673288630554
1712190171489,-11821.341646477813
1712190171529,-10865.881072098622
1712190171569,-10307.27122487803
1712190171609,-8893.293138869107
1712190171649,-8088.55664353678
1712190171689,-8893.293138869107
1712190171729,-8972.096048502252
1712190171769,-8972.096048502252
1712190171809,-8972.096048502252
1712190171849,-8153.239823298063
1712190171889,-7544.733010665979
1712190171929,-6970.545837628655
1712190171969,-6369.564905284904
1712190172009,-5577.040144545957
1712190172049,-4782.975978108821
1712190172089,-4507.102296858793
1712190172129,-3387.797236741055
1712190172169,-2503.637735313736
1712190172209,-2214.615213178564
1712190172249,-1944.1344616836868
1712190172289,-551.633383390028
1712190172329,487.60164368571714
1712190172369,8.215241685509682
1712190172409,8.215241685509682
1712190172449,487.60164368571714
1712190172489,953.5448102508672
1712190172529,1013.9666241370142
1712190172569,2076.4361816027667
1712190172609,2928.277869862737
1712190172649,2987.631591118872
1712190172689,3010.814149701968
1712190172729,3295.183566960506
1712190172769,3935.8893824175466
1712190172809,4151.321605801582
1712190172849,5199.933344752528
1712190172889,5909.953362448141
1712190172929,7105.143222015351
1712190172969,7116.768995006569
1712190173009,5909.953362448141
1712190173049,5791.296118383529
1712190173089,5791.296118383529
1712190173129,5909.953362448141
1712190173169,7011.67545124772
1712190173209,7116.768995006569
1712190173249,7463.222574518062
1712190173289,7753.277835351415
1712190173329,7970.992450251477
1712190173369,7980.398154628463
1712190173409,8885.068609773181
1712190173449,9577.134362117853
1712190173489,9801.206180264242
1712190173529,10341.882594614988
1712190173569,11642.312332098838
1712190173609,11738.299105216283
1712190173649,11620.72591350926
1712190173689,10473.509817019105
1712190173729,10473.509817019105
1712190173769,11071.122562477365
1712190173809,11620.72591350926
1712190173849,11711.816426795209
1712190173889,11738.299105216283
1712190173929,11775.128388579935
1712190173969,11842.193833609344
1712190174009,11958.8358752036
1712190174049,12011.840866981773
1712190174089,12645.665020511486
1712190174129,13724.406064809533
1712190174169,13868.895145304268
1712190174209,13958.923280521296
1712190174249,13958.923280521296
1712190174289,13724.406064809533
1712190174329,12645.665020511486
1712190174369,12502.187897407683
1712190174409,12011.840866981773
1712190174449,11958.8358752036
1712190174489,11958.8358752036
1712190174529,11958.8358752036
1712190174569,11958.8358752036
1712190174609,11958.8358752036
1712190174649,11842.193833609344
1712190174689,11842.193833609344
1712190174729,10886.680746410508
1712190174769,10886.680746410508
1712190174809,10886.680746410508
1712190174849,10886.680746410508
1712190174889,10886.680746410508
1712190174929,10886.680746410508
1712190174969,10886.680746410508
1712190175009,10886.680746410508
1712190175049,9329.705645530019
1712190175089,8457.306211285992
1712190175129,8298.966720363824
1712190175169,7625.327501365915
1712190175209,7625.327501365915
1712190175249,7625.327501365915
1712190175289,7625.327501365915
1712190175329,7625.327501365915
1712190175369,7625.327501365915
1712190175409,7625.327501365915
1712190175449,8298.966720363824
1712190175489,8321.059602234978
1712190175529,8321.059602234978
1712190175569,8321.059602234978
1712190175609,8321.059602234978
1712190175649,8321.059602234978
1712190175689,8321.059602234978
1712190175729,8321.059602234978
1712190175769,7068.9930190509185
1712190175809,6549.180509147234
1712190175849,6196.408175332239
1712190175889,4882.36978590861
1712190175929,4882.36978590861
1712190175969,4882.36978590861
1712190176009,4882.36978590861
1712190176049,4882.36978590861
1712190176089,4882.36978590861
1712190176129,4882.36978590861
1712190176169,4882.36978590861
1712190176209,2466.0138581246138
1712190176249,2466.0138581246138
1712190176289,2466.0138581246138
1712190176329,2466.0138581246138
1712190176369,2466.0138581246138
1712190176409,2466.0138581246138
1712190176449,2466.0138581246138
1712190176489,2466.0138581246138
1712190176529,2084.4732654755935
1712190176569,1277.8185452171601
1712190176609,233.22499753325246
1712190176649,3.494914571288973
1712190176689,-131.81863358151168
1712190176729,-131.81863358151168
1712190176769,-131.81863358151168
1712190176809,-747.3329046692234
1712190176849,-1192.0642356274184
1712190176889,-1277.3457812757697
1712190176929,-1529.7111081043258
1712190176969,-3173.3438978011254
1712190177009,-3173.3438978011254
1712190177049,-3173.3438978011254
1712190177089,-3173.3438978011254
1712190177129,-3173.3438978011254
1712190177169,-3173.3438978011254
1712190177209,-3173.3438978011254
1712190177249,-3173.3438978011254
1712190177289,-4094.3503057656344
1712190177329,-4785.65605489444
1712190177369,-5601.376243907725
1712190177409,-5808.373577090679
1712190177449,-6058.342586166924
1712190177489,-6058.342586166924
1712190177529,-6206.140937430318
1712190177569,-6206.140937430318
1712190177609,-6747.613644758239
1712190177649,-6755.865090053529
1712190177689,-6965.316242192872
1712190177729,-6965.316242192872
1712190177769,-6965.316242192872
1712190177809,-6965.316242192872
1712190177849,-6965.316242192872
1712190177889,-6965.316242192872
1712190177929,-6965.316242192872
1712190177969,-6965.316242192872
1712190178009,-8403.250149905682
1712190178049,-9063.011766827432
1712190178089,-9803.265521827154
1712190178129,-10275.644753437024
1712190178169,-10275.644753437024
1712190178209,-10275.644753437024
1712190178249,-9939.927075258223
1712190178289,-9803.265521827154
1712190178329,-9297.026532368502
1712190178369,-9063.011766827432
1712190178409,-7628.461656016298
1712190178449,-6965.316242192872
1712190178489,-6102.378366861492
1712190178529,-5548.837818046566
1712190178569,-4997.697153958026
1712190178609,-4940.832668618299
1712190178649,-4940.832668618299
1712190178689,-4940.832668618299
1712190178729,-4940.832668618299
1712190178769,-5548.837818046566
1712190178809,-7288.182791811414
1712190178849,-7288.182791811414
1712190178889,-7288.182791811414
1712190178929,-7288.182791811414
1712190178969,-7288.182791811414
1712190179009,-7288.182791811414
1712190179049,-6907.234628940467
1712190179089,-5641.246938310098
1712190179129,-5548.837818046566
1712190179169,-5354.13886271324
1712190179209,-4011.5061392721254
1712190179249,-4011.5061392721254
1712190179289,-4011.5061392721254
1712190179329,-4011.5061392721254
1712190179369,-5354.13886271324
1712190179409,-5402.356439584633
1712190179449,-5641.246938310098
1712190179489,-6907.234628940467
1712190179529,-7288.182791811414
1712190179569,-7520.637396460632
1712190179609,-8133.086846481543
1712190179649,-8133.086846481543
1712190179689,-8133.086846481543
1712190179729,-8232.126815334894
1712190179769,-9206.199787107296
1712190179809,-10656.886425476754
1712190179849,-13951.464836604195
1712190179889,-13951.464836604195
1712190179929,-13951.464836604195
1712190179969,-13951.464836604195
1712190180009,-13951.464836604195
1712190180049,-14445.568327229237
1712190180089,-14631.793275961187
1712190180129,-15217.148206522223
1712190180169,-15232.904305039207
1712190180209,-16216.661851881072
1712190180249,-16323.83258784376
1712190180289,-16355.451144113671
1712190180330,-16355.451144113671
1712190180371,-16355.451144113671
1712190180412,-16355.451144113671
1712190180453,-16355.451144113671
1712190180494,-19168.150766000617
1712190180535,-19168.150766000617
1712190180576,-19168.150766000617
1712190180617,-19168.150766000617
1712190180658,-19168.150766000617
1712190180699,-19168.150766000617
1712190180740,-19168.150766000617
1712190180781,-19168.150766000617
1712190180822,-19168.150766000617
1712190180863,-19168.150766000617
1712190180904,-19168.150766000617
1712190180945,-8924.16988029168
1712190180986,-1412.2846886604093
1712190181027,6673.906742760912
1712190181068,14714.588022504002
1712190181109,20049.913002540357
1712190181150,20689.302208597772
1712190181191,21306.175258788513
1712190181232,21350.94052705355
1712190181273,21585.819449155824
1712190181314,22920.346360265976
1712190181355,23870.16002505296
1712190181396,23870.16002505296
1712190181437,23870.16002505296
1712190181478,23870.16002505296
1712190181519,23870.16002505296
1712190181560,23870.16002505296
1712190181601,23870.16002505296
1712190181642,23870.16002505296
1712190181683,23870.16002505296
1712190181724,23870.16002505296
1712190181765,23870.16002505296
1712190181806,22040.476903876523
1712190181847,15466.55875554867
1712190181888,10777.664102911483
1712190181929,7830.51319302991
1712190181970,7830.51319302991
1712190182011,7830.51319302991
1712190182052,7320.931744484929
1712190182093,7284.840651490726
1712190182134,6929.708941477351
1712190182175,6094.393629181664
1712190182216,5843.5480170268565
1712190182257,5240.322251309641
1712190182298,5044.5810544393025
1712190182339,5041.841711628484
1712190182380,5029.254098442849
1712190182421,4522.90916634677
1712190182462,4483.612742391881
1712190182503,1223.9845524886623
1712190182544,-3598.8531296772417
1712190182585,-3598.8531296772417
1712190182626,-3598.8531296772417
1712190182667,-3598.8531296772417
1712190182708,-3598.8531296772417
1712190182749,-4172.129494383
1712190182790,-4816.049308091635
1712190182831,-6143.804791649338
1712190182872,-6315.022670109291
1712190182913,-6381.65596020571
1712190182954,-7107.941624877043
1712190182995,-7207.604546911316
1712190183036,-7263.27044847887
1712190183077,-7263.27044847887
1712190183118,-7263.27044847887
1712190183159,-7876.533984601498
1712190183200,-10488.285399458371
1712190183241,-10488.285399458371
1712190183282,-10488.285399458371
1712190183323,-10488.285399458371
1712190183364,-10488.285399458371
1712190183405,-10488.285399458371
1712190183446,-11221.880963858683
1712190183487,-12498.30704273004
1712190183528,-12846.339253892656
1712190183569,-13519.6679494516
1712190183610,-14281.160549892578
1712190183651,-14808.57863083342
1712190183692,-15006.543296352029
1712190183733,-15113.624518065015
1712190183774,-15113.624518065015
1712190183815,-14808.57863083342
1712190183856,-13540.336803762475
1712190183897,-12846.339253892656
1712190183938,-12498.30704273004
1712190183979,-11366.390884607565
1712190184020,-10488.285399458371
1712190184061,-8521.819707091432
1712190184102,-9875.191397033632
1712190184143,-11366.390884607565
1712190184184,-12846.339253892656
1712190184225,-12933.617088186089
1712190184266,-12933.617088186089
1712190184307,-12933.617088186089
1712190184348,-12642.916940770578
1712190184389,-11589.893744431902
1712190184430,-11366.390884607565
1712190184471,-11242.354733543005
1712190184512,-10586.73249110044
1712190184553,-9875.191397033632
1712190184594,-8798.97724816436
1712190184635,-8521.819707091432
1712190184676,-7024.203074301127
1712190184717,-6099.531426812056
1712190184758,-4834.9880480272695
1712190184799,-5188.9422896665055
1712190184840,-7024.203074301127
1712190184881,-8616.295660526725
1712190184922,-8798.97724816436
1712190184963,-8616.295660526725
1712190185004,-8390.456556765595
1712190185045,-7407.735731377732
1712190185086,-7395.2002072890755
1712190185127,-7128.603161937557
1712190185168,-7024.203074301127
1712190185207,-5684.799967958359
1712190185246,-5188.9422896665055
1712190185285,-4593.189476642292
1712190185324,-4347.555783224991
1712190185363,-2750.456865930697
1712190185402,-2211.868955938611
1712190185441,-2211.868955938611
1712190185480,-2211.868955938611
1712190185519,-4347.555783224991
1712190185558,-4376.5059169866145
1712190185597,-5188.9422896665055
1712190185636,-5684.799967958359
1712190185675,-5684.799967958359
1712190185714,-5374.158770316979
1712190185753,-5189.323581248056
1712190185792,-4402.968585808761
1712190185831,-4376.5059169866145
1712190185870,-4347.555783224991
1712190185909,-2961.212380053941
1712190185948,-2211.868955938611
1712190185987,-779.8412076798268
1712190186026,239.66286195488647
1712190186065,670.0166661276016
1712190186104,670.0166661276016
1712190186143,670.0166661276016
1712190186182,670.0166661276016
1712190186221,-779.8412076798268
1712190186260,-1820.0918500423431
1712190186299,-2961.212380053941
1712190186338,-2961.212380053941
1712190186377,-2894.547711403575
1712190186416,-2488.3242788165808
1712190186456,-2488.3242788165808
1712190186496,-2296.278189284727
1712190186536,-1820.0918500423431
1712190186576,-1404.8089886405505
1712190186616,-779.8412076798268
1712190186656,546.5019170693122
1712190186696,951.7306840682868
1712190186736,2262.8852299731225
1712190186776,2262.8852299731225
1712190186816,2262.8852299731225
1712190186856,2262.8852299731225
1712190186896,2262.8852299731225
1712190186936,1095.6334066553973
1712190186976,546.5019170693122
1712190187016,-1404.8089886405505
1712190187056,-1404.8089886405505
1712190187096,-1404.8089886405505
1712190187136,-1022.1132073248737
1712190187176,-1022.1132073248737
1712190187216,178.2418913373258
1712190187256,546.5019170693122
1712190187296,1095.6334066553973
1712190187336,1616.4396888208576
1712190187376,2262.8852299731225
1712190187416,3317.373074332252
1712190187456,3713.477025732398
1712190187496,4595.585161637282
1712190187536,4595.585161637282
1712190187576,4595.585161637282
1712190187616,3317.373074332252
1712190187656,2892.9627354731783
1712190187696,1616.4396888208576
1712190187736,1095.6334066553973
1712190187776,178.2418913373258
1712190187816,178.2418913373258
1712190187856,178.2418913373258
1712190187896,178.2418913373258
1712190187936,178.2418913373258
1712190187976,178.2418913373258
1712190188016,178.2418913373258
1712190188056,1244.8366165654734
1712190188096,1244.8366165654734
1712190188136,1244.8366165654734
1712190188176,1244.8366165654734
1712190188216,1244.8366165654734
1712190188256,1244.8366165654734
1712190188296,1244.8366165654734
1712190188336,1244.8366165654734
1712190188376,45.78413044055924
1712190188416,-1137.2492793293204
1712190188456,-1475.5364358285442
1712190188496,-1670.4254312943667
1712190188536,-1670.4254312943667
1712190188576,-1670.4254312943667
1712190188616,-1670.4254312943667
1712190188656,-1991.3352364869788
1712190188696,-1475.5364358285442
1712190188736,-1024.3520571924746
1712190188776,45.78413044055924
1712190188816,994.0231925607659
1712190188856,1244.8366165654734
1712190188896,2177.6535344321746
1712190188936,2755.2869401632342
1712190188976,2755.2869401632342
1712190189016,2755.2869401632342
1712190189056,2755.2869401632342
1712190189096,1392.8540331171826
1712190189136,994.0231925607659
1712190189176,-1024.3520571924746
1712190189216,-1024.3520571924746
1712190189256,-1024.3520571924746
1712190189296,-799.3179748635739
1712190189336,-799.3179748635739
1712190189376,-799.3179748635739
1712190189416,-91.53089932119474
1712190189456,994.0231925607659
1712190189496,1392.8540331171826
1712190189536,2078.5083322273567
1712190189576,3318.9612665432505
1712190189616,4228.7664688471705
1712190189656,4228.7664688471705
1712190189696,4228.7664688471705
1712190189736,4228.7664688471705
1712190189776,2078.5083322273567
1712190189816,1856.961207125336
1712190189856,1392.8540331171826
1712190189896,-91.53089932119474
1712190189936,-799.3179748635739
1712190189976,-799.3179748635739
1712190190016,-799.3179748635739
1712190190056,-799.3179748635739
1712190190096,-799.3179748635739
1712190190136,-1079.3751145664137
1712190190176,-1079.3751145664137
1712190190216,-3672.990744273644
1712190190256,-3672.990744273644
1712190190296,-3672.990744273644
1712190190336,-3672.990744273644
1712190190376,-3672.990744273644
1712190190416,-3672.990744273644
1712190190456,-3672.990744273644
1712190190496,-4151.497565014288
1712190190536,-5869.643230236601
1712190190576,-5877.689048484433
1712190190616,-6587.645899189636
1712190190656,-6628.231254430255
1712190190696,-6709.078572699567
1712190190736,-6797.080416358309
1712190190776,-7135.540558632929
1712190190816,-7300.808062261902
1712190190856,-8193.825356880901
1712190190896,-8193.825356880901
1712190190936,-7135.540558632929
1712190190976,-7078.90389664378
1712190191016,-7078.90389664378
1712190191056,-7078.90389664378
1712190191096,-7078.90389664378
1712190191136,-7078.90389664378
1712190191176,-7078.90389664378
1712190191216,-7078.90389664378
1712190191256,-9421.275208781473
1712190191296,-11521.985252324957
1712190191336,-12123.62446806021
1712190191376,-12123.62446806021
1712190191416,-12123.62446806021
1712190191456,-12123.62446806021
1712190191496,-12123.62446806021
1712190191536,-12123.62446806021
1712190191576,-11521.985252324957
1712190191616,-11090.788277552696
1712190191656,-9421.275208781473
1712190191696,-8944.859352383995
1712190191736,-7078.90389664378
1712190191776,-6548.120862849988
1712190191816,-6548.120862849988
1712190191856,-6548.120862849988
1712190191896,-6548.120862849988
1712190191936,-6548.120862849988
1712190191976,-6548.120862849988
1712190192016,-8944.859352383995
1712190192056,-9860.97517929785
1712190192096,-9860.97517929785
1712190192136,-9079.741170158144
1712190192176,-8944.859352383995
1712190192216,-8011.953927056398
1712190192256,-7494.6635342966765
1712190192296,-7280.646738568321
1712190192336,-6548.120862849988
1712190192376,-5927.981247589923
1712190192416,-5734.43548757839
1712190192456,-4725.8786935461685
1712190192496,-3254.308461318491
1712190192536,-2940.1035272360314
1712190192576,-1114.5360809941776
1712190192616,-410.7567335346248
1712190192656,-410.7567335346248
1712190192696,-410.7567335346248
1712190192736,-1681.8789740107022
1712190192776,-2590.26528917579
1712190192816,-1975.609522649087
1712190192856,-1681.8789740107022
1712190192896,-801.3571275696158
1712190192936,-410.7567335346248
1712190192976,313.5754375248216
1712190193016,533.233958975412
1712190193056,708.1221165626775
1712190193096,1402.6853858316317
1712190193136,1815.8718415086623
1712190193176,2617.08875628002
1712190193216,3338.582838958828
1712190193256,3704.1095135957003
1712190193296,5141.246837375918
1712190193336,6302.73630148964
1712190193376,6302.73630148964
1712190193416,5904.830082671717
1712190193456,3704.1095135957003
1712190193496,2617.08875628002
1712190193536,2351.1261744019575
1712190193576,2351.1261744019575
1712190193616,2631.111147666583
1712190193656,2631.111147666583
1712190193696,2631.111147666583
1712190193736,2631.111147666583
1712190193776,3704.1095135957003
1712190193816,3892.2511812071316
1712190193856,5904.830082671717
1712190193896,5916.5329875065945
1712190193936,5916.5329875065945
1712190193976,5916.5329875065945
1712190194016,5916.5329875065945
1712190194056,5916.5329875065945
1712190194096,5916.5329875065945
1712190194136,5904.830082671717
1712190194176,5703.588084707037
1712190194216,3892.2511812071316
1712190194256,2631.111147666583
1712190194296,2631.111147666583
1712190194336,2631.111147666583
1712190194376,2631.111147666583
1712190194416,2631.111147666583
1712190194456,2526.9342638859525
1712190194496,2526.9342638859525
1712190194536,2919.5885349190794
1712190194576,3892.2511812071316
1712190194616,4859.451521552866
1712190194656,4859.451521552866
1712190194696,4859.451521552866
1712190194736,4859.451521552866
1712190194776,4859.451521552866
1712190194816,4859.451521552866
1712190194856,4859.451521552866
1712190194896,2919.5885349190794
1712190194936,1754.4027628120966
1712190194976,873.7871125482488
1712190195016,856.6205660603009
1712190195056,856.6205660603009
1712190195096,856.6205660603009
1712190195136,856.6205660603009
1712190195176,856.6205660603009
1712190195216,856.6205660603009
1712190195256,1352.2202675780281
1712190195296,1754.4027628120966
1712190195336,2919.5885349190794
1712190195376,3305.332658567466
1712190195416,3305.332658567466
1712190195456,3305.332658567466
1712190195496,3305.332658567466
1712190195536,3305.332658567466
1712190195576,3305.332658567466
1712190195616,3305.332658567466
1712190195656,1352.2202675780281
1712190195696,856.6205660603009
1712190195736,-678.6866356744431
1712190195776,-678.6866356744431
1712190195816,-678.6866356744431
1712190195856,-678.6866356744431
1712190195896,-678.6866356744431
1712190195936,-678.6866356744431
1712190195976,-678.6866356744431
1712190196016,457.8761881655082
1712190196056,1352.2202675780281
1712190196096,1971.4263301999308
1712190196136,1971.4263301999308
1712190196176,1971.4263301999308
1712190196216,1971.4263301999308
1712190196256,1971.4263301999308
1712190196296,1971.4263301999308
1712190196336,1971.4263301999308
1712190196376,1971.4263301999308
1712190196416,457.8761881655082
1712190196456,-990.8722278184723
1712190196496,-1594.1301991499495
1712190196536,-1594.1301991499495
1712190196576,-1303.6643523629755
1712190196616,-1303.6643523629755
1712190196656,-1303.6643523629755
1712190196696,-1303.6643523629755
1712190196736,-724.2365754572675
1712190196776,457.8761881655082
1712190196816,624.8751972247846
1712190196856,1971.4263301999308
1712190196896,2268.40710286214
1712190196936,2268.40710286214
1712190196976,2268.40710286214
1712190197016,2268.40710286214
1712190197056,2268.40710286214
1712190197096,2268.40710286214
1712190197136,624.8751972247846
1712190197225,-508.20399457309395
1712190197265,-724.2365754572675
1712190197305,-584.1612487197854
1712190197345,-508.20399457309395
1712190197386,-204.95448525552638
1712190197425,-204.95448525552638
1712190197465,-64.85346046928316
1712190197506,-14.544280413305387
1712190197546,624.8751972247846
1712190197587,730.612400745973
1712190197626,2268.40710286214
1712190197666,2690.046016818378
1712190197706,3678.0501790086273
1712190197746,3841.696841121884
1712190197787,3841.696841121884
1712190197827,3841.696841121884
1712190197867,2690.046016818378
1712190197907,1717.7864357666112
1712190197947,730.612400745973
1712190197988,-14.544280413305387
1712190198027,-14.544280413305387
1712190198067,-14.544280413305387
1712190198108,-14.544280413305387
1712190198148,-14.544280413305387
1712190198189,-14.544280413305387
1712190198228,-14.544280413305387
1712190198268,-14.544280413305387
1712190198308,-4784.051657904871
1712190198348,-4784.051657904871
1712190198389,-4784.051657904871
1712190198429,-4784.051657904871
1712190198469,-4784.051657904871
1712190198509,-4784.051657904871
1712190198549,-4784.051657904871
1712190198590,-5580.8705293468665
1712190198629,-5645.840640417766
1712190198670,-7210.802609020378
1712190198710,-7723.507137431763
1712190198750,-8335.873193594627
1712190198791,-8434.363411200233
1712190198830,-8434.363411200233
1712190198870,-8434.363411200233
1712190198910,-8883.215209764894
1712190198951,-9383.579269611044
1712190198991,-9573.613968436606
1712190199031,-9110.400706624147
1712190199071,-9110.400706624147
1712190199111,-9110.400706624147
1712190199151,-9110.400706624147
1712190199192,-9110.400706624147
1712190199231,-9110.400706624147
1712190199271,-10943.202460892033
1712190199312,-10967.093384664273
1712190199352,-11683.423294476233
1712190199392,-13712.617545321584
1712190199432,-15147.30934161297
1712190199472,-15215.241054279264
1712190199512,-15720.279981790576
1712190199552,-15720.279981790576
1712190199593,-15215.241054279264
1712190199632,-15100.401997910812
1712190199673,-13733.963072969345
1712190199713,-13712.617545321584
1712190199753,-11463.725833764067
1712190199794,-10967.093384664273
1712190199833,-10967.093384664273
1712190199873,-10967.093384664273
1712190199913,-10967.093384664273
1712190199953,-10967.093384664273
1712190199994,-10967.093384664273
1712190200033,-11463.725833764067
1712190200073,-12612.169782356825
1712190200114,-13733.963072969345
1712190200154,-13127.654226441868
1712190200195,-12612.169782356825
1712190200234,-12093.993191135349
1712190200274,-12093.993191135349
1712190200314,-12056.651966694975
1712190200354,-11718.020757098682
1712190200395,-11463.725833764067
1712190200434,-10186.606285596266
1712190200475,-8723.960017568199
1712190200515,-7475.518210646231
1712190200555,-7030.667637703009
1712190200596,-6690.4247479406185
1712190200635,-6690.4247479406185
1712190200675,-6690.4247479406185
1712190200715,-6690.4247479406185
1712190200755,-7475.518210646231
1712190200796,-9842.191506377887
1712190200836,-10186.606285596266
1712190200876,-9842.191506377887
1712190200916,-8998.505370947998
1712190200956,-7780.9196370081045
1712190200997,-7780.9196370081045
1712190201036,-7641.553339553066
1712190201076,-7475.518210646231
1712190201116,-6982.406396125443
1712190201156,-5331.723135428503
1712190201197,-5183.249755694065
1712190201237,-5093.8941008828115
1712190201277,-3343.8365951036103
1712190201317,-3074.452425654279
1712190201358,-3074.452425654279
1712190201398,-3074.452425654279
1712190201438,-5093.8941008828115
1712190201478,-5183.249755694065
1712190201518,-6350.929779581726
1712190201558,-6982.406396125443
1712190201599,-6982.406396125443
1712190201638,-6982.406396125443
1712190201678,-6982.406396125443
1712190201719,-6982.406396125443
1712190201759,-6982.406396125443
1712190201800,-6982.406396125443
1712190201840,-6855.66810583137
1712190201880,-6350.929779581726
1712190201920,-6350.929779581726
1712190201960,-6350.929779581726
1712190202001,-6350.929779581726
1712190202040,-6350.929779581726
1712190202081,-6350.929779581726
1712190202121,-6350.929779581726
1712190202161,-6855.66810583137
1712190202202,-8451.812434110092
1712190202241,-9158.741570285056
1712190202281,-10889.047613742528
1712190202322,-10889.047613742528
1712190202362,-10889.047613742528
1712190202402,-10889.047613742528
1712190202442,-10889.047613742528
1712190202482,-9844.918330701767
1712190202522,-9158.741570285056
1712190202562,-8451.812434110092
1712190202603,-7707.221083412413
1712190202642,-6855.66810583137
1712190202683,-5500.007413719315
1712190202723,-5500.007413719315
1712190202763,-5500.007413719315
1712190202804,-5500.007413719315
1712190202843,-5500.007413719315
1712190202883,-7707.221083412413
1712190202923,-7899.669431797694
1712190202963,-8451.812434110092
1712190203004,-9844.918330701767
1712190203044,-9844.918330701767
1712190203084,-9352.409025154542
1712190203124,-9117.374166697264
1712190203164,-8751.666284134146
1712190203205,-7899.669431797694
1712190203244,-7707.221083412413
1712190203285,-7398.824946125504
1712190203325,-5500.007413719315
1712190203365,-5216.022204395849
1712190203406,-2767.916727568023
1712190203445,-2333.917990950402
1712190203485,-2333.917990950402
1712190203526,-2333.917990950402
1712190203566,-2333.917990950402
1712190203607,-5216.022204395849
1712190203646,-5617.858817589702
1712190203686,-7398.824946125504
1712190203726,-6790.72425386752
1712190203766,-5617.858817589702
1712190203807,-5595.099787908839
1712190203847,-5216.022204395849
1712190203887,-4975.958588094683
1712190203927,-4921.227519792505
1712190203967,-4550.5459466963075
1712190204008,-2580.8142770845443
1712190204047,-2333.917990950402
1712190204087,-265.23532174294814
1712190204128,-190.1584799438715
1712190204168,699.4898805506527
1712190204209,699.4898805506527
1712190204248,699.4898805506527
1712190204288,-121.87677828595042
1712190204328,-265.23532174294814
1712190204369,-2580.8142770845443
1712190204409,-4415.1033875839785
1712190204449,-2792.097035886487
1712190204489,-2580.8142770845443
1712190204529,-1674.0712780412287
1712190204569,-1674.0712780412287
1712190204610,-1659.3796565588564
1712190204649,-645.8763270471245
1712190204689,-265.23532174294814
1712190204729,-121.87677828595042
1712190204770,1344.6955900844187
1712190204811,1831.3869725707918
1712190204850,3248.8449763101526
1712190204890,3705.3624120554887
1712190204930,3705.3624120554887
1712190204970,3092.3857952731196
1712190205011,1344.6955900844187
1712190205050,-121.87677828595042
1712190205091,-645.8763270471245
1712190205131,-1659.3796565588564
1712190205171,-1659.3796565588564
1712190205212,-1659.3796565588564
1712190205251,-1659.3796565588564
1712190205291,-1659.3796565588564
1712190205331,-809.5611090948805
1712190205371,-645.8763270471245
1712190205412,1211.78964777058
1712190205452,1344.6955900844187
1712190205492,3092.3857952731196
1712190205532,3092.3857952731196
1712190205572,3092.3857952731196
1712190205613,3092.3857952731196
1712190205652,2021.5218226688448
1712190205692,1211.78964777058
1712190205732,-809.5611090948805
1712190205772,-2366.993475103285
1712190205813,-2470.6442273668945
1712190205853,-2667.347435508389
1712190205893,-2667.347435508389
1712190205933,-2667.347435508389
1712190205973,-2667.347435508389
1712190206014,-3023.707979856292
1712190206053,-3388.3424432377797
1712190206093,-2366.993475103285
1712190206133,-1842.0304507240653
1712190206173,-1842.0304507240653
1712190206214,-1842.0304507240653
1712190206253,-1842.0304507240653
1712190206294,-1842.0304507240653
1712190206334,-1842.0304507240653
1712190206374,-1842.0304507240653
1712190206415,-4390.107239315519
1712190206454,-5490.572462018579
1712190206494,-6711.895512529183
1712190206534,-8296.348273404641
1712190206574,-8296.348273404641
1712190206615,-8296.348273404641
1712190206655,-8296.348273404641
1712190206695,-8104.470282322727
1712190206735,-6711.895512529183
1712190206775,-6407.463714581449
1712190206816,-4390.107239315519
1712190206855,-3962.0175481059123
1712190206895,-1842.0304507240653
1712190206935,-1559.2073862738907
1712190206975,-1559.2073862738907
1712190207016,-1559.2073862738907
1712190207056,-1559.2073862738907
1712190207096,-1559.2073862738907
1712190207136,-3962.0175481059123
1712190207176,-6407.463714581449
1712190207217,-7326.610424221959
1712190207256,-7326.610424221959
1712190207296,-7326.610424221959
1712190207337,-7326.610424221959
1712190207377,-7326.610424221959
1712190207417,-6407.463714581449
1712190207457,-6306.212346888846
1712190207497,-4559.493065840099
1712190207537,-3962.0175481059123
1712190207577,-2314.7514914579224
1712190207618,-1559.2073862738907
1712190207658,-1006.9589795870706
1712190207698,-1006.9589795870706
1712190207738,-1006.9589795870706
1712190207778,-1006.9589795870706
1712190207819,-1006.9589795870706
1712190207858,-2314.7514914579224
1712190207898,-4559.493065840099
1712190207938,-5937.548476731172
1712190207979,-5937.548476731172
1712190208019,-5862.7784381429665
1712190208059,-5570.872548368759
1712190208099,-5368.075003568083
1712190208139,-4823.897223816719
1712190208179,-4559.493065840099
1712190208220,-3103.662683357252
1712190208260,-2314.7514914579224
1712190208300,-341.46618805779144
1712190208340,126.57643491728231
1712190208380,939.7908057207242
1712190208421,939.7908057207242
1712190208460,939.7908057207242
1712190208500,939.7908057207242
1712190208540,-341.46618805779144
1712190208581,-501.9151448905468
1712190208621,-3103.662683357252
1712190208661,-3875.053184197983
1712190208701,-3103.662683357252
1712190208741,-1885.9517370113172
1712190208781,-632.7644861103036
1712190208822,-553.9611615468748
1712190208862,-501.9151448905468
1712190208902,-341.46618805779144
1712190208942,-340.8139364980161
1712190208982,933.077559908852
1712190209023,1800.007480028551
1712190209062,2886.333524697926
1712190209103,3692.9589039415587
1712190209143,5197.348653690424
1712190209183,5405.115240731742
1712190209224,5405.115240731742
1712190209263,2886.333524697926
1712190209302,933.077559908852
1712190209341,-340.8139364980161
1712190209380,-340.8139364980161
1712190209419,-340.8139364980161
1712190209458,-340.8139364980161
1712190209497,-340.8139364980161
1712190209536,-340.8139364980161
1712190209575,-340.8139364980161
1712190209614,933.077559908852
1712190209653,1628.4259357850533
1712190209692,2886.333524697926
1712190209732,3535.968916926766
1712190209772,3535.968916926766
1712190209812,3535.968916926766
1712190209852,2087.6563052730635
1712190209892,1628.4259357850533
1712190209932,-462.8419053070247
1712190209972,-479.2063409280963
1712190210012,-1170.9809662760235
1712190210052,-1470.4772857236676
1712190210092,-1625.786868535215
1712190210132,-1625.786868535215
1712190210172,-1625.786868535215
1712190210212,-1625.786868535215
1712190210252,-2276.6775429779664
1712190210292,-2276.6775429779664
1712190210332,-1625.786868535215
1712190210372,-479.2063409280963
1712190210412,-110.17131883604452
1712190210452,-110.17131883604452
1712190210492,-110.17131883604452
1712190210532,-110.17131883604452
1712190210572,-2917.6304919668473
1712190210612,-3046.9189749041107
1712190210652,-5440.950175499078
1712190210692,-5662.305919078179
1712190210732,-7495.803793172352
1712190210772,-7495.803793172352
1712190210812,-7341.837595217628
1712190210852,-7151.897437178064
1712190210892,-5930.797382451361
1712190210932,-5662.305919078179
1712190210972,-4333.899942404591
1712190211012,-3046.9189749041107
1712190211052,-2917.6304919668473
1712190211092,-1769.7159838965163
1712190211132,-1769.7159838965163
1712190211172,-1769.7159838965163
1712190211212,-1769.7159838965163
1712190211252,-1769.7159838965163
1712190211292,-3046.9189749041107
1712190211332,-4333.899942404591
1712190211372,-5930.797382451361
1712190211412,-6460.906080574263
1712190211452,-6460.906080574263
1712190211492,-6321.181235950673
1712190211532,-6321.181235950673
1712190211572,-6120.470903178211
1712190211612,-5930.797382451361
1712190211652,-4565.826561528724
1712190211692,-4333.899942404591
1712190211732,-1769.7159838965163
1712190211772,-1725.2219112943858
1712190211812,537.891043150099
1712190211852,843.498175851535
1712190211892,843.498175851535
1712190211932,843.498175851535
1712190211972,-1243.4543833220378
1712190212012,-1725.2219112943858
1712190212052,-4565.826561528724
1712190212092,-5633.1863669545855
1712190212132,-4565.826561528724
1712190212172,-3793.2423993744887
1712190212212,-3066.9650859250687
1712190212252,-2845.4411441907287
1712190212292,-2605.79585413076
1712190212332,-1725.2219112943858
1712190212372,-1243.4543833220378
1712190212412,-1215.789920241572
1712190212452,1145.780233579222
1712190212492,1264.2272042846307
1712190212532,3411.8631893619895
1712190212572,3506.264733064454
1712190212612,3506.264733064454
1712190212652,1264.2272042846307
1712190212692,408.3147225459106
1712190212732,-1215.789920241572
1712190212772,-1243.4543833220378
1712190212812,-1215.789920241572
1712190212852,-1104.5668938995805
1712190212892,-420.5938170675654
1712190212932,-254.41277314256877
1712190212972,-142.30116574233398
1712190213012,408.3147225459106
1712190213052,993.8299160692841
1712190213092,1264.2272042846307
1712190213132,3176.721736243926
1712190213172,3506.264733064454
1712190213212,4981.393847404048
1712190213252,4981.393847404048
1712190213292,3209.9253710438497
1712190213332,3176.721736243926
1712190213372,993.8299160692841
1712190213412,408.3147225459106
1712190213452,-142.30116574233398
1712190213492,-254.41277314256877
1712190213532,-254.41277314256877
1712190213572,-254.41277314256877
1712190213612,-254.41277314256877
1712190213652,-254.41277314256877
1712190213692,-254.41277314256877
1712190213732,-254.41277314256877
1712190213772,993.8299160692841
1712190213812,1243.2481272516306
1712190213852,1243.2481272516306
1712190213892,1243.2481272516306
1712190213932,1243.2481272516306
1712190213972,-1177.0373692871071
1712190214012,-2026.1759409429505
1712190214052,-3349.2346450302284
1712190214092,-3517.231301763095
1712190214132,-5226.165653414559
1712190214172,-5502.894018338062
1712190214212,-5502.894018338062
1712190214252,-5502.894018338062
1712190214292,-5502.894018338062
1712190214332,-5226.165653414559
1712190214372,-4550.499222230166
1712190214412,-3517.231301763095
1712190214452,-2026.1759409429505
1712190214492,-1865.8347589822952
1712190214532,-1865.8347589822952
1712190214572,-1865.8347589822952
1712190214612,-1865.8347589822952
1712190214652,-1865.8347589822952
1712190214692,-2026.1759409429505
1712190214732,-4550.499222230166
1712190214772,-6543.725773636252
1712190214812,-6543.725773636252
1712190214852,-6122.25822665263
1712190214892,-4711.815831400454
1712190214932,-4550.499222230166
1712190214972,-4308.636749550467
1712190215012,-4027.786761776544
1712190215052,-2614.245783118531
1712190215092,-1865.8347589822952
1712190215132,-1536.8014157610014
1712190215172,-662.082498931326
1712190215212,304.6029886766337
1712190215252,1475.7301838870626
1712190215292,1475.7301838870626
1712190215332,-60.17009252170101
1712190215372,-662.082498931326
1712190215412,-1536.8014157610014
1712190215452,-2251.7004254788626
1712190215492,-2251.7004254788626
1712190215532,-662.082498931326
1712190215572,-399.28941536555067
1712190215612,-60.17009252170101
1712190215652,614.6743456809781
1712190215692,1243.8010342197958
1712190215732,1475.7301838870626
1712190215772,1824.0912953664083
1712190215812,3357.8402214250527
1712190215852,3477.316554984078
1712190215892,5551.820931119379
1712190215932,5715.913405029103
1712190215972,5943.315526298713
1712190216012,5551.820931119379
1712190216052,3357.8402214250527
1712190216092,1824.0912953664083
1712190216132,1243.8010342197958
1712190216172,1243.8010342197958
1712190216212,1243.8010342197958
1712190216252,1243.8010342197958
1712190216292,1243.8010342197958
1712190216332,1499.574617351871
1712190216372,1824.0912953664083
1712190216412,3357.8402214250527
1712190216452,3719.8966837639455
1712190216492,5423.012794939103
1712190216532,5423.012794939103
1712190216572,5423.012794939103
1712190216612,5423.012794939103
1712190216652,3719.8966837639455
1712190216692,2501.509267169051
1712190216732,1499.574617351871
1712190216772,-292.4222922292538
1712190216812,-355.83582347119227
1712190216852,-433.86767310556024
1712190216892,-433.86767310556024
1712190216932,-433.86767310556024
1712190216972,-433.86767310556024
1712190217012,-477.4495336350519
1712190217052,-292.4222922292538
1712190217092,457.7103917011991
1712190217132,1499.574617351871
1712190217172,2501.509267169051
1712190217212,2501.509267169051
1712190217252,2501.509267169051
1712190217292,2501.509267169051
1712190217332,2501.509267169051
1712190217372,457.7103917011991
1712190217412,-1820.8551911483519
1712190217452,-3516.5597628480755
1712190217492,-3552.7179775203113
1712190217532,-3552.7179775203113
1712190217572,-3516.5597628480755
1712190217612,-3236.8741907507647
1712190217652,-3119.5123616605997
1712190217692,-2698.68540698383
1712190217732,-1820.8551911483519
1712190217772,-980.4156158585101
1712190217812,457.7103917011991
1712190217852,960.2356226667762
1712190217892,2960.8269171961583
1712190217932,3043.472759608878
1712190217972,3043.472759608878
1712190218012,3043.472759608878
1712190218052,960.2356226667762
1712190218092,-227.04645233415067
1712190218132,-980.4156158585101
1712190218172,-2698.68540698383
1712190218212,-1256.2449140506797
1712190218252,-980.4156158585101
1712190218292,-651.1631848993711
1712190218332,-651.1631848993711
1712190218372,-533.8045154141728
1712190218412,-227.04645233415067
1712190218452,301.40585631038994
1712190218492,960.2356226667762
1712190218532,2335.474260594696
1712190218572,3207.684063849738
1712190218612,4892.472631753422
1712190218652,4892.472631753422
1712190218692,4892.472631753422
1712190218732,2335.474260594696
1712190218772,921.0273637685459
1712190218812,301.40585631038994
1712190218852,-227.04645233415067
1712190218892,301.40585631038994
1712190218932,921.0273637685459
1712190218972,1846.8417426168453
1712190219012,2186.89695153269
1712190219052,2335.474260594696
1712190219092,2620.590002899291
1712190219132,3075.4462710700464
1712190219172,4744.9672847678885
1712190219212,4892.472631753422
1712190219252,6725.756153605413
1712190219292,6788.395179638639
1712190219332,6802.7459826767445
1712190219372,6788.395179638639
1712190219412,5157.639185893349
1712190219452,4744.9672847678885
1712190219492,3075.4462710700464
1712190219532,2620.590002899291
1712190219572,2620.590002899291
1712190219612,2620.590002899291
1712190219652,2620.590002899291
1712190219692,2620.590002899291
1712190219732,2620.590002899291
1712190219772,2186.89695153269
1712190219812,3075.4462710700464
1712190219852,3144.2892896374688
1712190219892,3144.2892896374688
1712190219932,3144.2892896374688
1712190219972,3144.2892896374688
1712190220012,3144.2892896374688
1712190220052,1864.3193684022408
1712190220092,1097.4579189375509
1712190220132,-1028.8251740906853
1712190220172,-1149.6201048353687
1712190220212,-2001.9177525185514
1712190220252,-2528.1616736378055
1712190220292,-2528.1616736378055
1712190220332,-2528.1616736378055
1712190220372,-2528.1616736378055
1712190220412,-2528.1616736378055
1712190220452,-2377.9224648186937
1712190220492,-2001.9177525185514
1712190220532,-1028.8251740906853
1712190220572,-244.05912757734768
1712190220612,-244.05912757734768
1712190220652,-244.05912757734768
1712190220692,-244.05912757734768
1712190220732,-244.05912757734768
1712190220772,-2377.9224648186937
1712190220812,-4446.943344087806
1712190220852,-5122.004979776451
1712190220892,-5336.437242631335
1712190220932,-5947.858090146212
1712190220972,-5947.858090146212
1712190221012,-5947.858090146212
1712190221052,-5947.858090146212
1712190221092,-5366.366195275681
1712190221132,-5336.437242631335
1712190221172,-4446.943344087806
1712190221212,-3611.381740122335
1712190221250,-2377.9224648186937
1712190221290,-918.0735537840519
1712190221330,-918.0735537840519
1712190221370,-918.0735537840519
1712190221411,-1097.7791037480347
1712190221451,-3611.381740122335
1712190221491,-5336.437242631335
1712190221531,-5336.437242631335
1712190221571,-5336.437242631335
1712190221612,-4849.719675968168
1712190221651,-3611.381740122335
1712190221691,-3311.5083638518117
1712190221731,-3060.0668104551733
1712190221771,-2840.9757410867605
1712190221812,-2815.709193603834
1712190221851,-1927.4591641994193
1712190221892,-1097.7791037480347
1712190221932,-918.0735537840519
1712190221972,-72.90145761915483
1712190222013,1775.3960953368805
1712190222052,2074.416795063298
1712190222092,-72.90145761915483
1712190222132,-1097.7791037480347
1712190222172,-1876.1108655149583
1712190222213,-1876.1108655149583
1712190222252,-1876.1108655149583
1712190222292,-974.7457789401524
1712190222333,-72.90145761915483
1712190222373,584.5623564869165
1712190222413,1379.4789840504527
1712190222453,1639.630486340262
1712190222493,2074.416795063298
1712190222533,2175.7485356365796
1712190222573,3745.1575591869187
1712190222614,3924.8664417127147
1712190222653,3930.520607668441
1712190222693,5790.9663659418
1712190222734,3924.8664417127147
1712190222774,3745.1575591869187
1712190222814,2175.7485356365796
1712190222854,1639.630486340262
1712190222894,1379.4789840504527
1712190222934,1379.4789840504527
1712190222974,1379.4789840504527
1712190223015,1379.4789840504527
1712190223054,1379.4789840504527
1712190223095,1379.4789840504527
1712190223135,1183.223005387932
1712190223175,1183.223005387932
1712190223216,1183.223005387932
1712190223255,1183.223005387932
1712190223295,1183.223005387932
1712190223335,1183.223005387932
1712190223375,1183.223005387932
1712190223416,-57.66520303487778
1712190223456,-1948.0007883920334
1712190223495,-3797.646935733035
1712190223536,-4220.244790186174
1712190223576,-4613.628620636417
1712190223617,-4670.010866858531
1712190223656,-4670.010866858531
1712190223696,-4670.010866858531
1712190223736,-4670.010866858531
1712190223776,-4670.010866858531
1712190223817,-4148.752331099473
1712190223857,-3797.646935733035
1712190223897,-1948.0007883920334
1712190223937,-1870.5613646393176
1712190223977,-1870.5613646393176
1712190224018,-1870.5613646393176
1712190224057,-1870.5613646393176
1712190224097,-4148.752331099473
1712190224137,-4835.166321036406
1712190224177,-6366.5475468724035
1712190224218,-7235.745469047688
1712190224257,-7561.055160262156
1712190224298,-7561.055160262156
1712190224338,-7561.055160262156
1712190224378,-7235.745469047688
1712190224419,-7155.408362428192
1712190224458,-6366.5475468724035
1712190224498,-5343.510420787148
1712190224538,-4148.752331099473
1712190224578,-3029.632647777209
1712190224619,-1870.5613646393176
1712190224659,-1160.2517181918956
1712190224699,-1160.2517181918956
1712190224739,-1160.2517181918956
1712190224779,-3029.632647777209
1712190224820,-4731.818535195198
1712190224859,-5343.510420787148
1712190224899,-5343.510420787148
1712190224939,-4993.302056722343
1712190224979,-4731.818535195198
1712190225020,-3860.56706599053
1712190225060,-3029.632647777209
1712190225100,-2995.5938086607493
1712190225140,-2721.556065016426
1712190225180,-2428.5943290519062
1712190225221,-1160.2517181918956
1712190225260,-695.5089284796268
1712190225300,1139.7976519637741
1712190225340,1507.2256390694529
1712190225381,1630.0679078665562
1712190225421,1630.0679078665562
1712190225461,1507.2256390694529
1712190225501,-695.5089284796268
1712190225541,-1294.5431828887668
1712190225581,-1294.5431828887668
1712190225622,-695.5089284796268
1712190225661,180.47454051673412
1712190225701,1167.1984476968646
1712190225742,1630.0679078665562
1712190225782,1873.5873638889752
1712190225822,1908.538822133094
1712190225862,2607.12106805807
1712190225902,3541.365661778953
1712190225942,3544.847143432824
1712190225982,4688.051058774814
1712190226023,5624.727509727236
1712190226062,6374.30021873489
1712190226103,4688.051058774814
1712190226143,3544.847143432824
1712190226183,3198.2911477284506
1712190226224,2607.12106805807
1712190226263,1908.538822133094
1712190226303,1908.538822133094
1712190226343,1908.538822133094
1712190226383,1908.538822133094
1712190226424,1908.538822133094
1712190226464,1908.538822133094
1712190226504,2607.12106805807
1712190226544,3198.2911477284506
1712190226584,3414.322800437687
1712190226625,3414.322800437687
1712190226664,3414.322800437687
1712190226704,3414.322800437687
1712190226744,3414.322800437687
1712190226785,3198.2911477284506
1712190226825,1297.420802795561
1712190226865,1151.4950154079124
1712190226905,-673.4510858352296
1712190226945,-1733.4366263230331
1712190226985,-1733.4366263230331
1712190227026,-1733.4366263230331
1712190227066,-1733.4366263230331
1712190227106,-1325.8461436075158
1712190227146,-673.4510858352296
1712190227186,330.6213399572298
1712190227227,1151.4950154079124
1712190227266,1297.420802795561
1712190227306,2407.4844315545633
1712190227347,2407.4844315545633
1712190227387,2407.4844315545633
1712190227428,2407.4844315545633
1712190227467,2407.4844315545633
1712190227507,1297.420802795561
1712190227547,330.6213399572298
1712190227587,-1325.8461436075158
1712190227628,-2456.9868061095476
1712190227668,-2456.9868061095476
1712190227708,-2456.9868061095476
1712190227748,-2325.222062575165
1712190227788,-2089.585983804427
1712190227829,-1325.8461436075158
1712190227868,-628.2627189247869
1712190227908,330.6213399572298
1712190227948,1629.9091166569851
1712190227988,2407.4844315545633
1712190228029,3389.6095816944726
1712190228068,3389.6095816944726
1712190228109,3389.6095816944726
1712190228149,3389.6095816944726
1712190228189,1853.649897777941
1712190228229,1629.9091166569851
1712190228269,-628.2627189247869
1712190228309,-1297.6713301315904
1712190228349,-628.2627189247869
1712190228389,-359.5924515055958
1712190228430,68.22436096146703
1712190228469,172.00114300264977
1712190228510,392.87725573568605
1712190228550,1373.84849956166
1712190228590,1629.9091166569851
1712190228631,1853.649897777941
1712190228670,2836.288180849282
1712190228710,4014.8345713836607
1712190228750,4681.977944277693
1712190228790,4681.977944277693
1712190228831,4681.977944277693
1712190228870,2836.288180849282
1712190228910,1853.649897777941
1712190228950,1585.375682579819
1712190228991,1373.84849956166
1712190229031,1373.84849956166
1712190229071,1444.1373652310576
1712190229111,1571.3068402567878
1712190229151,1585.375682579819
1712190229191,1740.4712859038264
1712190229232,1858.2148144128732
1712190229271,2836.288180849282
1712190229311,3273.549030771712
1712190229351,4681.977944277693
1712190229391,5287.824292906327
1712190229432,6615.535903044045
1712190229472,7258.980105420807
1712190229512,5287.824292906327
1712190229552,4831.379243078642
1712190229592,3273.549030771712
1712190229633,1858.2148144128732
1712190229672,1740.4712859038264
1712190229712,1740.4712859038264
1712190229752,1740.4712859038264
1712190229792,1740.4712859038264
1712190229833,1740.4712859038264
1712190229873,1740.4712859038264
1712190229913,1571.3068402567878
1712190229953,933.7253373595886
1712190229993,933.7253373595886
1712190230034,933.7253373595886
1712190230073,933.7253373595886
1712190230113,933.7253373595886
1712190230153,933.7253373595886
1712190230194,718.9265083037317
1712190230234,-965.0308075048961
1712190230274,-1637.9931792477146
1712190230314,-3134.560155072948
1712190230354,-4521.470152894268
1712190230394,-4522.409185042372
1712190230435,-4522.409185042372
1712190230474,-4522.409185042372
1712190230514,-4522.409185042372
1712190230555,-4522.409185042372
1712190230594,-4916.48985466687
1712190230635,-4521.470152894268
1712190230675,-3312.2486662422307
1712190230715,-3312.2486662422307
1712190230755,-3312.2486662422307
1712190230795,-3312.2486662422307
1712190230836,-3312.2486662422307
1712190230875,-3312.2486662422307
1712190230916,-5463.299590585753
1712190230956,-5823.049174510874
1712190230996,-6740.45085433824
1712190231037,-7308.344559175428
1712190231076,-7849.204551733099
1712190231116,-7308.344559175428
1712190231156,-7248.221985567361
1712190231196,-7160.232739371946
1712190231237,-6885.888580756728
1712190231277,-6740.45085433824
1712190231317,-5463.299590585753
1712190231357,-5389.388535027858
1712190231397,-3312.2486662422307
1712190231437,-3277.1493649031036
1712190231477,-1751.6108388849534
1712190231517,-1751.6108388849534
1712190231557,-1751.6108388849534
1712190231597,-1751.6108388849534
1712190231638,-3277.1493649031036
1712190231678,-5389.388535027858
1712190231718,-6740.45085433824
1712190231758,-6243.008433913812
1712190231798,-5389.388535027858
1712190231839,-4555.738823143765
1712190231878,-4137.727780755842
1712190231918,-3866.4486778886057
1712190231958,-3277.1493649031036
1712190231999,-3214.035695144208
1712190232039,-1751.6108388849534
1712190232079,-1406.246339768637
1712190232119,-1188.3331434768625
1712190232159,-157.96273516491055
1712190232199,1056.3565938062966
1712190232240,1056.3565938062966
1712190232279,1056.3565938062966
1712190232320,-1188.3331434768625
1712190232360,-1406.246339768637
1712190232400,-1907.2492557442747
1712190232441,-2423.37068541348
1712190232480,-1907.2492557442747
1712190232520,-1375.1670676104259
1712190232560,-1367.1220473940484
1712190232601,-1188.3331434768625
1712190232641,-1035.0816895375028
1712190232681,-781.6160032856278
1712190232721,797.5963415480219
1712190232761,1056.3565938062966
1712190232801,2575.0919588007964
1712190232842,2787.604405881837
1712190232881,4157.821790802758
1712190232921,4157.821790802758
1712190232962,4157.821790802758
1712190233002,2787.604405881837
1712190233042,1138.5523249371909
1712190233082,797.5963415480219
1712190233122,797.5963415480219
1712190233162,1138.5523249371909
1712190233202,1315.8101210021414
1712190233243,2418.27341702953
1712190233283,2529.0120294233784
1712190233324,2570.318051266717
1712190233364,2774.8543244577013
1712190233404,2787.604405881837
1712190233445,3888.388701037038
1712190233484,4838.052906594006
1712190233524,5679.254987934139
1712190233565,6450.403619301273
1712190233605,6450.403619301273
1712190233645,5679.254987934139
1712190233685,4006.573463248089
1712190233725,3888.388701037038
1712190233765,2774.8543244577013
1712190233806,2570.318051266717
1712190233846,2570.318051266717
1712190233886,2570.318051266717
1712190233926,2570.318051266717
1712190233966,2570.318051266717
1712190234006,2529.0120294233784
1712190234047,2529.0120294233784
1712190234086,2951.321033461718
1712190234126,3888.388701037038
1712190234166,4006.573463248089
1712190234206,4006.573463248089
1712190234247,4006.573463248089
1712190234287,2951.321033461718
1712190234327,1872.4833626733162
1712190234367,1202.2897272177506
1712190234407,-1030.91644350742
1712190234448,-2347.5963881448843
1712190234487,-3128.972058474086
1712190234527,-3128.972058474086
1712190234567,-3128.972058474086
1712190234607,-3128.972058474086
1712190234648,-2569.0752441666555
1712190234688,-2347.5963881448843
1712190234728,-1030.91644350742
1712190234768,-620.0643068305217
1712190234808,1202.2897272177506
1712190234849,1504.4512238537427
1712190234888,1504.4512238537427
1712190234928,1504.4512238537427
1712190234968,1504.4512238537427
1712190235008,-620.0643068305217
1712190235049,-2569.0752441666555
1712190235088,-3337.8832412899937
1712190235129,-4205.908895708388
1712190235169,-4205.908895708388
1712190235209,-4045.108483068645
1712190235250,-3764.1647427848075
1712190235289,-3337.8832412899937
1712190235329,-3288.586411014432
1712190235369,-2569.0752441666555
1712190235409,-2199.054918655893
1712190235450,-620.0643068305217
1712190235490,-89.72037607827224
1712190235530,1504.4512238537427
1712190235570,1728.8152539222501
1712190235610,1728.8152539222501
1712190235650,1728.8152539222501
1712190235690,-89.72037607827224
1712190235730,-1395.839058260899
1712190235770,-2199.054918655893
1712190235810,-3051.237641135929
1712190235851,-2199.054918655893
1712190235891,-1395.839058260899
1712190235931,-1299.3477071484085
1712190235971,-1084.4794136043638
1712190236011,-846.419862812385
1712190236052,-671.1283702538349
1712190236091,-89.72037607827224
1712190236131,869.0932792746462
1712190236171,1728.8152539222501
1712190236212,2800.659671276808
1712190236252,3479.62432348961
1712190236292,4329.294589445926
1712190236332,4329.294589445926
1712190236372,2800.659671276808
1712190236412,869.0932792746462
1712190236453,8.285140450578183
1712190236492,-598.3154952828772
1712190236532,-159.37821917398833
1712190236572,-107.8944314243272
1712190236612,-107.8944314243272
1712190236653,8.285140450578183
1712190236693,560.5365471404511
1712190236733,869.0932792746462
1712190236773,2237.1269774653483
1712190236813,2800.659671276808
1712190236854,4291.428654218558
1712190236893,4884.770924955839
1712190236933,5213.366494940594
1712190236973,5213.366494940594
1712190237014,4291.428654218558
1712190237054,2237.1269774653483
1712190237094,1359.186959382845
1712190237134,560.5365471404511
1712190237174,8.285140450578183
1712190237214,-107.8944314243272
1712190237255,-107.8944314243272
1712190237295,-107.8944314243272
1712190237335,-107.8944314243272
1712190237375,-107.8944314243272
1712190237415,-356.3317629429512
1712190237456,560.5365471404511
1712190237495,1359.186959382845
1712190237535,1359.186959382845
1712190237575,1359.186959382845
1712190237615,1359.186959382845
1712190237656,1359.186959382845
1712190237696,1359.186959382845
1712190237736,-421.36422757501714
1712190237776,-2644.6825859309174
1712190237816,-3904.4551561963744
1712190237857,-3955.0766680266242
1712190237896,-4535.50794600416
1712190237936,-4535.50794600416
1712190237976,-4535.50794600416
1712190238017,-4535.50794600416
1712190238057,-3955.0766680266242
1712190238097,-3515.3282579379156
1712190238137,-2644.6825859309174
1712190238177,-1798.213269495871
1712190238217,-421.36422757501714
1712190238258,335.442844329169
1712190238298,335.442844329169
1712190238338,335.442844329169
1712190238378,335.442844329169
1712190238418,-130.96053976751864
1712190238459,-1798.213269495871
1712190238498,-3515.3282579379156
1712190238538,-4535.50794600416
1712190238578,-3558.401910981629
1712190238619,-3515.3282579379156
1712190238659,-2615.4136021826416
1712190238699,-2168.857080680784
1712190238739,-2126.721885361243
1712190238779,-1798.213269495871
1712190238819,-1310.6510764299892
1712190238860,-130.96053976751864
1712190238900,335.442844329169
1712190238940,505.1959684137255
1712190238980,2227.577689942671
1712190239020,2859.743531321641
1712190239061,2859.743531321641
1712190239100,2859.743531321641
1712190239140,505.1959684137255
1712190239180,-130.96053976751864
1712190239221,-1310.6510764299892
1712190239261,-1310.6510764299892
1712190239301,-1122.3818885157816
1712190239341,147.36841239593923
1712190239381,212.76022056676447
1712190239421,249.4555530406069
1712190239462,505.1959684137255
1712190239502,797.8159380275756
1712190239542,2401.7480167055037
1712190239582,2859.743531321641
1712190239622,3346.2749318699352
1712190239663,4362.173903082963
1712190239702,4362.173903082963
1712190239742,4362.173903082963
1712190239782,4362.173903082963
1712190239823,3346.2749318699352
1712190239863,2401.7480167055037
1712190239903,797.8159380275756
1712190239943,249.4555530406069
1712190239983,511.00741090765223
1712190240023,511.00741090765223
1712190240064,511.00741090765223
1712190240103,511.00741090765223
1712190240143,797.8159380275756
1712190240184,1647.451673640404
1712190240224,2401.7480167055037
1712190240264,3761.2449016186874
1712190240304,4362.173903082963
1712190240344,5230.702874287963
1712190240384,5230.702874287963
1712190240424,5230.702874287963
1712190240465,4015.506687254645
1712190240504,3761.2449016186874
1712190240544,1647.451673640404
1712190240584,511.00741090765223
1712190240625,284.4590882677585
1712190240665,284.4590882677585
1712190240705,284.4590882677585
1712190240745,284.4590882677585
1712190240785,284.4590882677585
1712190240825,207.4801754944492
1712190240866,-81.73939381050877
1712190240905,284.4590882677585
1712190240945,644.3296208183747
1712190240985,644.3296208183747
1712190241026,644.3296208183747
1712190241066,644.3296208183747
1712190241106,644.3296208183747
1712190241146,644.3296208183747
1712190241186,-1232.981786788907
1712190241226,-2236.339631638024
1712190241267,-2905.9833046204876
1712190241306,-3711.7115106401034
1712190241346,-3987.0537458027247
1712190241386,-3987.0537458027247
1712190241426,-3987.0537458027247
1712190241467,-3987.0537458027247
1712190241507,-3987.0537458027247
1712190241547,-3987.0537458027247
1712190241587,-3711.7115106401034
1712190241627,-2905.9833046204876
1712190241668,-1944.8582280473784
1712190241707,-1944.8582280473784
1712190241747,-1944.8582280473784
1712190241787,-1944.8582280473784
1712190241827,-1944.8582280473784
1712190241868,-3288.7623417899013
1712190241908,-3711.7115106401034
1712190241948,-4084.051565218251
1712190241988,-5716.121204517549
1712190242028,-6299.661735614529
1712190242069,-6299.661735614529
1712190242108,-6299.661735614529
1712190242148,-6299.661735614529
1712190242188,-5735.508957014186
1712190242228,-5716.121204517549
1712190242269,-4084.051565218251
1712190242308,-4051.2442414835095
1712190242349,-3288.7623417899013
1712190242389,-1944.8582280473784
1712190242429,-1844.3382846191525
1712190242470,-1844.3382846191525
1712190242509,-1844.3382846191525
1712190242549,-1844.3382846191525
1712190242589,-3288.7623417899013
1712190242629,-4051.2442414835095
1712190242670,-5068.540865802206
1712190242710,-5735.508957014186
1712190242750,-5072.540710452478
1712190242790,-5068.540865802206
1712190242830,-5068.540865802206
1712190242871,-5049.555383740459
1712190242910,-4518.168392179068
1712190242950,-4051.2442414835095
1712190242990,-3643.6039228225127
1712190243030,-1844.3382846191525
1712190243071,-1532.5915706648957
1712190243111,290.9184898487292
1712190243151,741.0619993694127
1712190243191,741.0619993694127
1712190243231,741.0619993694127
1712190243272,-1532.5915706648957
1712190243311,-3156.5065454286523
1712190243351,-3643.6039228225127
1712190243391,-4518.168392179068
1712190243432,-3901.7417501639575
1712190243472,-3643.6039228225127
1712190243512,-3643.6039228225127
1712190243552,-3643.6039228225127
1712190243592,-3633.379335321719
1712190243632,-3156.5065454286523
1712190243673,-2893.327709488338
1712190243712,-1532.5915706648957
1712190243752,-1115.0755621502176
1712190243793,824.3791159451939
1712190243833,1102.0299669560045
1712190243873,1102.0299669560045
1712190243913,1102.0299669560045
1712190243953,-1115.0755621502176
1712190243993,-2893.327709488338
1712190244033,-3156.5065454286523
1712190244074,-3633.379335321719
1712190244113,-3814.7010588357225
1712190244154,-3814.7010588357225
1712190244194,-3814.7010588357225
1712190244234,-3814.7010588357225
1712190244275,-3814.7010588357225
1712190244314,-3973.894024023786
1712190244354,-3814.7010588357225
1712190244394,-3283.21128891455
1712190244434,-3283.21128891455
1712190244475,-3283.21128891455
1712190244515,-3283.21128891455
1712190244555,-3283.21128891455
1712190244595,-3283.21128891455
1712190244635,-3814.7010588357225
1712190244676,-5623.004568436183
1712190244715,-6436.848623417318
1712190244756,-7360.342685949756
1712190244796,-7475.013930337969
1712190244836,-7475.013930337969
1712190244877,-7475.013930337969
1712190244916,-7475.013930337969
1712190244956,-7475.013930337969
1712190244996,-7732.891554559348
1712190245036,-7360.342685949756
1712190245077,-6436.848623417318
1712190245117,-5623.004568436183
1712190245157,-5432.988377210684
1712190245197,-5432.988377210684
1712190245237,-5432.988377210684
1712190245278,-5432.988377210684
1712190245315,-6436.848623417318
1712190245356,-7124.980616873363
1712190245396,-7732.891554559348
1712190245436,-9509.304986746283
1712190245477,-11016.40776450513
1712190245516,-11055.699973615818
1712190245556,-11055.699973615818
1712190245596,-11055.699973615818
1712190245636,-10656.652908059768
1712190245677,-9509.304986746283
1712190245717,-8764.140439884271
1712190245757,-7732.891554559348
1712190245797,-7124.980616873363
1712190245837,-6472.435005635954
1712190245878,-6472.435005635954
1712190245917,-6472.435005635954
1712190245958,-6472.435005635954
1712190245998,-7124.980616873363
1712190246038,-8764.140439884271
1712190246079,-9094.178297858685
1712190246118,-9094.178297858685
1712190246158,-9094.178297858685
1712190246198,-8764.140439884271
1712190246239,-8449.506903188303
1712190246279,-7601.980102863628
1712190246319,-7052.3955750586465
1712190246359,-6968.297137205489
1712190246399,-6812.462759524118
1712190246439,-6472.435005635954
1712190246480,-5321.487886698917
1712190246519,-4280.950039641932
1712190246559,-3704.8189019793645
1712190246599,-3219.1577731361613
1712190246639,-3219.1577731361613
1712190246680,-3704.8189019793645
1712190246719,-5321.487886698917
1712190246759,-5695.134232125245
1712190246800,-5695.134232125245
1712190246840,-5321.487886698917
1712190246880,-4188.239000145113
1712190246920,-3219.1577731361613
1712190246960,-3139.3749244017527
1712190247000,-2847.8263590340503
1712190247040,-2417.735122067854
1712190247081,-1933.6377912804019
1712190247120,-1079.916231700452
1712190247161,-847.0202738116495
1712190247200,1177.2765384071972
1712190247241,1560.413516038563
1712190247281,3321.436620723922
1712190247321,1177.2765384071972
1712190247361,-1079.916231700452
1712190247401,-1373.5578246903606
1712190247441,-1933.6377912804019
1712190247482,-2417.735122067854
1712190247522,-2417.735122067854
1712190247561,-2417.735122067854
1712190247601,-2417.735122067854
1712190247642,-2076.1083819202613
1712190247682,-1373.5578246903606
1712190247722,-1079.916231700452
1712190247762,119.49316823948175
1712190247802,1177.2765384071972
1712190247842,2204.2943729218096
1712190247883,2204.2943729218096
1712190247922,2204.2943729218096
1712190247962,2204.2943729218096
1712190248003,119.49316823948175
1712190248043,-1373.5578246903606
1712190248083,-2076.1083819202613
1712190248123,-3518.1125585418195
1712190248163,-3557.746157742804
1712190248203,-3557.746157742804
1712190248243,-3557.746157742804
1712190248284,-3557.746157742804
1712190248323,-3518.1125585418195
1712190248363,-3069.042845254997
1712190248403,-2076.1083819202613
1712190248444,-776.4164453961421
1712190248484,119.49316823948175
1712190248524,1940.2077197683975
1712190248564,1940.2077197683975
1712190248604,1940.2077197683975
1712190248644,1940.2077197683975
1712190248685,-776.4164453961421
1712190248724,-1682.866010790458
1712190248764,-3069.042845254997
1712190248805,-3518.1125585418195
1712190248845,-4322.093771744752
1712190248885,-3416.809466251405
1712190248925,-3208.633474044036
1712190248965,-3069.042845254997
1712190249005,-2847.431464153342
1712190249045,-1682.866010790458
1712190249086,-1326.15306760557
1712190249125,-776.4164453961421
1712190249166,1081.3813284134958
1712190249206,1940.2077197683975
1712190249246,2885.522587422747
1712190249287,2885.522587422747
1712190249326,2885.522587422747
1712190249366,2226.2671131209936
1712190249406,1081.3813284134958
1712190249446,-1326.15306760557
1712190249487,-1682.866010790458
1712190249526,-1326.15306760557
1712190249567,-717.6851768707857
1712190249607,-551.850207362324
1712190249647,-551.850207362324
1712190249688,-139.16393796447664
1712190249727,306.25877230847254
1712190249767,1081.3813284134958
1712190249808,2139.239184957929
1712190249847,2226.2671131209936
1712190249888,2885.522587422747
1712190249928,3880.031239131
1712190249968,3880.031239131
1712190250008,3880.031239131
1712190250048,2226.2671131209936
1712190250089,2139.239184957929
1712190250128,1067.374821430305
1712190250169,306.25877230847254
1712190250209,306.25877230847254
1712190250249,566.1108274511062
1712190250290,1067.374821430305
1712190250329,1564.2580601177178
1712190250369,1578.738073849585
1712190250409,1928.6411842335947
1712190250449,2139.239184957929
1712190250490,3369.7065831332
1712190250530,3880.031239131
1712190250570,5239.17552821408
1712190250610,5296.275936803082
1712190250650,6785.696340338094
1712190250691,7038.213582573924
1712190250730,5239.17552821408
1712190250770,3369.7065831332
1712190250810,1928.6411842335947
1712190250850,1578.738073849585
1712190250891,1578.738073849585
1712190250931,1578.738073849585
1712190250971,1578.738073849585
1712190251011,1578.738073849585
1712190251051,1578.738073849585
1712190251092,1928.6411842335947
1712190251132,2415.975498031359
1712190251171,3369.7065831332
1712190251212,4284.569038373185
1712190251252,4284.569038373185
1712190251293,4284.569038373185
1712190251332,4284.569038373185
1712190251372,4284.569038373185
1712190251412,2415.975498031359
1712190251452,1471.8642049108166
1712190251493,552.4342789375223
1712190251533,-270.87367192143574
1712190251573,-425.9144371908624
1712190251613,-425.9144371908624
1712190251653,-425.9144371908624
1712190251694,-425.9144371908624
1712190251733,-425.9144371908624
1712190251774,-425.9144371908624
1712190251814,-270.87367192143574
1712190251854,552.4342789375223
1712190251895,991.9991496843286
1712190251934,991.9991496843286
1712190251974,991.9991496843286
1712190252014,991.9991496843286
1712190252054,991.9991496843286
1712190252095,991.9991496843286
1712190252135,-425.9144371908624
1712190252175,-1023.1931571261957
1712190252215,-2717.028561519459
1712190252255,-2737.8201724682003
1712190252296,-2737.8201724682003
1712190252338,-2737.8201724682003
1712190252375,-2737.8201724682003
1712190252415,-2737.8201724682003
1712190252456,-2717.028561519459
1712190252496,-2235.799537890125
1712190252536,-1023.1931571261957
1712190252576,112.82876332197338
1712190252616,991.9991496843286
1712190252656,2401.5913897815626
1712190252697,2401.5913897815626
1712190252736,2401.5913897815626
1712190252776,2401.5913897815626
1712190252816,2401.5913897815626
1712190252856,112.82876332197338
1712190252897,-2203.0100379781798
1712190252937,-2235.799537890125
1712190252977,-2235.799537890125
1712190253017,-2203.0100379781798
1712190253057,-1915.031001062598
1712190253098,-1654.361658128444
1712190253137,-1196.1463625759352
1712190253177,-204.77410594793037
1712190253217,112.82876332197338
1712190253257,1430.1179204448126
1712190253298,2401.5913897815626
1712190253337,3363.161541551817
1712190253378,3391.6313686089125
1712190253418,3391.6313686089125
1712190253458,3391.6313686089125
1712190253499,3391.6313686089125
1712190253538,3363.161541551817
1712190253578,2309.4927551914006
1712190253618,1430.1179204448126
1712190253658,-204.77410594793037
1712190253699,531.7251760060899
1712190253739,582.9181022760458
1712190253779,582.9181022760458
1712190253819,582.9181022760458
1712190253859,1414.201399317477
1712190253900,1430.1179204448126
1712190253939,2309.4927551914006
1712190253979,3391.6313686089125
1712190254019,3445.854356409982
1712190254059,5275.407590341289
1712190254100,5298.425850294996
1712190254140,5298.425850294996
1712190254180,5298.425850294996
1712190254220,3445.854356409982
1712190254260,2309.4927551914006
1712190254301,1414.201399317477
1712190254340,582.9181022760458
1712190254380,560.7921113541815
1712190254420,560.7921113541815
1712190254460,560.7921113541815
1712190254501,560.7921113541815
1712190254543,560.7921113541815
1712190254581,560.7921113541815
1712190254621,1414.201399317477
1712190254661,1952.8388030878268
1712190254702,3445.854356409982
1712190254741,4578.835285671055
1712190254781,4578.835285671055
1712190254821,4578.835285671055
1712190254862,4578.835285671055
1712190254902,1952.8388030878268
1712190254941,560.7921113541815
1712190254982,-62.787821451667696
1712190255022,-1122.2500112438574
1712190255062,-1232.1590745891444
1712190255103,-1232.1590745891444
1712190255142,-1232.1590745891444
1712190255182,-1232.1590745891444
1712190255222,-1232.1590745891444
1712190255262,-1317.0427664136514
1712190255303,-1317.0427664136514
1712190255343,-1232.1590745891444
1712190255383,-1232.1590745891444
1712190255423,-1232.1590745891444
1712190255463,-1232.1590745891444
1712190255504,-1232.1590745891444
1712190255543,-1232.1590745891444
1712190255583,-2274.3982151770033
1712190255623,-4181.247698505409
1712190255663,-5052.761017303215
1712190255704,-5761.643912596861
1712190255744,-6098.861804811982
1712190255784,-6386.166136792395
1712190255824,-6386.166136792395
1712190255864,-6386.166136792395
1712190255905,-6386.166136792395
1712190255944,-6098.861804811982
1712190255984,-5983.57559820707
1712190256024,-5052.761017303215
1712190256065,-4181.247698505409
1712190256105,-3694.1287667043507
1712190256145,-3694.1287667043507
1712190256185,-3694.1287667043507
1712190256225,-3694.1287667043507
1712190256265,-3694.1287667043507
1712190256306,-5052.761017303215
1712190256345,-5983.57559820707
1712190256385,-8361.906372654485
1712190256426,-8411.474096108694
1712190256466,-8411.474096108694
1712190256506,-8361.906372654485
1712190256546,-8361.906372654485
1712190256586,-8124.274950209074
1712190256626,-7352.97332704952
1712190256666,-5983.57559820707
1712190256707,-5636.02678987314
1712190256749,-3694.1287667043507
1712190256787,-3331.8896089445334
1712190256827,-2521.5739707923494
1712190256867,-2521.5739707923494
1712190256908,-2521.5739707923494
1712190256947,-2521.5739707923494
1712190256987,-3331.8896089445334
1712190257027,-4169.800766175147
1712190257067,-5636.02678987314
1712190257108,-5636.02678987314
1712190257148,-4748.027433833573
1712190257188,-4169.800766175147
1712190257228,-3928.7144880918786
1712190257268,-3629.701243265765
1712190257309,-3331.8896089445334
1712190257351,-3222.267773171421
1712190257391,-3113.5919019393623
1712190257431,-1773.8504639756866
1712190257472,-1175.9624110800214
1712190257513,535.2252549035475
1712190257552,1159.6966939368285
1712190257592,1310.0314022854436
1712190257632,1310.0314022854436
1712190257672,535.2252549035475
1712190257713,-1773.8504639756866
1712190257753,-2294.4986704413313
1712190257793,-2294.4986704413313
1712190257833,-1773.8504639756866
1712190257873,-1147.0565105492715
1712190257914,530.2298619016074
1712190257953,535.2252549035475
1712190257994,1137.40727169998
1712190258034,1432.2555429949425
1712190258074,1885.18955704174
1712190258115,1972.2545621199533
1712190258154,2683.3921843054704
1712190258194,4147.746912514791
1712190258235,4296.210827214643
1712190258275,4147.746912514791
1712190258315,3191.00195342442
1712190258355,1972.2545621199533
1712190258395,1885.18955704174
1712190258435,1432.2555429949425
1712190258475,1137.40727169998
1712190258516,1137.40727169998
1712190258556,1137.40727169998
1712190258596,1137.40727169998
1712190258636,1137.40727169998
1712190258676,1432.2555429949425
1712190258717,1617.0938575570472
1712190258756,1885.18955704174
1712190258796,3191.00195342442
1712190258836,3191.00195342442
1712190258876,3191.00195342442
1712190258917,3191.00195342442
1712190258957,1617.0938575570472
1712190258996,666.6747171701863
1712190259037,-271.6754008359276
1712190259077,-1517.481832719408
1712190259117,-1691.2162141487934
1712190259157,-2077.936080676038
1712190259197,-2077.936080676038
1712190259237,-2077.936080676038
1712190259277,-2077.936080676038
1712190259318,-1517.481832719408
1712190259357,-1297.9489359243307
1712190259398,-271.6754008359276
1712190259438,260.86679419502616
1712190259478,666.6747171701863
1712190259518,666.6747171701863
1712190259558,666.6747171701863
1712190259598,666.6747171701863
1712190259638,666.6747171701863
1712190259678,260.86679419502616
1712190259719,-1297.9489359243307
1712190259758,-3331.4717739294283
1712190259799,-3956.4142695532646
1712190259838,-3956.4142695532646
1712190259879,-3956.4142695532646
1712190259920,-3956.4142695532646
1712190259959,-3753.517092709895
1712190259999,-3331.4717739294283
1712190260039,-1846.5317868469283
1712190260079,-1297.9489359243307
1712190260120,48.14690467948094
1712190260160,260.86679419502616
1712190260199,1845.6525957803242
1712190260240,1845.6525957803242
1712190260280,1845.6525957803242
1712190260321,1845.6525957803242
1712190260360,48.14690467948094
1712190260400,-48.51573167438619
1712190260440,-1846.5317868469283
1712190260480,-3351.611084511038
1712190260521,-2567.63409812958
1712190260561,-1961.2115845780354
1712190260601,-1961.2115845780354
1712190260641,-1846.5317868469283
1712190260681,-1653.178998474963
1712190260722,-109.51410018885508
1712190260761,-48.51573167438619
1712190260801,48.14690467948094
1712190260841,1953.536067126086
1712190260882,1956.3054052104708
1712190260922,3856.599777248921
1712190260962,3856.599777248921
1712190261002,3856.599777248921
1712190261042,1956.3054052104708
1712190261082,1370.8780449205078
1712190261123,-48.51573167438619
1712190261162,-109.51410018885508
1712190261202,-109.51410018885508
1712190261243,1092.5598223737907
1712190261283,1370.8780449205078
1712190261323,1851.2604165219236
1712190261363,1956.3054052104708
1712190261403,2053.657193303574
1712190261443,2360.9477651626803
1712190261483,3856.599777248921
1712190261524,4228.821269103093
1712190261563,5166.351617169566
1712190261603,6133.246274280129
1712190261643,6438.490655877395
1712190261684,6932.25843156199
1712190261724,6438.490655877395
1712190261764,4228.821269103093
1712190261804,3588.5839225677773
1712190261844,2360.9477651626803
1712190261884,2360.9477651626803
1712190261925,2360.9477651626803
1712190261964,2360.9477651626803
1712190262004,2360.9477651626803
1712190262044,2360.9477651626803
1712190262085,3092.340546258725
1712190262125,3588.5839225677773
1712190262165,4228.821269103093
1712190262205,4768.123204550706
1712190262245,4768.123204550706
1712190262285,4768.123204550706
1712190262326,4768.123204550706
1712190262365,3588.5839225677773
1712190262406,3092.340546258725
1712190262446,2787.2402933342382
1712190262486,842.2023159130476
1712190262527,837.8479403061792
1712190262566,695.191702037584
1712190262606,413.1012765527703
1712190262646,413.1012765527703
1712190262687,295.21959304390475
1712190262727,192.11856333678588
1712190262767,-166.88457188941538
1712190262807,192.11856333678588
1712190262847,842.2023159130476
1712190262887,1756.75286061503
1712190262928,1756.75286061503
1712190262967,1756.75286061503
1712190263007,1756.75286061503
1712190263048,122.6920820446685
1712190263088,-166.88457188941538
1712190263129,-1748.460805223789
1712190263168,-2611.5504879129585
1712190263208,-2836.818359270226
1712190263248,-3448.0172186959535
1712190263289,-3448.0172186959535
1712190263329,-3448.0172186959535
1712190263369,-3448.0172186959535
1712190263409,-3448.0172186959535
1712190263449,-2836.818359270226
1712190263489,-2509.9344970472157
1712190263530,-1748.460805223789
1712190263569,-1115.437950034393
1712190263609,-1115.437950034393
1712190263650,-1115.437950034393
1712190263690,-1115.437950034393
1712190263730,-2020.159921306651
1712190263770,-2509.9344970472157
1712190263810,-4239.25096019404
1712190263850,-5502.716215990949
1712190263891,-5673.754966821987
1712190263931,-6088.954984140117
1712190263971,-6088.954984140117
1712190264011,-6088.954984140117
1712190264051,-6088.954984140117
1712190264091,-5502.716215990949
1712190264132,-5058.87921815156
1712190264171,-4239.25096019404
1712190264212,-2791.1603922676295
1712190264252,-2509.9344970472157
1712190264292,-2020.159921306651
1712190264333,-2020.159921306651
1712190264372,-2020.159921306651
1712190264412,-2020.159921306651
1712190264452,-2791.1603922676295
1712190264473,-5058.87921815156
1712190264514,-5234.33536113007
1712190264553,-5234.33536113007
1712190264593,-5058.87921815156
1712190264633,-4881.602178319357
1712190264673,-4496.515959125478
1712190264714,-4286.122016868554
1712190264754,-3747.2204795945436
1712190264794,-3230.5798770368565
1712190264834,-2791.1603922676295
1712190264874,-1132.2046025539748
1712190264915,-1069.1798918824643
1712190264954,-860.455926084891
1712190264994,894.1611061368603
1712190265034,894.1611061368603
1712190265074,-1069.1798918824643
1712190265115,-1132.2046025539748
1712190265154,-2143.318748524878
1712190265195,-3230.5798770368565
1712190265235,-3230.5798770368565
1712190265275,-3081.473676125519
1712190265316,-2143.318748524878
1712190265355,-1777.416308438871
1712190265395,-1725.6904204408638
1712190265435,-1132.2046025539748
1712190265475,-905.8940900736488
1712190265516,-69.9204969231505
1712190265555,894.1611061368603
1712190265595,2400.6897409034427
1712190265635,2873.4148813053034
1712190265676,3827.6562123764306
1712190265716,2400.6897409034427
1712190265756,622.3812332763337
1712190265796,-69.9204969231505
1712190265836,-905.8940900736488
1712190265876,-1725.6904204408638
1712190265917,-1725.6904204408638
1712190265956,-1725.6904204408638
1712190265996,-1725.6904204408638
1712190266036,-1725.6904204408638
1712190266076,-1725.6904204408638
1712190266117,-905.8940900736488
1712190266157,-92.78784918459132
1712190266197,-69.9204969231505
1712190266237,622.3812332763337
1712190266277,622.3812332763337
1712190266318,622.3812332763337
1712190266357,622.3812332763337
1712190266397,-92.78784918459132
1712190266437,-2215.7918951562606
1712190266477,-3715.702708807541
1712190266518,-3821.6661203207914
1712190266557,-4470.15503148688
1712190266597,-4470.15503148688
1712190266638,-4470.15503148688
1712190266678,-4470.15503148688
1712190266719,-3855.953900663182
1712190266758,-3821.6661203207914
1712190266798,-3715.702708807541
1712190266838,-2215.7918951562606
1712190266878,-1997.192120916443
1712190266919,-92.78784918459132
1712190266958,-59.60374204767868
1712190266999,-59.60374204767868
1712190267039,-59.60374204767868
1712190267079,-1997.192120916443
1712190267120,-3715.702708807541
1712190267159,-3855.953900663182
1712190267199,-4394.80180960102
1712190267239,-4471.097638567677
1712190267279,-4394.80180960102
1712190267320,-4089.339649989968
1712190267360,-3988.4859453407116
1712190267400,-3855.953900663182
1712190267440,-3189.6842635988723
1712190267480,-1997.192120916443
1712190267521,-1734.1782058165409
1712190267560,-59.60374204767868
1712190267600,157.01186849642545
1712190267640,905.4251432281453
1712190267680,905.4251432281453
1712190267721,905.4251432281453
1712190267761,157.01186849642545
1712190267801,-1734.1782058165409
1712190267841,-3189.6842635988723
1712190267881,-3581.5329121884424
1712190267922,-3189.6842635988723
1712190267961,-2924.7634616235737
1712190268001,-2318.7389049369376
1712190268041,-2250.2808416131884
1712190268082,-1734.1782058165409
1712190268122,-1633.3579508005641
1712190268162,36.57099972292781
1712190268202,157.01186849642545
1712190268242,939.6118575760629
1712190268282,1750.205232160166
1712190268323,2394.536448830506
1712190268362,2394.536448830506
1712190268402,2045.2785195887554
1712190268443,939.6118575760629
1712190268483,36.57099972292781
1712190268523,-1530.8491129674949
1712190268563,-1530.8491129674949
1712190268603,-345.1561079919338
1712190268643,36.57099972292781
1712190268684,932.6920763019007
1712190268724,1007.9197656600736
1712190268764,1231.0717865391634
1712190268804,2045.2785195887554
1712190268844,2172.446271624882
1712190268884,2394.536448830506
1712190268925,3909.099566377001
1712190268964,4020.938910919009
1712190269004,5875.8945780377835
1712190269045,6168.245768234134
1712190269085,4020.938910919009
1712190269126,3998.9055718465243
1712190269165,2172.446271624882
1712190269205,2045.2785195887554
1712190269245,1699.4731902270578
1712190269286,2172.446271624882
1712190269326,2279.4588330960833
1712190269365,2509.7111776047386
1712190269405,2737.5617166245356
1712190269445,3384.626209757058
1712190269485,3998.9055718465243
1712190269526,4020.938910919009
1712190269565,5237.829669764033
1712190269606,6168.245768234134
1712190269646,6494.411562552676
1712190269686,6494.411562552676
1712190269727,6494.411562552676
1712190269766,5237.829669764033
1712190269806,3998.9055718465243
1712190269847,3384.626209757058
1712190269887,2737.5617166245356
1712190269927,2509.7111776047386
1712190269967,2509.7111776047386
1712190270007,2509.7111776047386
1712190270047,2509.7111776047386
1712190270087,2509.7111776047386
1712190270128,2737.5617166245356
1712190270168,2788.601219729986
1712190270208,3384.626209757058
1712190270248,4269.483534833416
1712190270288,4269.483534833416
1712190270329,4269.483534833416
1712190270369,4269.483534833416
1712190270409,2788.601219729986
1712190270449,2561.536459266674
1712190270489,785.061571584316
1712190270530,625.478345409967
1712190270569,-455.66279122652486
1712190270609,-466.01895259926096
1712190270649,-466.01895259926096
1712190270689,-466.01895259926096
1712190270730,-466.01895259926096
1712190270769,-466.01895259926096
1712190270810,-455.66279122652486
1712190270850,-206.20763969351538
1712190270890,785.061571584316
1712190270931,1684.8427686954383
1712190270970,1684.8427686954383
1712190271010,1684.8427686954383
1712190271050,1684.8427686954383
1712190271090,-206.20763969351538
1712190271131,-2140.579134090338
1712190271171,-2159.9773045238107
1712190271211,-2698.018339512637
1712190271251,-3689.150290927384
1712190271291,-3988.3079267102294
1712190271332,-3988.3079267102294
1712190271371,-3988.3079267102294
1712190271411,-3988.3079267102294
1712190271451,-3988.3079267102294
1712190271491,-4387.591708670836
1712190271532,-3689.150290927384
1712190271572,-2623.6459432016127
1712190271612,-2623.6459432016127
1712190271652,-2623.6459432016127
1712190271692,-2623.6459432016127
1712190271733,-2623.6459432016127
1712190271772,-4387.591708670836
1712190271812,-6220.143667632481
1712190271852,-7264.28941224399
1712190271892,-7717.634696390247
1712190271933,-7915.711247266736
1712190271973,-8161.11352069024
1712190272013,-8161.11352069024
1712190272053,-8161.11352069024
1712190272093,-8161.11352069024
1712190272134,-8409.503124431241
1712190272173,-8409.503124431241
1712190272213,-7915.711247266736
1712190272253,-6941.410840892931
1712190272294,-6941.410840892931
1712190272334,-6941.410840892931
1712190272374,-6941.410840892931
1712190272414,-8409.503124431241
1712190272454,-8414.198484988883
1712190272494,-10427.149777289713
1712190272535,-10447.348217464052
1712190272574,-11061.406852217158
1712190272614,-11180.400593379512
1712190272655,-11180.400593379512
1712190272695,-11180.400593379512
1712190272735,-11061.406852217158
1712190272775,-10447.89270893531
1712190272815,-10447.89270893531
1712190272855,-10447.348217464052
1712190272895,-8414.198484988883
1712190272936,-7918.574115630239
1712190272975,-6941.410840892931
1712190273016,-5622.0753034010995
1712190273056,-7918.574115630239
1712190273096,-9929.022290165769
1712190273137,-10447.89270893531
1712190273176,-11237.70812687953
1712190273216,-11741.554048263235
1712190273256,-11756.43664900167
1712190273296,-11756.43664900167
1712190273337,-11756.43664900167
1712190273377,-11756.43664900167
1712190273417,-11741.554048263235
1712190273457,-11525.58282231167
1712190273497,-10447.89270893531
1712190273538,-9929.022290165769
1712190273577,-8814.202095318586
1712190273617,-8814.202095318586
1712190273657,-8814.202095318586
1712190273697,-8814.202095318586
1712190273738,-9929.022290165769
1712190273778,-11525.58282231167
1712190273818,-13576.911393926945
1712190273858,-15396.254572577775
1712190273898,-15396.254572577775
1712190273939,-15371.87666428904
1712190273979,-14508.842941946117
1712190274018,-14208.717871238943
1712190274059,-13576.911393926945
1712190274099,-12446.101176286815
1712190274140,-11525.58282231167
1712190274179,-10990.604940787889
1712190274219,-8814.202095318586
1712190274259,-8103.874248036649
1712190274299,-8033.430035456549
1712190274340,-8033.430035456549
1712190274380,-8103.874248036649
1712190274420,-10975.753471964737
1712190274460,-10990.604940787889
1712190274500,-12446.101176286815
1712190274541,-12446.101176286815
1712190274580,-10990.604940787889
1712190274620,-10975.753471964737
1712190274660,-10890.462162023643
1712190274701,-9478.636699908413
1712190274741,-9129.564120264957
1712190274781,-8549.42725823354
1712190274821,-8103.874248036649
1712190274861,-6306.494079272728
1712190274901,-5555.377078274265
1712190274942,-3837.162752754055
1712190274982,-3551.1408872408792
1712190275022,-3551.1408872408792
1712190275062,-3837.162752754055
1712190275102,-5799.044171882328
1712190275143,-6112.693760929396
1712190275182,-6112.693760929396
1712190275223,-5799.044171882328
1712190275263,-4365.073337188456
1712190275303,-3837.162752754055
1712190275344,-3022.7331472502556
1712190275383,-2942.976487559732
1712190275423,-2608.7956998585723
1712190275463,-1361.311941210879
1712190275503,-1178.8042303174734
1712190275544,-318.34195630904287
1712190275584,1160.0404175692238
1712190275624,1207.7171831727028
1712190275664,2600.496369047556
1712190275704,1356.5230621614028
1712190275745,1160.0404175692238
1712190275785,549.1066328957677
1712190275824,549.1066328957677
1712190275865,1160.0404175692238
1712190275905,1356.5230621614028
1712190275946,3465.5066538173705
1712190275985,4564.357690829784
1712190276025,5035.722716167569
1712190276065,5234.203354375437
1712190276106,5967.982422078261
1712190276147,6373.913165215403
1712190276186,6536.4221850614995
1712190276226,7826.583514889702
1712190276266,8364.836650922894
1712190276306,8364.836650922894
1712190276347,8364.836650922894
1712190276386,6536.4221850614995
1712190276426,6373.913165215403
1712190276466,6121.066743086092
1712190276507,5843.237673817668
1712190276547,5920.480724773835
1712190276587,6121.066743086092
1712190276627,6373.913165215403
1712190276667,6717.785335151479
1712190276707,8351.038721067831
1712190276748,8364.836650922894
1712190276787,9996.778451943537
1712190276827,10792.397105004173
1712190276867,12497.80373239913
1712190276907,12497.80373239913
1712190276948,9996.778451943537
1712190276988,8869.624623097014
1712190277028,8351.038721067831
1712190277068,6717.785335151479
1712190277108,6121.066743086092
1712190277149,5920.480724773835
1712190277188,5920.480724773835
1712190277228,5920.480724773835
1712190277268,6505.341455386486
1712190277308,6717.785335151479
1712190277349,7988.112838840578
1712190277388,8351.038721067831
1712190277429,8869.624623097014
1712190277469,9996.778451943537
1712190277509,10062.421613020357
1712190277550,10062.421613020357
1712190277589,10062.421613020357
1712190277629,8869.624623097014
1712190277669,7988.112838840578
1712190277709,7278.257001030259
1712190277750,6505.341455386486
1712190277790,5514.8794635550585
1712190277830,6059.312742159935
1712190277870,6375.053329765331
1712190277910,6505.341455386486
1712190277951,6777.077706131153
1712190277990,7278.257001030259
1712190278030,7988.112838840578
1712190278070,8427.88049828494
1712190278110,9794.472821486881
1712190278151,10062.421613020357
1712190278191,11291.548505144194
1712190278231,11786.100923322141
1712190278271,11786.100923322141
1712190278311,9794.472821486881
1712190278352,8775.67957007233
1712190278391,8427.88049828494
1712190278431,7278.257001030259
1712190278471,7618.126126872841
1712190278512,8427.88049828494
1712190278552,8427.88049828494
1712190278592,8427.88049828494
1712190278632,8440.315210947534
1712190278672,8775.67957007233
1712190278712,9054.29217060376
1712190278753,9794.472821486881
1712190278792,10944.11786711379
1712190278832,11786.100923322141
1712190278873,12617.869924433762
1712190278913,12617.869924433762
1712190278954,12542.42736593727
1712190278993,10944.11786711379
1712190279033,9054.29217060376
1712190279073,8775.67957007233
1712190279113,8440.315210947534
1712190279154,8396.539981467882
1712190279193,8396.539981467882
1712190279234,8396.539981467882
1712190279274,8396.539981467882
1712190279314,8396.539981467882
1712190279354,8396.539981467882
1712190279394,9054.29217060376
1712190279434,9841.310644048965
1712190279474,10637.934920797125
1712190279514,10637.934920797125
1712190279555,10637.934920797125
1712190279595,9841.310644048965
1712190279635,8924.743517598603
1712190279675,8396.539981467882
1712190279715,8222.580709462985
1712190279756,8168.852456443477
1712190279795,7892.505263322033
1712190279835,7691.743079150561
1712190279876,7691.743079150561
1712190279916,7691.743079150561
1712190279956,7163.762684162939
1712190279996,7134.242577000987
1712190280036,2720.5355597203597
1712190280076,2004.7805156689137
1712190280116,2004.7805156689137
1712190280157,2004.7805156689137
1712190280196,2004.7805156689137
1712190280237,2004.7805156689137
1712190280277,705.1833590015303
1712190280317,-525.1199677777477
1712190280358,-880.7911128138658
1712190280397,-1004.3127814270556
1712190280437,-1453.932933301665
1712190280477,-1455.5051549775526
1712190280517,-1656.4166456828825
1712190280558,-1790.2952423538081
1712190280598,-1790.2952423538081
1712190280638,-1995.9947266706731
1712190280678,-2217.545808713883
1712190280718,-6497.091606757371
1712190280759,-6497.091606757371
1712190280798,-6497.091606757371
1712190280838,-6497.091606757371
1712190280878,-6497.091606757371
1712190280918,-6497.091606757371
1712190280959,-6497.091606757371
1712190280999,-7742.579837497324
1712190281039,-7760.5183466607705
1712190281079,-9382.173189916182
1712190281119,-10640.118232611101
1712190281160,-10816.769341098145
1712190281200,-10817.214656911092
1712190281240,-10817.214656911092
1712190281280,-10817.214656911092
1712190281320,-10817.214656911092
1712190281361,-10817.214656911092
1712190281400,-9382.173189916182
1712190281440,-8622.956524912734
1712190281480,-7742.579837497324
1712190281520,-6618.5711082126945
1712190281561,-6618.5711082126945
1712190281601,-6618.5711082126945
1712190281641,-6618.5711082126945
1712190281681,-8622.956524912734
1712190281721,-9473.103849143721
1712190281762,-10832.287539299577
1712190281801,-11312.832564018667
1712190281841,-10832.287539299577
1712190281882,-9473.103849143721
1712190281922,-9448.835869923932
1712190281963,-9367.85715634725
1712190282002,-8795.714923896128
1712190282042,-8680.81163817225
1712190282082,-8622.956524912734
1712190282122,-6688.840442828136
1712190282163,-6618.5711082126945
1712190282203,-4751.999675179133
1712190282243,-4201.049664327409
1712190282283,-3038.1660561165772
1712190282323,-3038.1660561165772
1712190282364,-4751.999675179133
1712190282403,-6688.840442828136
1712190282443,-7407.122133655939
1712190282483,-7407.122133655939
1712190282524,-6688.840442828136
1712190282564,-6087.269588512834
1712190282604,-4832.033026772318
1712190282644,-4751.999675179133
1712190282684,-4104.1539303464815
1712190282724,-4087.84485058859
1712190282765,-2985.662199358456
1712190282804,-2918.2812045319006
1712190282844,-2040.19291880331
1712190282884,-1277.7809297654312
1712190282924,-762.2558191563003
1712190282965,897.756362446351
1712190283005,-1277.7809297654312
1712190283045,-2040.19291880331
1712190283085,-2985.662199358456
1712190283125,-3479.14216514444
1712190283166,-4087.84485058859
1712190283205,-4087.84485058859
1712190283246,-4087.84485058859
1712190283285,-4087.84485058859
1712190283326,-4087.84485058859
1712190283366,-4087.84485058859
1712190283406,-3479.14216514444
1712190283446,-2985.662199358456
1712190283486,-2108.854596051853
1712190283526,-2108.854596051853
1712190283567,-2108.854596051853
1712190283606,-2108.854596051853
1712190283646,-2108.854596051853
1712190283686,-3479.14216514444
1712190283727,-4409.317048184574
