Timestamp,Cleaned PPG
1711091961239,0.0
1711091961277,0.0
1711091961317,0.0
1711091961358,0.0
1711091961397,0.0
1711091961437,0.0
1711091961477,0.0
1711091961517,0.0
1711091961558,0.0
1711091961598,0.0
1711091961638,0.0
1711091961678,0.0
1711091961718,0.0
1711091961759,0.0
1711091961798,0.0
1711091961838,0.0
1711091961878,0.0
1711091961918,0.0
1711091961959,0.0
1711091961999,0.0
1711091962039,0.0
1711091962079,0.0
1711091962119,0.0
1711091962160,0.0
1711091962199,0.0
1711091962239,0.0
1711091962279,0.0
1711091962319,0.0
1711091962360,0.0
1711091962400,0.0
1711091962439,0.0
1711091962480,0.0
1711091962520,1098131.5054469407
1711091962561,1098131.5054469407
1711091962600,1098131.5054469407
1711091962640,1098131.5054469407
1711091962680,1098131.5054469407
1711091962720,1098131.5054469407
1711091962761,1098131.5054469407
1711091962800,1098131.5054469407
1711091962841,1098131.5054469407
1711091962881,1098131.5054469407
1711091962921,1098131.5054469407
1711091962962,1022402.0437608943
1711091963001,950945.3799422923
1711091963041,884611.3569059032
1711091963081,823473.1829011126
1711091963121,766403.46501821
1711091963162,712525.8873968504
1711091963202,660723.2460214405
1711091963242,611736.6199419722
1711091963282,567098.0667820824
1711091963322,525165.3234188799
1711091963363,487154.29720970616
1711091963402,451179.42454397725
1711091963445,418334.9347356623
1711091963483,387998.52752009453
1711091963522,360006.9981377283
1711091963564,332694.4640568886
1711091963603,308682.1149453318
1711091963643,286214.5495564721
1711091963683,266111.25283170305
1711091963723,247315.78641236876
1711091963764,228961.76060008933
1711091963803,215928.20877162786
1711091963844,199039.90687611746
1711091963884,181851.86077845562
1711091963924,160674.20986108016
1711091963965,137869.4903493924
1711091964004,118289.43125116476
1711091964044,100078.89058324345
1711091964084,98814.33260419103
1711091964124,86178.80649145134
1711091964165,76392.63029967598
1711091964205,64244.40948665375
1711091964245,53183.83263256913
1711091964285,43771.45776750473
1711091964325,35896.501286751125
1711091964366,29069.40545671177
1711091964405,23418.625144561287
1711091964445,18265.52820915333
1711091964485,14170.919189008651
1711091964526,10144.263364484534
1711091964567,6316.144908379996
1711091964606,3073.697011737153
1711091964646,394.5776489148848
1711091964686,-1727.262643987313
1711091964726,-3645.3234064802527
1711091964767,-5381.891648313962
1711091964807,-7032.111629382707
1711091964847,-7624.392755221343
1711091964887,-8254.203869428253
1711091964927,-11696.426801185822
1711091964968,-20194.896568792406
1711091965007,-30419.037719357293
1711091965047,-38211.342219115235
1711091965087,-43002.78510514391
1711091965127,-45658.1514013689
1711091965169,-46705.27049923688
1711091965208,-46705.27049923688
1711091965248,-46705.27049923688
1711091965288,-46705.27049923688
1711091965328,-46705.27049923688
1711091965369,-46705.27049923688
1711091965408,-46705.27049923688
1711091965448,-46705.27049923688
1711091965488,-46705.27049923688
1711091965529,-46705.27049923688
1711091965570,-46705.27049923688
1711091965609,-45191.67925580684
1711091965652,-45191.67925580684
1711091965689,-45191.67925580684
1711091965729,-45191.67925580684
1711091965770,-45191.67925580684
1711091965809,-45191.67925580684
1711091965849,-45191.67925580684
1711091965890,-45191.67925580684
1711091965930,-45191.67925580684
1711091965971,-45191.67925580684
1711091966010,-44178.245739618316
1711091966050,-43004.477854766184
1711091966090,-42038.098619162105
1711091966131,-42038.098619162105
1711091966172,-42038.098619162105
1711091966211,-42038.098619162105
1711091966251,-42038.098619162105
1711091966291,-42038.098619162105
1711091966331,-42038.098619162105
1711091966372,-42038.098619162105
1711091966411,-42038.098619162105
1711091966452,-42038.098619162105
1711091966492,-39428.65518511599
1711091966532,-36782.915167478845
1711091966573,-34116.86651509558
1711091966612,-31353.792296696454
1711091966652,-29026.28863565717
1711091966692,-29026.28863565717
1711091966733,-29026.28863565717
1711091966774,-29026.28863565717
1711091966813,-29026.28863565717
1711091966853,-29026.28863565717
1711091966893,-29026.28863565717
1711091966933,-29026.28863565717
1711091966974,-29026.28863565717
1711091967013,-28810.57283872785
1711091967053,-28093.48290296085
1711091967093,-26627.179273597896
1711091967133,-26312.56655083131
1711091967174,-26312.56655083131
1711091967213,-26312.56655083131
1711091967253,-26312.56655083131
1711091967294,-26312.56655083131
1711091967334,-26312.56655083131
1711091967375,-26312.56655083131
1711091967414,-26312.56655083131
1711091967454,-26312.56655083131
1711091967494,-24122.616866387893
1711091967534,-22063.673768356442
1711091967575,-19820.906274611596
1711091967614,-17503.722011432983
1711091967654,-15478.337318063248
1711091967695,-15478.337318063248
1711091967735,-15478.337318063248
1711091967776,-15478.337318063248
1711091967815,-15348.530553799588
1711091967855,-15342.867443681927
1711091967895,-15342.867443681927
1711091967935,-15167.3766247991
1711091967976,-15118.769054877805
1711091968015,-14014.500150701962
1711091968055,-13398.77002953738
1711091968095,-12367.755299587268
1711091968136,-11066.935673969332
1711091968177,-10925.077735173982
1711091968216,-10925.077735173982
1711091968256,-10925.077735173982
1711091968296,-10925.077735173982
1711091968336,-10925.077735173982
1711091968377,-10925.077735173982
1711091968416,-10925.077735173982
1711091968456,-10349.871244557202
1711091968496,-8303.590904896148
1711091968536,-6418.710589347873
1711091968577,-4530.185310338857
1711091968617,-2355.847206030274
1711091968657,-2355.847206030274
1711091968697,-2355.847206030274
1711091968737,-2355.847206030274
1711091968778,-2355.847206030274
1711091968817,-2355.847206030274
1711091968857,-2355.847206030274
1711091968897,-2355.847206030274
1711091968937,-2355.847206030274
1711091968978,-2355.847206030274
1711091969018,-2355.847206030274
1711091969058,-1787.9532630685717
1711091969098,-1787.9532630685717
1711091969138,-1787.9532630685717
1711091969179,-1787.9532630685717
1711091969218,-1787.9532630685717
1711091969258,-1787.9532630685717
1711091969298,-1787.9532630685717
1711091969338,-1787.9532630685717
1711091969379,-1787.9532630685717
1711091969419,-1787.9532630685717
1711091969459,-1787.9532630685717
1711091969499,-139.11468989891
1711091969539,1262.7110645184293
1711091969580,2976.197963040555
1711091969619,4248.480672609527
1711091969659,4248.480672609527
1711091969699,4248.480672609527
1711091969739,4248.480672609527
1711091969780,4248.480672609527
1711091969819,4248.480672609527
1711091969860,4248.480672609527
1711091969900,4248.480672609527
1711091969940,4248.480672609527
1711091969981,4248.480672609527
1711091970020,4248.480672609527
1711091970060,1200.8631550963037
1711091970100,1200.8631550963037
1711091970140,1200.8631550963037
1711091970181,1200.8631550963037
1711091970221,1200.8631550963037
1711091970260,1200.8631550963037
1711091970301,1200.8631550963037
1711091970341,1200.8631550963037
1711091970382,1200.8631550963037
1711091970421,1200.8631550963037
1711091970461,1200.8631550963037
1711091970501,1607.763911311049
1711091970541,2855.053031284362
1711091970583,4298.968488713726
1711091970622,4412.328200750984
1711091970662,4412.328200750984
1711091970702,4412.328200750984
1711091970742,4412.328200750984
1711091970783,4412.328200750984
1711091970822,4412.328200750984
1711091970862,4412.328200750984
1711091970902,4412.328200750984
1711091970943,4412.328200750984
1711091970984,4412.328200750984
1711091971023,4675.26523993304
1711091971063,4412.328200750984
1711091971103,3738.489878617227
1711091971143,3738.489878617227
1711091971184,3738.489878617227
1711091971223,3738.489878617227
1711091971263,3738.489878617227
1711091971304,3738.489878617227
1711091971344,3738.489878617227
1711091971385,3738.489878617227
1711091971424,3738.489878617227
1711091971464,3738.489878617227
1711091971504,3908.442936331732
1711091971544,4675.26523993304
1711091971585,5523.86264927499
1711091971624,6760.241374688689
1711091971665,8271.479364654282
1711091971705,9120.56644474552
1711091971745,9559.020864248276
1711091971786,9559.020864248276
1711091971825,9559.020864248276
1711091971865,9559.020864248276
1711091971906,9559.020864248276
1711091971946,9559.020864248276
1711091971987,9559.020864248276
1711091972026,9559.020864248276
1711091972066,9632.60259227734
1711091972106,9746.545640270924
1711091972146,10383.176355022239
1711091972187,10383.176355022239
1711091972226,10383.176355022239
1711091972267,10383.176355022239
1711091972307,10383.176355022239
1711091972347,10383.176355022239
1711091972388,10383.176355022239
1711091972427,10383.176355022239
1711091972467,10383.176355022239
1711091972507,10467.03577844752
1711091972547,11495.052313700318
1711091972588,12357.485558934277
1711091972628,13302.868296762696
1711091972668,14025.563478476368
1711091972708,14025.563478476368
1711091972748,14025.563478476368
1711091972789,14025.563478476368
1711091972828,14025.563478476368
1711091972869,14025.563478476368
1711091972909,14025.563478476368
1711091972949,14025.563478476368
1711091972990,14025.563478476368
1711091973029,14025.563478476368
1711091973069,14025.563478476368
1711091973109,12357.630394654348
1711091973149,4359.233488263097
1711091973190,4359.233488263097
1711091973230,4359.233488263097
1711091973325,4359.233488263097
1711091973365,4359.233488263097
1711091973405,4359.233488263097
1711091973446,4359.233488263097
1711091973485,4359.233488263097
1711091973525,4359.233488263097
1711091973565,4359.233488263097
1711091973606,4359.233488263097
1711091973647,5551.073246139102
1711091973686,6442.169301834889
1711091973726,7152.276354696136
1711091973766,7152.276354696136
1711091973806,7152.276354696136
1711091973847,7152.276354696136
1711091973887,7152.276354696136
1711091973927,7152.276354696136
1711091973967,7152.276354696136
1711091974007,7152.276354696136
1711091974048,7152.276354696136
1711091974087,7152.276354696136
1711091974127,7152.276354696136
1711091974167,7023.874131354503
1711091974207,7023.874131354503
1711091974249,7023.874131354503
1711091974288,7023.874131354503
1711091974328,7023.874131354503
1711091974368,7023.874131354503
1711091974408,7023.874131354503
1711091974449,7023.874131354503
1711091974488,7023.874131354503
1711091974528,7023.874131354503
1711091974568,7023.874131354503
1711091974609,8015.187531863339
1711091974649,9331.618768323213
1711091974689,9938.839121075347
1711091974729,11005.461356570479
1711091974769,11005.461356570479
1711091974809,11005.461356570479
1711091974850,11005.461356570479
1711091974889,11005.461356570479
1711091974929,11005.461356570479
1711091974969,11005.461356570479
1711091975009,11005.461356570479
1711091975050,11005.461356570479
1711091975090,11005.461356570479
1711091975130,11005.461356570479
1711091975170,10977.991301739588
1711091975210,10977.991301739588
1711091975251,10977.991301739588
1711091975290,10977.991301739588
1711091975330,10977.991301739588
1711091975370,10977.991301739588
1711091975410,10977.991301739588
1711091975452,10977.991301739588
1711091975491,10977.991301739588
1711091975531,10977.991301739588
1711091975571,10977.991301739588
1711091975611,11688.441159168258
1711091975652,12418.00382600585
1711091975691,13335.26454728609
1711091975731,14135.517495049397
1711091975771,15321.883192395326
1711091975812,15321.883192395326
1711091975853,15321.883192395326
1711091975892,15321.883192395326
1711091975932,15321.883192395326
1711091975972,15321.883192395326
1711091976012,15321.883192395326
1711091976053,15321.883192395326
1711091976092,15321.883192395326
1711091976132,15321.883192395326
1711091976173,15321.883192395326
1711091976213,14047.291543670464
1711091976253,12255.925939575303
1711091976293,12255.925939575303
1711091976333,12255.925939575303
1711091976373,12255.925939575303
1711091976413,12255.925939575303
1711091976454,12255.925939575303
1711091976493,12255.925939575303
1711091976534,12255.925939575303
1711091976574,12255.925939575303
1711091976614,12255.925939575303
1711091976655,12255.925939575303
1711091976694,13124.300158168888
1711091976734,13909.281599848066
1711091976774,14439.378853176255
1711091976814,14439.378853176255
1711091976855,14439.378853176255
1711091976895,14439.378853176255
1711091976935,14439.378853176255
1711091976975,14439.378853176255
1711091977016,14439.378853176255
1711091977056,14439.378853176255
1711091977096,14439.378853176255
1711091977136,14439.378853176255
1711091977176,14439.378853176255
1711091977216,14007.587287784088
1711091977258,10708.450401315931
1711091977297,9184.177310114726
1711091977337,9184.177310114726
1711091977378,8693.329836167628
1711091977418,8693.329836167628
1711091977459,8693.329836167628
1711091977499,8693.329836167628
1711091977539,8693.329836167628
1711091977580,8693.329836167628
1711091977620,8693.329836167628
1711091977661,8693.329836167628
1711091977700,8693.329836167628
1711091977741,8693.329836167628
1711091977781,9258.084222484846
1711091977821,10458.216804830125
1711091977862,10458.216804830125
1711091977902,10458.216804830125
1711091977942,10458.216804830125
1711091977982,10458.216804830125
1711091978022,10458.216804830125
1711091978063,10458.216804830125
1711091978103,10458.216804830125
1711091978143,10458.216804830125
1711091978183,10458.216804830125
1711091978224,10458.216804830125
1711091978265,9307.801972410642
1711091978304,7402.55878619384
1711091978345,7322.434104022104
1711091978385,6788.55011936184
1711091978425,6788.55011936184
1711091978466,6788.55011936184
1711091978505,6788.55011936184
1711091978546,6788.55011936184
1711091978586,6788.55011936184
1711091978626,6788.55011936184
1711091978667,6788.55011936184
1711091978707,6788.55011936184
1711091978747,6788.55011936184
1711091978787,6738.748516092077
1711091978828,6444.2282222975045
1711091978869,6081.594713800587
1711091978910,6081.594713800587
1711091978950,6081.594713800587
1711091978990,6081.594713800587
1711091979030,6081.594713800587
1711091979071,6081.594713800587
1711091979111,6081.594713800587
1711091979151,6081.594713800587
1711091979191,4450.46486655483
1711091979231,605.0538167250343
1711091979272,-1014.8642372209579
1711091979312,-1014.8642372209579
1711091979352,-1014.8642372209579
1711091979392,-1014.8642372209579
1711091979432,-1014.8642372209579
1711091979473,-1014.8642372209579
1711091979512,-1014.8642372209579
1711091979553,-1014.8642372209579
1711091979593,-1014.8642372209579
1711091979633,-1014.8642372209579
1711091979674,-1014.8642372209579
1711091979713,37.24119998048991
1711091979754,793.6885764212348
1711091979794,793.6885764212348
1711091979834,793.6885764212348
1711091979875,793.6885764212348
1711091979915,793.6885764212348
1711091979955,793.6885764212348
1711091979995,793.6885764212348
1711091980035,793.6885764212348
1711091980077,793.6885764212348
1711091980116,793.6885764212348
1711091980157,793.6885764212348
1711091980197,-1491.987999849487
1711091980237,-3209.2125310846604
1711091980278,-3209.2125310846604
1711091980318,-3209.2125310846604
1711091980358,-3209.2125310846604
1711091980398,-3209.2125310846604
1711091980438,-3209.2125310846604
1711091980479,-3209.2125310846604
1711091980519,-3209.2125310846604
1711091980559,-3209.2125310846604
1711091980599,-3209.2125310846604
1711091980640,-3209.2125310846604
1711091980681,-2722.8262283399235
1711091980720,-2722.8262283399235
1711091980761,-2722.8262283399235
1711091980801,-2722.8262283399235
1711091980841,-2722.8262283399235
1711091980882,-2722.8262283399235
1711091980921,-2722.8262283399235
1711091980962,-2722.8262283399235
1711091981002,-2722.8262283399235
1711091981042,-2722.8262283399235
1711091981083,-2722.8262283399235
1711091981123,-3004.817800053861
1711091981163,-4278.9623737595975
1711091981203,-4278.9623737595975
1711091981243,-4278.9623737595975
1711091981284,-4278.9623737595975
1711091981324,-4278.9623737595975
1711091981364,-4278.9623737595975
1711091981404,-4278.9623737595975
1711091981444,-4278.9623737595975
1711091981486,-4278.9623737595975
1711091981525,-4278.9623737595975
1711091981565,-4278.9623737595975
1711091981606,-3393.110948213376
1711091981646,-2825.6851207548752
1711091981687,-2825.6851207548752
1711091981726,-2825.6851207548752
1711091981767,-2825.6851207548752
1711091981807,-2825.6851207548752
1711091981847,-2825.6851207548752
1711091981888,-2825.6851207548752
1711091981927,-2825.6851207548752
1711091981968,-2825.6851207548752
1711091982008,-2825.6851207548752
1711091982048,-2825.6851207548752
1711091982089,-5440.5561825116165
1711091982128,-5440.5561825116165
1711091982169,-5440.5561825116165
1711091982209,-5440.5561825116165
1711091982249,-5440.5561825116165
1711091982290,-5440.5561825116165
1711091982329,-5440.5561825116165
1711091982369,-5440.5561825116165
1711091982410,-5440.5561825116165
1711091982450,-5440.5561825116165
1711091982491,-5440.5561825116165
1711091982530,-5289.049775447696
1711091982570,-4280.145595226437
1711091982610,-3190.098433041014
1711091982651,-3190.098433041014
1711091982692,-3190.098433041014
1711091982731,-3190.098433041014
1711091982771,-3190.098433041014
1711091982811,-3190.098433041014
1711091982852,-3190.098433041014
1711091982892,-3190.098433041014
1711091982932,-3190.098433041014
1711091982972,-3190.098433041014
1711091983012,-3190.098433041014
1711091983053,-3351.6326863931026
1711091983093,-3351.6326863931026
1711091983133,-3351.6326863931026
1711091983173,-3351.6326863931026
1711091983213,-3351.6326863931026
1711091983254,-3351.6326863931026
1711091983295,-3351.6326863931026
1711091983334,-3351.6326863931026
1711091983374,-3351.6326863931026
1711091983415,-3351.6326863931026
1711091983455,-3351.6326863931026
1711091983496,-2188.2060911480803
1711091983536,-1390.6121897746343
1711091983576,-1390.6121897746343
1711091983616,-1390.6121897746343
1711091983656,-1390.6121897746343
1711091983697,-1390.6121897746343
1711091983737,-1390.6121897746343
1711091983777,-1390.6121897746343
1711091983817,-1390.6121897746343
1711091983857,-1390.6121897746343
1711091983899,-1390.6121897746343
1711091983938,-1390.6121897746343
1711091983978,-3328.56996631925
1711091984019,-3328.56996631925
1711091984059,-3328.56996631925
1711091984100,-3328.56996631925
1711091984139,-3328.56996631925
1711091984180,-3328.56996631925
1711091984220,-3328.56996631925
1711091984260,-3328.56996631925
1711091984301,-3328.56996631925
1711091984340,-3328.56996631925
1711091984381,-3328.56996631925
1711091984421,-2914.72463504551
1711091984461,-1920.2384256743826
1711091984502,-478.895849482622
1711091984542,-478.895849482622
1711091984582,-478.895849482622
1711091984622,-478.895849482622
1711091984663,-478.895849482622
1711091984704,-478.895849482622
1711091984743,-478.895849482622
1711091984783,-478.895849482622
1711091984824,-478.895849482622
1711091984864,-13.320084306411445
1711091984905,500.5982067747973
1711091984944,1518.659745606361
1711091984985,1660.402610490797
1711091985025,2466.0899290556554
1711091985065,2466.0899290556554
1711091985106,2466.0899290556554
1711091985146,2466.0899290556554
1711091985186,2466.0899290556554
1711091985226,2466.0899290556554
1711091985266,2466.0899290556554
1711091985307,2466.0899290556554
1711091985347,3510.6921107559465
1711091985381,3599.1492926161736
1711091985421,3599.1492926161736
1711091985461,3599.1492926161736
1711091985502,3599.1492926161736
1711091985541,3599.1492926161736
1711091985581,3599.1492926161736
1711091985621,3599.1492926161736
1711091985661,3599.1492926161736
1711091985702,3599.1492926161736
1711091985741,3599.1492926161736
1711091985782,3599.1492926161736
1711091985822,843.917287214892
1711091985862,-262.82318257074803
1711091985902,-262.82318257074803
1711091985942,-262.82318257074803
1711091985982,-262.82318257074803
1711091986022,-262.82318257074803
1711091986062,-262.82318257074803
1711091986103,-262.82318257074803
1711091986142,-262.82318257074803
1711091986183,-262.82318257074803
1711091986223,-262.82318257074803
1711091986263,-262.82318257074803
1711091986304,408.86571705318056
1711091986343,408.86571705318056
1711091986383,408.86571705318056
1711091986423,408.86571705318056
1711091986463,408.86571705318056
1711091986504,408.86571705318056
1711091986543,408.86571705318056
1711091986583,408.86571705318056
1711091986623,408.86571705318056
1711091986664,408.86571705318056
1711091986704,408.86571705318056
1711091986744,202.44798257108778
1711091986784,-1671.8451885376126
1711091986824,-1671.8451885376126
1711091986864,-1671.8451885376126
1711091986905,-1671.8451885376126
1711091986944,-1671.8451885376126
1711091986984,-1671.8451885376126
1711091987024,-1671.8451885376126
1711091987064,-1671.8451885376126
1711091987105,-1671.8451885376126
1711091987145,-1671.8451885376126
1711091987185,-1671.8451885376126
1711091987225,-332.5456711887382
1711091987265,763.0295859952457
1711091987306,763.0295859952457
1711091987345,763.0295859952457
1711091987385,763.0295859952457
1711091987425,763.0295859952457
1711091987465,763.0295859952457
1711091987506,763.0295859952457
1711091987546,763.0295859952457
1711091987586,763.0295859952457
1711091987626,763.0295859952457
1711091987666,763.0295859952457
1711091987707,-192.5806696419604
1711091987746,-192.5806696419604
1711091987786,-192.5806696419604
1711091987826,-192.5806696419604
1711091987867,-192.5806696419604
1711091987907,-192.5806696419604
1711091987947,-192.5806696419604
1711091987987,-192.5806696419604
1711091988027,-192.5806696419604
1711091988067,-192.5806696419604
1711091988108,-192.5806696419604
1711091988147,1208.2231979924254
1711091988187,1974.265330675058
1711091988227,1974.265330675058
1711091988267,1974.265330675058
1711091988308,1974.265330675058
1711091988348,1974.265330675058
1711091988388,1974.265330675058
1711091988428,1974.265330675058
1711091988468,1974.265330675058
1711091988509,1974.265330675058
1711091988548,1974.265330675058
1711091988588,1974.265330675058
1711091988628,-27.012640122091398
1711091988668,-1024.5925284435507
1711091988709,-1024.5925284435507
1711091988749,-1024.5925284435507
1711091988789,-1024.5925284435507
1711091988829,-1024.5925284435507
1711091988869,-1024.5925284435507
1711091988910,-1024.5925284435507
1711091988949,-1024.5925284435507
1711091988989,-1024.5925284435507
1711091989029,-1024.5925284435507
1711091989070,-1024.5925284435507
1711091989110,-442.30231681093574
1711091989150,442.4005508478731
1711091989190,442.4005508478731
1711091989230,442.4005508478731
1711091989270,442.4005508478731
1711091989311,442.4005508478731
1711091989350,442.4005508478731
1711091989390,442.4005508478731
1711091989431,442.4005508478731
1711091989471,442.4005508478731
1711091989511,442.4005508478731
1711091989551,442.4005508478731
1711091989591,-1302.6439910596237
1711091989631,-1302.6439910596237
1711091989671,-1302.6439910596237
1711091989712,-1302.6439910596237
1711091989751,-1302.6439910596237
1711091989792,-1302.6439910596237
1711091989832,-1302.6439910596237
1711091989872,-1302.6439910596237
1711091989913,-1302.6439910596237
1711091989952,-1302.6439910596237
1711091989992,-1302.6439910596237
1711091990032,-76.48696238663979
1711091990072,449.3801329105627
1711091990113,1683.4785870541818
1711091990153,1683.4785870541818
1711091990193,1683.4785870541818
1711091990233,1683.4785870541818
1711091990273,1683.4785870541818
1711091990314,1683.4785870541818
1711091990353,1683.4785870541818
1711091990393,1683.4785870541818
1711091990433,1683.4785870541818
1711091990474,1683.4785870541818
1711091990515,1683.4785870541818
1711091990554,1199.901919127442
1711091990594,1149.0076153525151
1711091990634,1104.0953969021793
1711091990674,884.4727776676882
1711091990715,884.4727776676882
1711091990755,884.4727776676882
1711091990795,884.4727776676882
1711091990835,884.4727776676882
1711091990875,884.4727776676882
1711091990916,884.4727776676882
1711091990955,884.4727776676882
1711091990995,884.4727776676882
1711091991035,1104.0953969021793
1711091991076,1149.0076153525151
1711091991117,1219.8470190633088
1711091991156,1774.474616764579
1711091991196,1979.1860794937238
1711091991236,1979.1860794937238
1711091991276,1979.1860794937238
1711091991317,1979.1860794937238
1711091991357,1979.1860794937238
1711091991397,1979.1860794937238
1711091991438,1979.1860794937238
1711091991478,1979.1860794937238
1711091991519,1979.1860794937238
1711091991558,1979.1860794937238
1711091991598,1774.474616764579
1711091991638,1139.341485204408
1711091991678,734.7510699927807
1711091991719,-243.96463862457313
1711091991759,-317.58298080274835
1711091991799,-1522.41743397573
1711091991839,-1522.41743397573
1711091991879,-2251.472594389459
1711091991920,-2538.196928575635
1711091991959,-2642.813059710432
1711091991999,-2761.867189052049
1711091992040,-3725.1761174446438
1711091992080,-4035.2657334697433
1711091992120,-4270.904808548978
1711091992160,-4557.437311416725
1711091992200,-4690.18247319106
1711091992240,-5234.024626972852
1711091992280,-5382.314671596279
1711091992321,-6423.116570621729
1711091992360,-10298.907941829413
1711091992400,-10298.907941829413
1711091992441,-10298.907941829413
1711091992481,-10298.907941829413
1711091992521,-10298.907941829413
1711091992561,-10298.907941829413
1711091992601,-10298.907941829413
1711091992641,-10298.907941829413
1711091992681,-10298.907941829413
1711091992722,-10298.907941829413
1711091992761,-10298.907941829413
1711091992801,-9499.433712091297
1711091992841,-8585.447960752994
1711091992881,-8585.447960752994
1711091992922,-8585.447960752994
1711091992962,-8585.447960752994
1711091993002,-8585.447960752994
1711091993042,-8585.447960752994
1711091993082,-8585.447960752994
1711091993123,-8585.447960752994
1711091993162,-8585.447960752994
1711091993202,-8585.447960752994
1711091993242,-8585.447960752994
1711091993283,-8704.67484386568
1711091993323,-11974.244011867326
1711091993363,-11974.244011867326
1711091993403,-11974.244011867326
1711091993443,-11974.244011867326
1711091993483,-11974.244011867326
1711091993524,-11974.244011867326
1711091993563,-11974.244011867326
1711091993603,-11974.244011867326
1711091993643,-11974.244011867326
1711091993683,-11974.244011867326
1711091993724,-11974.244011867326
1711091993764,-10968.213392812526
1711091993804,-9713.696460123872
1711091993844,-9713.696460123872
1711091993884,-9713.696460123872
1711091993925,-9713.696460123872
1711091993964,-9473.905504011549
1711091994004,-9473.905504011549
1711091994044,-9473.905504011549
1711091994084,-9473.905504011549
1711091994125,-9473.905504011549
1711091994165,-9240.49473523302
1711091994205,-8977.095512629952
1711091994245,-8164.537967483746
1711091994285,-8164.537967483746
1711091994326,-8164.537967483746
1711091994365,-8164.537967483746
1711091994405,-8164.537967483746
1711091994445,-8164.537967483746
1711091994485,-8164.537967483746
1711091994526,-8164.537967483746
1711091994566,-8164.537967483746
1711091994606,-8164.537967483746
1711091994646,-8164.537967483746
1711091994686,-8164.537967483746
1711091994727,-8164.537967483746
1711091994766,-8164.537967483746
1711091994806,-8164.537967483746
1711091994847,-8164.537967483746
1711091994887,-8164.537967483746
1711091994927,-8164.537967483746
1711091994967,-8164.537967483746
1711091995007,-8164.537967483746
1711091995047,-8164.537967483746
1711091995087,-9182.229720394826
1711091995128,-9182.229720394826
1711091995167,-9182.229720394826
1711091995208,-9182.229720394826
1711091995248,-9182.229720394826
1711091995288,-9182.229720394826
1711091995329,-9182.229720394826
1711091995368,-9182.229720394826
1711091995408,-9182.229720394826
1711091995448,-9182.229720394826
1711091995488,-9182.229720394826
1711091995529,-7606.101298931288
1711091995569,-6439.177941113245
1711091995608,-6439.177941113245
1711091995649,-6439.177941113245
1711091995689,-6439.177941113245
1711091995730,-6439.177941113245
1711091995769,-6439.177941113245
1711091995809,-6439.177941113245
1711091995849,-6439.177941113245
1711091995889,-6439.177941113245
1711091995930,-6439.177941113245
1711091995969,-6439.177941113245
1711091996010,-9470.1270899761
1711091996050,-9470.1270899761
1711091996090,-9470.1270899761
1711091996131,-9470.1270899761
1711091996170,-9470.1270899761
1711091996210,-9470.1270899761
1711091996250,-9470.1270899761
1711091996291,-9470.1270899761
1711091996331,-9470.1270899761
1711091996371,-9470.1270899761
1711091996411,-9470.1270899761
1711091996451,-8871.470250304788
1711091996491,-8788.517432169756
1711091996532,-8788.517432169756
1711091996571,-8788.517432169756
1711091996612,-8788.517432169756
1711091996652,-8788.517432169756
1711091996692,-8788.517432169756
1711091996733,-8788.517432169756
1711091996772,-8788.517432169756
1711091996812,-8788.517432169756
1711091996852,-8788.517432169756
1711091996893,-8788.517432169756
1711091996934,-9730.279347735457
1711091996973,-9730.279347735457
1711091997013,-9730.279347735457
1711091997053,-9730.279347735457
1711091997094,-9730.279347735457
1711091997135,-9730.279347735457
1711091997174,-9730.279347735457
1711091997214,-9730.279347735457
1711091997255,-9730.279347735457
1711091997295,-9730.279347735457
1711091997336,-9730.279347735457
1711091997376,-8489.495154559147
1711091997418,-7410.902640503133
1711091997458,-7410.902640503133
1711091997498,-7410.902640503133
1711091997539,-7410.902640503133
1711091997578,-7410.902640503133
1711091997618,-7410.902640503133
1711091997658,-7410.902640503133
1711091997699,-7410.902640503133
1711091997739,-7410.902640503133
1711091997779,-7410.902640503133
1711091997819,-7410.902640503133
1711091997859,-7209.696401619818
1711091997899,-7209.696401619818
1711091997940,-7209.696401619818
1711091997980,-7209.696401619818
1711091998020,-7209.696401619818
1711091998060,-7209.696401619818
1711091998100,-7209.696401619818
1711091998141,-7209.696401619818
1711091998180,-7209.696401619818
1711091998221,-7209.696401619818
1711091998261,-7209.696401619818
1711091998301,-5771.55638450617
1711091998342,-5659.653121538693
1711091998381,-5659.653121538693
1711091998421,-5659.653121538693
1711091998461,-5659.653121538693
1711091998501,-5312.871605234221
1711091998542,-5231.374825625448
1711091998581,-5231.374825625448
1711091998621,-5231.374825625448
1711091998661,-4968.69806894986
1711091998702,-4290.161774414359
1711091998742,-4226.5633661779575
1711091998782,-3454.2330876104534
1711091998822,-3454.2330876104534
1711091998862,-3454.2330876104534
1711091998902,-3454.2330876104534
1711091998943,-3454.2330876104534
1711091998982,-3454.2330876104534
1711091999022,-3454.2330876104534
1711091999062,-3454.2330876104534
1711091999102,-3454.2330876104534
1711091999143,-3454.2330876104534
1711091999183,-1856.3173131635413
1711091999223,-504.49340568552725
1711091999263,-504.49340568552725
1711091999303,-504.49340568552725
1711091999344,-504.49340568552725
1711091999383,-504.49340568552725
1711091999423,-504.49340568552725
1711091999463,-504.49340568552725
1711091999503,-504.49340568552725
1711091999544,-504.49340568552725
1711091999584,-504.49340568552725
1711091999624,-504.49340568552725
1711091999664,-2235.5041091872845
1711091999704,-2235.5041091872845
1711091999745,-2235.5041091872845
1711091999784,-2235.5041091872845
1711091999824,-2235.5041091872845
1711091999864,-2235.5041091872845
1711091999904,-2235.5041091872845
1711091999945,-2235.5041091872845
1711091999985,-2235.5041091872845
1711092000025,-2235.5041091872845
1711092000065,-2235.5041091872845
1711092000105,-1690.8649957296439
1711092000146,-196.55279101757333
1711092000185,786.9337773288134
1711092000225,786.9337773288134
1711092000265,786.9337773288134
1711092000305,786.9337773288134
1711092000346,786.9337773288134
1711092000386,786.9337773288134
1711092000426,786.9337773288134
1711092000466,786.9337773288134
1711092000506,786.9337773288134
1711092000547,786.9337773288134
1711092000586,804.4498097496107
1711092000626,1790.703630911652
1711092000666,1790.703630911652
1711092000706,1790.703630911652
1711092000747,1790.703630911652
1711092000787,1790.703630911652
1711092000827,1790.703630911652
1711092000867,1790.703630911652
1711092000907,1790.703630911652
1711092000948,1790.703630911652
1711092000987,1790.703630911652
1711092001027,2145.6845479931217
1711092001067,3483.0528331808746
1711092001107,4551.435070747975
1711092001148,4842.184612960089
1711092001187,4842.184612960089
1711092001228,4842.184612960089
1711092001268,4842.184612960089
1711092001308,4842.184612960089
1711092001349,4842.184612960089
1711092001388,4842.184612960089
1711092001428,4842.184612960089
1711092001468,4842.184612960089
1711092001508,4842.184612960089
1711092001549,4852.797758985311
1711092001589,4852.797758985311
1711092001629,4852.797758985311
1711092001669,4852.797758985311
1711092001709,4852.797758985311
1711092001750,4852.797758985311
1711092001789,4852.797758985311
1711092001829,4852.797758985311
1711092001869,4852.797758985311
1711092001909,4852.797758985311
1711092001950,4852.797758985311
1711092001990,5704.190789035987
1711092002030,6701.041201824322
1711092002070,7514.505777289625
1711092002110,7514.505777289625
1711092002151,7514.505777289625
1711092002190,7514.505777289625
1711092002230,7514.505777289625
1711092002270,7514.505777289625
1711092002310,7514.505777289625
1711092002351,7514.505777289625
1711092002391,7514.505777289625
1711092002431,7514.505777289625
1711092002471,7514.505777289625
1711092002511,6852.1941404475365
1711092002552,6852.1941404475365
1711092002591,6852.1941404475365
1711092002631,6852.1941404475365
1711092002671,6852.1941404475365
1711092002711,6852.1941404475365
1711092002752,6852.1941404475365
1711092002792,6852.1941404475365
1711092002832,6852.1941404475365
1711092002872,6852.1941404475365
1711092002912,6852.1941404475365
1711092002953,8088.5083193802275
1711092002992,9222.26603561826
1711092003033,9222.26603561826
1711092003073,9222.26603561826
1711092003113,9222.26603561826
1711092003154,9222.26603561826
1711092003193,9222.26603561826
1711092003233,9222.26603561826
1711092003273,9222.26603561826
1711092003313,9222.26603561826
1711092003354,9222.26603561826
1711092003394,9222.26603561826
1711092003434,8256.428335355828
1711092003474,5267.190515440656
1711092003514,4127.843852010788
1711092003555,4127.843852010788
1711092003595,4127.843852010788
1711092003635,4127.843852010788
1711092003675,4127.843852010788
1711092003716,4127.843852010788
1711092003757,4127.843852010788
1711092003796,4127.843852010788
1711092003837,4127.843852010788
1711092003877,4127.843852010788
1711092003917,4127.843852010788
1711092003958,4614.981744694058
1711092003998,5864.298398469575
1711092004038,5864.298398469575
1711092004078,5864.298398469575
1711092004118,5864.298398469575
1711092004159,5864.298398469575
1711092004199,5864.298398469575
1711092004239,5864.298398469575
1711092004279,5864.298398469575
1711092004319,5864.298398469575
1711092004361,5864.298398469575
1711092004400,5864.298398469575
1711092004440,5364.07731537777
1711092004481,4315.367385235615
1711092004521,4315.367385235615
1711092004562,4315.367385235615
1711092004601,4315.367385235615
1711092004641,4315.367385235615
1711092004681,4315.367385235615
1711092004722,4315.367385235615
1711092004763,4315.367385235615
1711092004802,4315.367385235615
1711092004842,4315.367385235615
1711092004882,4315.367385235615
1711092004923,4773.992660008138
1711092004963,5036.588128316216
1711092005003,5036.588128316216
1711092005043,5036.588128316216
1711092005083,5036.588128316216
1711092005123,5036.588128316216
1711092005164,5036.588128316216
1711092005204,5036.588128316216
1711092005244,5036.588128316216
1711092005284,5036.588128316216
1711092005324,5036.588128316216
1711092005365,5036.588128316216
1711092005404,2157.1472545827273
1711092005445,1816.0954498439096
1711092005485,1816.0954498439096
1711092005525,1816.0954498439096
1711092005566,1816.0954498439096
1711092005605,1816.0954498439096
1711092005645,1816.0954498439096
1711092005686,1816.0954498439096
1711092005726,1816.0954498439096
1711092005767,1816.0954498439096
1711092005807,1816.0954498439096
1711092005847,1816.0954498439096
1711092005887,1816.0954498439096
1711092005927,1816.0954498439096
1711092005968,1816.0954498439096
1711092006007,1816.0954498439096
1711092006048,1816.0954498439096
1711092006088,1816.0954498439096
1711092006128,1816.0954498439096
1711092006169,1816.0954498439096
1711092006209,1816.0954498439096
1711092006249,1816.0954498439096
1711092006289,1546.3905405676924
1711092006329,-526.9735586827155
1711092006370,-526.9735586827155
1711092006410,-526.9735586827155
1711092006450,-526.9735586827155
1711092006490,-526.9735586827155
1711092006531,-526.9735586827155
1711092006572,-526.9735586827155
1711092006611,-526.9735586827155
1711092006652,-526.9735586827155
1711092006692,-526.9735586827155
1711092006732,-526.9735586827155
1711092006773,354.6403662203811
1711092006813,354.6403662203811
1711092006853,354.6403662203811
1711092006893,354.6403662203811
1711092006933,354.6403662203811
1711092006974,354.6403662203811
1711092007014,354.6403662203811
1711092007054,354.6403662203811
1711092007094,354.6403662203811
1711092007135,354.6403662203811
1711092007176,354.6403662203811
1711092007215,-2043.5106917498633
1711092007255,-4624.8269808064215
1711092007296,-5262.876446050825
1711092007336,-5262.876446050825
1711092007377,-5262.876446050825
1711092007416,-5262.876446050825
1711092007457,-5262.876446050825
1711092007497,-5262.876446050825
1711092007537,-5262.876446050825
1711092007578,-5262.876446050825
1711092007618,-5262.876446050825
1711092007658,-5262.876446050825
1711092007698,-5479.043549427763
1711092007739,-5479.043549427763
1711092007779,-5479.043549427763
1711092007819,-5730.440984167624
1711092007859,-6130.227927156724
1711092007899,-6130.227927156724
1711092007940,-6130.227927156724
1711092007981,-6130.227927156724
1711092008021,-6130.227927156724
1711092008061,-6130.227927156724
1711092008101,-6130.227927156724
1711092008141,-9293.0989027943
1711092008182,-10958.673171029426
1711092008222,-10958.673171029426
1711092008262,-10958.673171029426
1711092008302,-10958.673171029426
1711092008342,-10958.673171029426
1711092008383,-10958.673171029426
1711092008422,-10958.673171029426
1711092008463,-10958.673171029426
1711092008503,-10958.673171029426
1711092008543,-10958.673171029426
1711092008584,-10958.673171029426
1711092008623,-10353.843952135183
1711092008663,-10353.843952135183
1711092008703,-10353.843952135183
1711092008744,-10353.843952135183
1711092008785,-10353.843952135183
1711092008824,-10353.843952135183
1711092008864,-10353.843952135183
1711092008904,-10353.843952135183
1711092008945,-10353.843952135183
1711092008985,-10353.843952135183
1711092009025,-10353.843952135183
1711092009065,-11343.992434354033
1711092009105,-11343.992434354033
1711092009146,-11343.992434354033
1711092009187,-11343.992434354033
1711092009226,-11343.992434354033
1711092009266,-11343.992434354033
1711092009307,-11343.992434354033
1711092009347,-11343.992434354033
1711092009388,-11343.992434354033
1711092009427,-11343.992434354033
1711092009470,-11343.992434354033
1711092009510,-10054.465325751808
1711092009550,-8667.982439058833
1711092009591,-8068.239803047385
1711092009631,-8068.239803047385
1711092009671,-8068.239803047385
1711092009711,-8068.239803047385
1711092009751,-8068.239803047385
1711092009792,-8068.239803047385
1711092009831,-8068.239803047385
1711092009871,-8068.239803047385
1711092009912,-8068.239803047385
1711092009952,-8068.239803047385
1711092009992,-8068.239803047385
1711092010032,-10080.131092424504
1711092010072,-10080.131092424504
1711092010112,-10080.131092424504
1711092010152,-10080.131092424504
1711092010193,-10080.131092424504
1711092010232,-10080.131092424504
1711092010273,-10080.131092424504
1711092010313,-10080.131092424504
1711092010353,-10080.131092424504
1711092010394,-10080.131092424504
1711092010433,-10080.131092424504
1711092010473,-9292.816856258083
1711092010513,-7783.5178630515
1711092010553,-6699.317625213647
1711092010594,-6621.462247845251
1711092010634,-6621.462247845251
1711092010674,-6621.462247845251
1711092010714,-6621.462247845251
1711092010754,-6621.462247845251
1711092010795,-6621.462247845251
1711092010834,-6621.462247845251
1711092010874,-6621.462247845251
1711092010914,-6621.462247845251
1711092010955,-6621.462247845251
1711092010996,-6621.462247845251
1711092011035,-6621.462247845251
1711092011075,-6621.462247845251
1711092011115,-6621.462247845251
1711092011155,-6621.462247845251
1711092011196,-6621.462247845251
1711092011236,-6621.462247845251
1711092011276,-6621.462247845251
1711092011316,-6621.462247845251
1711092011356,-6621.462247845251
1711092011396,-6621.462247845251
1711092011436,-5744.2661303307395
1711092011476,-4393.303506099386
1711092011516,-3298.5979271864053
1711092011556,-3298.5979271864053
1711092011597,-3298.5979271864053
1711092011637,-3298.5979271864053
1711092011677,-3298.5979271864053
1711092011717,-3298.5979271864053
1711092011757,-3298.5979271864053
1711092011798,-3298.5979271864053
1711092011837,-3298.5979271864053
1711092011877,-3298.5979271864053
1711092011917,-3298.5979271864053
1711092011958,-3081.3150501765776
1711092011998,-3081.3150501765776
1711092012038,-3081.3150501765776
1711092012078,-3081.3150501765776
1711092012118,-3081.3150501765776
1711092012158,-3081.3150501765776
1711092012199,-3081.3150501765776
1711092012238,-3081.3150501765776
1711092012279,-3081.3150501765776
1711092012319,-3081.3150501765776
1711092012359,-3081.3150501765776
1711092012400,-1530.5503895352595
1711092012439,-193.06963403709233
1711092012479,1056.9724780216347
1711092012519,1908.5768304618541
1711092012560,1908.5768304618541
1711092012600,1908.5768304618541
1711092012640,1908.5768304618541
1711092012680,1908.5768304618541
1711092012720,1908.5768304618541
1711092012760,1908.5768304618541
1711092012801,1908.5768304618541
1711092012840,1908.5768304618541
1711092012881,1908.5768304618541
1711092012921,1908.5768304618541
1711092012961,-197.87216073274612
1711092013002,-197.87216073274612
1711092013041,-197.87216073274612
1711092013081,-197.87216073274612
1711092013121,-197.87216073274612
1711092013162,-197.87216073274612
1711092013202,-197.87216073274612
1711092013242,-197.87216073274612
1711092013282,-197.87216073274612
1711092013322,-197.87216073274612
1711092013362,-197.87216073274612
1711092013403,114.53572970908135
1711092013442,1572.3558986014687
1711092013482,2572.3454897706397
1711092013522,2617.98765098257
1711092013562,2617.98765098257
1711092013603,2617.98765098257
1711092013643,2617.98765098257
1711092013683,2617.98765098257
1711092013723,2617.98765098257
1711092013763,2617.98765098257
1711092013804,2617.98765098257
1711092013843,2617.98765098257
1711092013883,2617.98765098257
1711092013923,2617.98765098257
1711092013963,118.72838711040094
1711092014004,118.72838711040094
1711092014043,118.72838711040094
1711092014084,118.72838711040094
1711092014124,118.72838711040094
1711092014164,118.72838711040094
1711092014205,118.72838711040094
1711092014244,118.72838711040094
1711092014284,118.72838711040094
1711092014324,118.72838711040094
1711092014364,118.72838711040094
1711092014405,663.5835925573483
1711092014444,1791.035608369857
1711092014485,2557.013397406554
1711092014525,3139.48818770051
1711092014565,3139.48818770051
1711092014606,3139.48818770051
1711092014645,3139.48818770051
1711092014685,3139.48818770051
1711092014725,3139.48818770051
1711092014765,3139.48818770051
1711092014806,3139.48818770051
1711092014845,3139.48818770051
1711092014885,3139.48818770051
1711092014926,3139.48818770051
1711092014966,2648.6330186831765
1711092015006,2648.6330186831765
1711092015046,2648.6330186831765
1711092015086,2648.6330186831765
1711092015126,2648.6330186831765
1711092015166,2648.6330186831765
1711092015207,2648.6330186831765
1711092015246,2648.6330186831765
1711092015287,2648.6330186831765
1711092015327,2648.6330186831765
1711092015367,2648.6330186831765
1711092015408,3377.4868595909793
1711092015447,4886.510392194148
1711092015487,5403.7807545783
1711092015528,5403.7807545783
1711092015568,5403.7807545783
1711092015609,5403.7807545783
1711092015648,5403.7807545783
1711092015689,5403.7807545783
1711092015729,5403.7807545783
1711092015769,5403.7807545783
1711092015810,5403.7807545783
1711092015849,5403.7807545783
1711092015890,5403.7807545783
1711092015930,4223.880883877166
1711092015970,1872.4489962174557
1711092016011,1625.729394135531
1711092016051,1625.729394135531
1711092016091,1625.729394135531
1711092016131,1625.729394135531
1711092016172,1625.729394135531
1711092016212,1625.729394135531
1711092016252,1625.729394135531
1711092016292,1625.729394135531
1711092016332,1625.729394135531
1711092016376,1625.729394135531
1711092016417,1625.729394135531
1711092016456,2860.9718680079095
1711092016499,3595.226962493267
1711092016537,3595.226962493267
1711092016577,3595.226962493267
1711092016618,3595.226962493267
1711092016658,3595.226962493267
1711092016698,3595.226962493267
1711092016738,3595.226962493267
1711092016778,3595.226962493267
1711092016819,3595.226962493267
1711092016859,3595.226962493267
1711092016899,3595.226962493267
1711092016939,881.7651580970269
1711092016980,-1892.3815283812582
1711092017022,-1892.3815283812582
1711092017061,-1892.3815283812582
1711092017101,-1892.3815283812582
1711092017142,-1892.3815283812582
1711092017182,-1892.3815283812582
1711092017223,-1892.3815283812582
1711092017262,-1892.3815283812582
1711092017302,-1892.3815283812582
1711092017343,-1892.3815283812582
1711092017383,-1892.3815283812582
1711092017424,-907.8432708592154
1711092017463,-44.440785388695076
1711092017503,957.0512488866225
1711092017543,957.0512488866225
1711092017583,957.0512488866225
1711092017625,957.0512488866225
1711092017664,957.0512488866225
1711092017704,957.0512488866225
1711092017744,957.0512488866225
1711092017784,957.0512488866225
1711092017825,957.0512488866225
1711092017865,957.0512488866225
1711092017905,957.0512488866225
1711092017945,-611.6525915758684
1711092017985,-2739.1309797519352
1711092018026,-2739.1309797519352
1711092018066,-2739.1309797519352
1711092018106,-2739.1309797519352
1711092018146,-2739.1309797519352
1711092018186,-2739.1309797519352
1711092018227,-2739.1309797519352
1711092018267,-2739.1309797519352
1711092018307,-2739.1309797519352
1711092018347,-2739.1309797519352
1711092018387,-2739.1309797519352
1711092018428,-2660.821154729463
1711092018468,-1876.8552992062178
1711092018508,-1876.8552992062178
1711092018548,-1876.8552992062178
1711092018588,-1876.8552992062178
1711092018629,-1876.8552992062178
1711092018669,-1876.8552992062178
1711092018712,-1876.8552992062178
1711092018749,-1876.8552992062178
1711092018790,-1876.8552992062178
1711092018831,-1876.8552992062178
1711092018870,-1876.8552992062178
1711092018910,-5300.513244521804
1711092018952,-5300.513244521804
1711092018992,-5300.513244521804
1711092019033,-5300.513244521804
1711092019073,-5300.513244521804
1711092019113,-5300.513244521804
1711092019153,-5300.513244521804
1711092019194,-5300.513244521804
1711092019235,-5300.513244521804
1711092019274,-5300.513244521804
1711092019314,-5300.513244521804
1711092019354,-4985.064707741607
1711092019395,-4323.583607044537
1711092019436,-4323.583607044537
1711092019475,-4323.583607044537
1711092019515,-4323.583607044537
1711092019556,-4323.583607044537
1711092019596,-4323.583607044537
1711092019637,-4323.583607044537
1711092019677,-4323.583607044537
1711092019717,-4323.583607044537
1711092019757,-4323.583607044537
1711092019798,-4323.583607044537
1711092019838,-6069.562678672373
1711092019878,-8103.000480743824
1711092019918,-8103.000480743824
1711092019958,-8103.000480743824
1711092019999,-8103.000480743824
1711092020040,-8103.000480743824
1711092020079,-8103.000480743824
1711092020119,-8103.000480743824
1711092020160,-8103.000480743824
1711092020200,-8103.000480743824
1711092020241,-8103.000480743824
1711092020281,-8103.000480743824
1711092020321,-7564.355750227347
1711092020361,-6450.837897088844
1711092020401,-6450.837897088844
1711092020442,-6450.837897088844
1711092020482,-6450.837897088844
1711092020522,-6450.837897088844
1711092020562,-6450.837897088844
1711092020602,-6450.837897088844
1711092020643,-6450.837897088844
1711092020682,-6450.837897088844
1711092020723,-6450.837897088844
1711092020763,-6450.837897088844
1711092020803,-6624.2031213245355
1711092020844,-9068.504865885712
1711092020884,-9068.504865885712
1711092020926,-9068.504865885712
1711092020964,-9068.504865885712
1711092021004,-9068.504865885712
1711092021045,-9068.504865885712
1711092021084,-9068.504865885712
1711092021125,-9068.504865885712
1711092021165,-9068.504865885712
1711092021205,-9068.504865885712
1711092021246,-9068.504865885712
1711092021285,-7801.874969454948
1711092021325,-6934.341268439777
1711092021366,-6922.754213725915
1711092021406,-6922.754213725915
1711092021447,-6922.754213725915
1711092021486,-6922.754213725915
1711092021529,-6922.754213725915
1711092021569,-6922.754213725915
1711092021609,-6922.754213725915
1711092021650,-6922.754213725915
1711092021690,-6922.754213725915
1711092021730,-6922.754213725915
1711092021770,-6922.754213725915
1711092021810,-9483.600258336868
1711092021851,-9483.600258336868
1711092021890,-9483.600258336868
1711092021930,-9483.600258336868
1711092021970,-9483.600258336868
1711092022010,-9483.600258336868
1711092022051,-9483.600258336868
1711092022091,-9483.600258336868
1711092022131,-9483.600258336868
1711092022171,-9483.600258336868
1711092022211,-9483.600258336868
1711092022252,-8142.516718286555
1711092022291,-6437.943817543099
1711092022332,-6437.943817543099
1711092022372,-6437.943817543099
1711092022412,-6437.943817543099
1711092022453,-6437.943817543099
1711092022492,-6437.943817543099
1711092022532,-6437.943817543099
1711092022572,-6437.943817543099
1711092022612,-6437.943817543099
1711092022653,-6437.943817543099
1711092022693,-6437.943817543099
1711092022733,-7967.380734648788
1711092022773,-7967.380734648788
1711092022813,-7967.380734648788
1711092022854,-7967.380734648788
1711092022893,-7967.380734648788
1711092022933,-7967.380734648788
1711092022973,-7967.380734648788
1711092023013,-7967.380734648788
1711092023054,-7967.380734648788
1711092023093,-7967.380734648788
1711092023134,-7967.380734648788
1711092023174,-7230.517842092086
1711092023214,-6228.8242567665875
1711092023255,-6228.8242567665875
1711092023294,-6228.8242567665875
1711092023334,-6228.8242567665875
1711092023375,-6228.8242567665875
1711092023415,-6228.8242567665875
1711092023455,-6228.8242567665875
1711092023495,-6228.8242567665875
1711092023535,-6228.8242567665875
1711092023575,-6228.8242567665875
1711092023615,-6228.8242567665875
1711092023656,-8178.0346517399885
1711092023696,-8301.10296898405
1711092023736,-8301.10296898405
1711092023776,-8301.10296898405
1711092023816,-8301.10296898405
1711092023857,-8301.10296898405
1711092023896,-8301.10296898405
1711092023936,-8301.10296898405
1711092023976,-8301.10296898405
1711092024017,-8301.10296898405
1711092024057,-8301.10296898405
1711092024097,-8301.10296898405
1711092024137,-6994.105103414971
1711092024177,-6994.105103414971
1711092024217,-6994.105103414971
1711092024258,-6994.105103414971
1711092024298,-6994.105103414971
1711092024338,-6994.105103414971
1711092024378,-6994.105103414971
1711092024418,-6994.105103414971
1711092024459,-6994.105103414971
1711092024498,-6994.105103414971
1711092024538,-6994.105103414971
1711092024579,-7597.8936640298925
1711092024619,-7597.8936640298925
1711092024660,-7597.8936640298925
1711092024699,-7597.8936640298925
1711092024739,-7597.8936640298925
1711092024779,-7597.8936640298925
1711092024820,-7597.8936640298925
1711092024860,-7597.8936640298925
1711092024900,-7597.8936640298925
1711092024940,-7597.8936640298925
1711092024980,-7597.8936640298925
1711092025020,-6219.011130702682
1711092025061,-5179.402598418295
1711092025101,-3595.306856164243
1711092025141,-3595.306856164243
1711092025181,-3595.306856164243
1711092025221,-3595.306856164243
1711092025262,-3595.306856164243
1711092025301,-3595.306856164243
1711092025342,-3595.306856164243
1711092025382,-3595.306856164243
1711092025422,-3595.306856164243
1711092025463,-3595.306856164243
1711092025502,-3595.306856164243
1711092025542,-4038.6243601876777
1711092025583,-4916.572563035879
1711092025622,-4916.572563035879
1711092025663,-4916.572563035879
1711092025703,-4916.572563035879
1711092025743,-4916.572563035879
1711092025783,-4916.572563035879
1711092025823,-4916.572563035879
1711092025864,-4916.572563035879
1711092025903,-4916.572563035879
1711092025943,-4916.572563035879
1711092025983,-4916.572563035879
1711092026023,-3547.2121628727764
1711092026064,-3547.2121628727764
1711092026104,-3547.2121628727764
1711092026144,-3547.2121628727764
1711092026184,-3547.2121628727764
1711092026224,-3547.2121628727764
1711092026265,-3547.2121628727764
1711092026304,-3547.2121628727764
1711092026344,-3547.2121628727764
1711092026384,-3547.2121628727764
1711092026424,-3547.2121628727764
1711092026465,-2313.315508595435
1711092026504,-2055.779072585283
1711092026545,-2055.779072585283
1711092026585,-2055.779072585283
1711092026625,-2055.779072585283
1711092026666,-2055.779072585283
1711092026705,-2055.779072585283
1711092026745,-2055.779072585283
1711092026785,-2055.779072585283
1711092026825,-2055.779072585283
1711092026866,-2055.779072585283
1711092026906,-764.6236200379208
1711092026946,668.6215690062381
1711092026986,668.6215690062381
1711092027026,668.6215690062381
1711092027067,668.6215690062381
1711092027106,668.6215690062381
1711092027146,668.6215690062381
1711092027185,668.6215690062381
1711092027225,668.6215690062381
1711092027266,668.6215690062381
1711092027305,668.6215690062381
1711092027346,668.6215690062381
1711092027386,631.3431543451734
1711092027426,-1631.2734618098475
1711092027468,-1631.2734618098475
1711092027507,-1631.2734618098475
1711092027547,-1631.2734618098475
1711092027587,-1631.2734618098475
1711092027628,-1631.2734618098475
1711092027668,-1631.2734618098475
1711092027708,-1631.2734618098475
1711092027748,-1631.2734618098475
1711092027788,-1631.2734618098475
1711092027828,-1631.2734618098475
1711092027869,-635.0520548548084
1711092027908,96.62543723336421
1711092027948,1224.9715930123348
1711092027988,1224.9715930123348
1711092028028,1224.9715930123348
1711092028069,1224.9715930123348
1711092028109,1224.9715930123348
1711092028149,1224.9715930123348
1711092028189,1224.9715930123348
1711092028229,1224.9715930123348
1711092028270,1224.9715930123348
1711092028309,1224.9715930123348
1711092028349,1224.9715930123348
1711092028389,232.18875965685584
1711092028429,-334.9140256824903
1711092028470,-334.9140256824903
1711092028510,-334.9140256824903
1711092028550,-334.9140256824903
1711092028590,-334.9140256824903
1711092028630,-334.9140256824903
1711092028671,-334.9140256824903
1711092028710,-334.9140256824903
1711092028750,-334.9140256824903
1711092028790,-334.9140256824903
1711092028831,-334.9140256824903
1711092028871,761.314490233548
1711092028911,1741.9644178897142
1711092028951,1741.9644178897142
1711092028991,1741.9644178897142
1711092029031,1741.9644178897142
1711092029072,1741.9644178897142
1711092029111,1741.9644178897142
1711092029151,1741.9644178897142
1711092029191,1741.9644178897142
1711092029231,1741.9644178897142
1711092029272,1741.9644178897142
1711092029312,1741.9644178897142
1711092029351,980.7348233752418
1711092029392,980.7348233752418
1711092029432,980.7348233752418
1711092029473,980.7348233752418
1711092029512,980.7348233752418
1711092029552,980.7348233752418
1711092029592,980.7348233752418
1711092029632,980.7348233752418
1711092029673,980.7348233752418
1711092029712,980.7348233752418
1711092029753,980.7348233752418
1711092029793,988.0994216506369
1711092029833,1928.9405167843215
1711092029874,2900.641480930615
1711092029913,4129.876752113458
1711092029953,4129.876752113458
1711092029993,4129.876752113458
1711092030033,4129.876752113458
1711092030074,4129.876752113458
1711092030114,4129.876752113458
1711092030154,4129.876752113458
1711092030194,4129.876752113458
1711092030234,4129.876752113458
1711092030275,4129.876752113458
1711092030314,4129.876752113458
1711092030354,3802.2541032303125
1711092030394,3554.6754242116585
1711092030434,3554.6754242116585
1711092030475,3554.6754242116585
1711092030515,3554.6754242116585
1711092030555,3554.6754242116585
1711092030595,3554.6754242116585
1711092030635,3554.6754242116585
1711092030676,3554.6754242116585
1711092030715,3554.6754242116585
1711092030755,3554.6754242116585
1711092030795,3554.6754242116585
1711092030835,4732.986805311404
1711092030876,5886.137583919801
1711092030916,5886.137583919801
1711092030956,5886.137583919801
1711092030996,5886.137583919801
1711092031036,5886.137583919801
1711092031077,5886.137583919801
1711092031116,5886.137583919801
1711092031156,5886.137583919801
1711092031196,5886.137583919801
1711092031237,5886.137583919801
1711092031277,5886.137583919801
1711092031317,4569.379679181613
1711092031357,2699.3794281976297
1711092031397,2699.3794281976297
1711092031437,2699.3794281976297
1711092031478,2699.3794281976297
1711092031517,2699.3794281976297
1711092031557,2699.3794281976297
1711092031598,2699.3794281976297
1711092031638,2699.3794281976297
1711092031679,2699.3794281976297
1711092031718,2699.3794281976297
1711092031758,2699.3794281976297
1711092031798,3196.2686370606534
1711092031838,3196.2686370606534
1711092031879,3196.2686370606534
1711092031918,3196.2686370606534
1711092031959,3196.2686370606534
1711092031999,3196.2686370606534
1711092032039,3196.2686370606534
1711092032080,3196.2686370606534
1711092032119,3196.2686370606534
1711092032159,3196.2686370606534
1711092032200,3196.2686370606534
1711092032240,1691.3648602371104
1711092032281,-934.0156009588391
1711092032320,-990.1862099370919
1711092032360,-990.1862099370919
1711092032400,-990.1862099370919
1711092032440,-990.1862099370919
1711092032481,-990.1862099370919
1711092032521,-990.1862099370919
1711092032561,-990.1862099370919
1711092032601,-990.1862099370919
1711092032641,-990.1862099370919
1711092032682,-990.1862099370919
1711092032721,-990.1862099370919
1711092032761,436.05747036542743
1711092032802,436.05747036542743
1711092032842,436.05747036542743
1711092032883,436.05747036542743
1711092032922,436.05747036542743
1711092032963,436.05747036542743
1711092033003,436.05747036542743
1711092033043,436.05747036542743
1711092033084,436.05747036542743
1711092033123,436.05747036542743
1711092033164,436.05747036542743
1711092033204,-2689.956375784939
1711092033244,-4040.194601877127
1711092033285,-4040.194601877127
1711092033324,-4040.194601877127
1711092033364,-4040.194601877127
1711092033404,-4040.194601877127
1711092033444,-4040.194601877127
1711092033485,-4040.194601877127
1711092033525,-4040.194601877127
1711092033560,-4040.194601877127
1711092033600,-4040.194601877127
1711092033640,-4040.194601877127
1711092033681,-3160.026461949805
1711092033720,-2051.425715372432
1711092033761,-2051.425715372432
1711092033801,-2051.425715372432
1711092033841,-2051.425715372432
1711092033882,-2051.425715372432
1711092033921,-2051.425715372432
1711092033961,-2051.425715372432
1711092034001,-2051.425715372432
1711092034041,-2051.425715372432
1711092034082,-2051.425715372432
1711092034122,-2051.425715372432
1711092034162,-4583.00688268384
1711092034202,-7081.806355271023
1711092034242,-7081.806355271023
1711092034283,-7081.806355271023
1711092034323,-7081.806355271023
1711092034363,-7081.806355271023
1711092034403,-7081.806355271023
1711092034443,-7081.806355271023
1711092034484,-7081.806355271023
1711092034524,-7081.806355271023
1711092034564,-7081.806355271023
1711092034604,-7081.806355271023
1711092034645,-6535.860027577961
1711092034686,-5414.668653315399
1711092034725,-5203.074533350067
1711092034765,-5203.074533350067
1711092034805,-5203.074533350067
1711092034846,-5203.074533350067
1711092034887,-5203.074533350067
1711092034926,-5203.074533350067
1711092034967,-5203.074533350067
1711092035007,-5203.074533350067
1711092035047,-5203.074533350067
1711092035088,-5203.074533350067
1711092035127,-5203.074533350067
1711092035168,-8314.49264909653
1711092035208,-8314.49264909653
1711092035248,-8314.49264909653
1711092035289,-8314.49264909653
1711092035329,-8314.49264909653
1711092035369,-8314.49264909653
1711092035411,-8314.49264909653
1711092035451,-8314.49264909653
1711092035492,-8314.49264909653
1711092035532,-8314.49264909653
1711092035573,-8314.49264909653
1711092035613,-7282.034192180727
1711092035653,-5920.446878632996
1711092035694,-4682.552663050126
1711092035733,-4682.552663050126
1711092035774,-4682.552663050126
1711092035814,-4682.552663050126
1711092035854,-4682.552663050126
1711092035895,-4682.552663050126
1711092035935,-4682.552663050126
1711092035975,-4682.552663050126
1711092036015,-4682.552663050126
1711092036056,-4682.552663050126
1711092036096,-4570.03436923679
1711092036136,-3715.8963760912884
1711092036176,-3715.8963760912884
1711092036216,-3715.8963760912884
1711092036257,-3715.8963760912884
1711092036298,-3715.8963760912884
1711092036337,-3715.8963760912884
1711092036377,-3715.8963760912884
1711092036417,-3715.8963760912884
1711092036457,-3715.8963760912884
1711092036498,-3715.8963760912884
1711092036538,-3262.6207396839745
1711092036578,-1752.7858384014107
1711092036618,-1009.893448764924
1711092036658,-1009.893448764924
1711092036699,-1009.893448764924
1711092036739,-1009.893448764924
1711092036779,-1009.893448764924
1711092036819,-1009.893448764924
1711092036859,-1009.893448764924
1711092036900,-1009.893448764924
1711092036940,-1009.893448764924
1711092036980,-1009.893448764924
1711092037020,-1009.893448764924
1711092037060,-2921.7191164500546
1711092037101,-2921.7191164500546
1711092037140,-2921.7191164500546
1711092037180,-2921.7191164500546
1711092037221,-2921.7191164500546
1711092037261,-2921.7191164500546
1711092037302,-2921.7191164500546
1711092037341,-2921.7191164500546
1711092037382,-2921.7191164500546
1711092037423,-2921.7191164500546
1711092037463,-2921.7191164500546
1711092037504,-2507.675919375848
1711092037543,-1394.491626115283
1711092037584,-107.56512989103794
1711092037624,-107.56512989103794
1711092037664,-107.56512989103794
1711092037705,-107.56512989103794
1711092037745,-107.56512989103794
1711092037785,-107.56512989103794
1711092037825,-107.56512989103794
1711092037866,-107.56512989103794
1711092037907,-107.56512989103794
1711092037946,-107.56512989103794
1711092037987,-107.56512989103794
1711092038027,-559.1437656104099
1711092038067,-559.1437656104099
1711092038108,-559.1437656104099
1711092038147,-559.1437656104099
1711092038188,-559.1437656104099
1711092038228,-559.1437656104099
1711092038268,-559.1437656104099
1711092038309,-559.1437656104099
1711092038349,-559.1437656104099
1711092038389,-559.1437656104099
1711092038429,-559.1437656104099
1711092038470,615.2538977686781
1711092038510,1767.4818021224346
1711092038550,2615.26323189307
1711092038590,2615.26323189307
1711092038630,2615.26323189307
1711092038671,2615.26323189307
1711092038712,2615.26323189307
1711092038751,2615.26323189307
1711092038791,2615.26323189307
1711092038832,2615.26323189307
1711092038872,2615.26323189307
1711092038913,2615.26323189307
1711092038953,2615.26323189307
1711092038993,1182.6959994276986
1711092039033,1182.6959994276986
1711092039073,1182.6959994276986
1711092039114,1182.6959994276986
1711092039154,1182.6959994276986
1711092039194,1182.6959994276986
1711092039234,1182.6959994276986
1711092039274,1182.6959994276986
1711092039316,1182.6959994276986
1711092039355,1182.6959994276986
1711092039395,1182.6959994276986
1711092039436,1573.1112328381278
1711092039476,2447.5586003074422
1711092039517,3283.039194351062
1711092039556,3283.039194351062
1711092039596,3283.039194351062
1711092039636,3283.039194351062
1711092039677,3283.039194351062
1711092039718,3283.039194351062
1711092039757,3283.039194351062
1711092039797,3283.039194351062
1711092039837,3283.039194351062
1711092039878,3283.039194351062
1711092039919,3283.039194351062
1711092039958,479.6221093107015
1711092039998,-174.4425036313478
1711092040038,-174.4425036313478
1711092040078,-174.4425036313478
1711092040119,-174.4425036313478
1711092040159,-174.4425036313478
1711092040199,-174.4425036313478
1711092040239,-174.4425036313478
1711092040279,-174.4425036313478
1711092040320,-174.4425036313478
1711092040360,-174.4425036313478
1711092040400,-174.4425036313478
1711092040440,420.10680027585477
1711092040480,420.10680027585477
1711092040521,420.10680027585477
1711092040560,420.10680027585477
1711092040601,420.10680027585477
1711092040641,420.10680027585477
1711092040681,420.10680027585477
1711092040722,420.10680027585477
1711092040762,420.10680027585477
1711092040802,420.10680027585477
1711092040842,420.10680027585477
1711092040882,-360.3731836748775
1711092040923,-3778.522069626488
1711092040963,-5705.310255582444
1711092041003,-5717.457499233773
1711092041043,-5717.457499233773
1711092041083,-5717.457499233773
1711092041125,-5717.457499233773
1711092041164,-5717.457499233773
1711092041204,-5717.457499233773
1711092041245,-5717.457499233773
1711092041285,-5717.457499233773
1711092041326,-5717.457499233773
1711092041365,-5717.457499233773
1711092041405,-5717.457499233773
1711092041446,-5717.457499233773
1711092041486,-5717.457499233773
1711092041527,-5717.457499233773
1711092041566,-5717.457499233773
1711092041607,-5717.457499233773
1711092041647,-5717.457499233773
1711092041687,-5717.457499233773
1711092041728,-5717.457499233773
1711092041768,-5717.457499233773
1711092041808,-5717.457499233773
1711092041848,-6571.134155737236
1711092041888,-9246.646824561525
1711092041929,-9640.215140407206
1711092041969,-9640.215140407206
1711092042009,-9640.215140407206
1711092042049,-9640.215140407206
1711092042090,-9640.215140407206
1711092042131,-9640.215140407206
1711092042170,-9640.215140407206
1711092042211,-9640.215140407206
1711092042251,-9640.215140407206
1711092042291,-9640.215140407206
1711092042332,-9725.921646504197
1711092042371,-9725.921646504197
1711092042413,-9725.921646504197
1711092042453,-9725.921646504197
1711092042493,-9725.921646504197
1711092042534,-9725.921646504197
1711092042574,-9725.921646504197
1711092042614,-9725.921646504197
1711092042654,-9725.921646504197
1711092042694,-9725.921646504197
1711092042735,-9725.921646504197
1711092042775,-11437.909737996524
1711092042815,-11437.909737996524
1711092042855,-11437.909737996524
1711092042896,-11437.909737996524
1711092042937,-11437.909737996524
1711092042976,-11437.909737996524
1711092043016,-11437.909737996524
1711092043056,-11437.909737996524
1711092043096,-11437.909737996524
1711092043137,-11437.909737996524
1711092043177,-11437.909737996524
1711092043217,-9891.865163654555
1711092043257,-9891.865163654555
1711092043297,-9891.865163654555
1711092043338,-9891.865163654555
1711092043378,-9891.865163654555
1711092043418,-9891.865163654555
1711092043458,-9891.865163654555
1711092043498,-9891.865163654555
1711092043539,-9891.865163654555
1711092043578,-9891.865163654555
1711092043619,-9891.865163654555
1711092043659,-10438.880758104613
1711092043699,-14365.297097028
1711092043740,-14365.297097028
1711092043779,-14365.297097028
1711092043819,-14365.297097028
1711092043859,-14365.297097028
1711092043900,-14365.297097028
1711092043941,-14365.297097028
1711092043980,-14365.297097028
1711092044021,-14365.297097028
1711092044061,-14365.297097028
1711092044101,-14365.297097028
1711092044142,-14297.454528317554
1711092044181,-14297.454528317554
1711092044221,-14297.454528317554
1711092044262,-14297.454528317554
1711092044302,-14297.454528317554
1711092044343,-14297.454528317554
1711092044382,-14297.454528317554
1711092044423,-14297.454528317554
1711092044463,-14297.454528317554
1711092044503,-14297.454528317554
1711092044544,-14297.454528317554
1711092044583,-15202.34060694091
1711092044624,-16409.058338578325
1711092044664,-16409.058338578325
1711092044704,-16409.058338578325
1711092044745,-16409.058338578325
1711092044785,-16409.058338578325
1711092044825,-16409.058338578325
1711092044865,-16409.058338578325
1711092044906,-16409.058338578325
1711092044947,-16409.058338578325
1711092044987,-16409.058338578325
1711092045027,-16409.058338578325
1711092045067,-14256.981118789874
1711092045107,-13282.443838245934
1711092045148,-13282.443838245934
1711092045188,-13282.443838245934
1711092045228,-13282.443838245934
1711092045268,-13282.443838245934
1711092045308,-13282.443838245934
1711092045350,-13282.443838245934
1711092045389,-13282.443838245934
1711092045429,-13282.443838245934
1711092045470,-13282.443838245934
1711092045510,-13282.443838245934
1711092045551,-13282.443838245934
1711092045590,-13282.443838245934
1711092045634,-13282.443838245934
1711092045674,-13282.443838245934
1711092045715,-13282.443838245934
1711092045755,-13282.443838245934
1711092045795,-13282.443838245934
1711092045835,-13282.443838245934
1711092045875,-13282.443838245934
1711092045915,-13282.443838245934
1711092045956,-12877.625521245878
1711092045995,-11151.113207384245
1711092046036,-11151.113207384245
1711092046076,-11151.113207384245
1711092046116,-11151.113207384245
1711092046157,-11151.113207384245
1711092046196,-10564.222208999097
1711092046236,-10564.222208999097
1711092046276,-10564.222208999097
1711092046317,-10564.222208999097
1711092046357,-9364.658520827768
1711092046397,-9328.309409511276
1711092046437,-8241.115185859147
1711092046477,-7719.452145946678
1711092046517,-7719.452145946678
1711092046558,-7719.452145946678
1711092046597,-7719.452145946678
1711092046637,-7719.452145946678
1711092046678,-7719.452145946678
1711092046718,-7719.452145946678
1711092046758,-7719.452145946678
1711092046798,-7719.452145946678
1711092046838,-6115.104977305513
1711092046878,-3937.014746176079
1711092046918,-3937.014746176079
1711092046959,-3937.014746176079
1711092046998,-3937.014746176079
1711092047038,-3937.014746176079
1711092047078,-3937.014746176079
1711092047118,-3937.014746176079
1711092047159,-3937.014746176079
1711092047199,-3937.014746176079
1711092047239,-3937.014746176079
1711092047279,-3937.014746176079
1711092047319,-6509.67901268648
1711092047359,-6509.67901268648
1711092047399,-6509.67901268648
1711092047439,-6509.67901268648
1711092047479,-6509.67901268648
1711092047519,-6509.67901268648
1711092047560,-6509.67901268648
1711092047599,-6509.67901268648
1711092047640,-6509.67901268648
1711092047680,-6509.67901268648
1711092047720,-6509.67901268648
1711092047761,-4962.817131127231
1711092047800,-4962.817131127231
1711092047840,-4962.817131127231
1711092047880,-4962.817131127231
1711092047920,-4962.817131127231
1711092047961,-4962.817131127231
1711092048000,-4962.817131127231
1711092048040,-4962.817131127231
1711092048081,-4962.817131127231
1711092048121,-4962.817131127231
1711092048161,-4962.817131127231
1711092048201,-6691.090715379454
1711092048241,-6691.090715379454
1711092048281,-6691.090715379454
1711092048321,-6691.090715379454
1711092048362,-6691.090715379454
1711092048401,-6691.090715379454
1711092048441,-6691.090715379454
1711092048482,-6691.090715379454
1711092048521,-6691.090715379454
1711092048562,-6691.090715379454
1711092048602,-6691.090715379454
1711092048642,-4888.798398198094
1711092048682,-4561.270380520495
1711092048722,-4561.270380520495
1711092048763,-4561.270380520495
1711092048802,-4561.270380520495
1711092048842,-4561.270380520495
1711092048882,-4561.270380520495
1711092048922,-4561.270380520495
1711092048963,-4561.270380520495
1711092049002,-4561.270380520495
1711092049043,-3275.826614258811
1711092049083,-2931.863610778004
1711092049123,-1477.2444969404023
1711092049164,-1477.2444969404023
1711092049203,-1477.2444969404023
1711092049243,-1477.2444969404023
1711092049283,-1477.2444969404023
1711092049323,-1477.2444969404023
1711092049364,-1477.2444969404023
1711092049403,-1477.2444969404023
1711092049444,-1477.2444969404023
1711092049484,-1477.2444969404023
1711092049524,23.891689187847078
1711092049565,23.891689187847078
1711092049604,23.891689187847078
1711092049644,23.891689187847078
1711092049684,23.891689187847078
1711092049724,23.891689187847078
1711092049765,23.891689187847078
1711092049805,23.891689187847078
1711092049845,23.891689187847078
1711092049885,23.891689187847078
1711092049925,23.891689187847078
1711092049966,1139.1083886548877
1711092050005,1139.1083886548877
1711092050045,1139.1083886548877
1711092050085,1139.1083886548877
1711092050125,1139.1083886548877
1711092050166,1139.1083886548877
1711092050206,1139.1083886548877
1711092050246,1139.1083886548877
1711092050286,1139.1083886548877
1711092050326,1139.1083886548877
1711092050367,1139.1083886548877
1711092050406,2945.9074155548587
1711092050446,2945.9074155548587
1711092050486,2945.9074155548587
1711092050526,2945.9074155548587
1711092050567,2945.9074155548587
1711092050607,2945.9074155548587
1711092050647,2945.9074155548587
1711092050687,2945.9074155548587
1711092050727,2945.9074155548587
1711092050768,2945.9074155548587
1711092050807,2945.9074155548587
1711092050847,3395.378691880498
1711092050887,3395.378691880498
1711092050927,3395.378691880498
1711092050968,3395.378691880498
1711092051008,3395.378691880498
1711092051048,3395.378691880498
1711092051088,3395.378691880498
1711092051128,3395.378691880498
1711092051169,3395.378691880498
1711092051208,3395.378691880498
1711092051249,3395.378691880498
1711092051289,5302.541967920028
1711092051329,5474.223079948453
1711092051370,5474.223079948453
1711092051409,5474.223079948453
1711092051449,5474.223079948453
1711092051490,5474.223079948453
1711092051530,5474.223079948453
1711092051571,5474.223079948453
1711092051611,5474.223079948453
1711092051652,5474.223079948453
1711092051692,5474.223079948453
1711092051733,6253.21880620392
1711092051774,6749.2620965298265
1711092051813,6749.2620965298265
1711092051853,6749.2620965298265
1711092051893,6749.2620965298265
1711092051934,6749.2620965298265
1711092051975,6749.2620965298265
1711092052014,6749.2620965298265
1711092052055,6749.2620965298265
1711092052095,6749.2620965298265
1711092052135,6749.2620965298265
1711092052176,7877.559095112374
1711092052216,9352.321618658025
1711092052256,10013.985192778055
1711092052296,10305.495108012343
1711092052336,10846.125335380435
1711092052377,10984.817667439114
1711092052417,10984.817667439114
1711092052457,10984.817667439114
1711092052497,11059.852781525115
1711092052538,11108.38130249083
1711092052579,11166.816795035265
1711092052618,11978.105092853773
1711092052658,12141.379387043882
1711092052698,12755.66965918662
1711092052738,12924.733605061192
1711092052779,12924.733605061192
1711092052819,12924.733605061192
1711092052859,12924.733605061192
1711092052899,12924.733605061192
1711092052939,12924.733605061192
1711092052980,12924.733605061192
1711092053019,13534.389739053324
1711092053060,14139.890050384216
1711092053100,14139.890050384216
1711092053140,14139.890050384216
1711092053181,14139.890050384216
1711092053220,14139.890050384216
1711092053261,14139.890050384216
1711092053301,14139.890050384216
1711092053341,14139.890050384216
1711092053382,14139.890050384216
1711092053421,14139.890050384216
1711092053461,14139.890050384216
1711092053502,12923.070072418544
1711092053542,12923.070072418544
1711092053583,12923.070072418544
1711092053622,12923.070072418544
1711092053663,12923.070072418544
1711092053703,12923.070072418544
1711092053743,12923.070072418544
1711092053784,12923.070072418544
1711092053823,12923.070072418544
1711092053863,12923.070072418544
1711092053904,12923.070072418544
1711092053944,13708.021886890754
1711092053985,13708.021886890754
1711092054025,13708.021886890754
1711092054065,13708.021886890754
1711092054105,13708.021886890754
1711092054146,13708.021886890754
1711092054186,13708.021886890754
1711092054226,13708.021886890754
1711092054266,13708.021886890754
1711092054306,13708.021886890754
1711092054347,13708.021886890754
1711092054388,11728.63011007011
1711092054427,11728.63011007011
1711092054467,11728.63011007011
1711092054508,11728.63011007011
1711092054548,11728.63011007011
1711092054589,11728.63011007011
1711092054629,11728.63011007011
1711092054669,11728.63011007011
1711092054709,11728.63011007011
1711092054749,11728.63011007011
1711092054790,11728.63011007011
1711092054830,11728.63011007011
1711092054870,11728.63011007011
1711092054910,11728.63011007011
1711092054950,11728.63011007011
1711092054992,11728.63011007011
1711092055031,11728.63011007011
1711092055071,11728.63011007011
1711092055112,11728.63011007011
1711092055152,11728.63011007011
1711092055193,11728.63011007011
1711092055232,11116.801057212055
1711092055273,9383.744475661078
1711092055313,9111.732870866079
1711092055353,9111.732870866079
1711092055394,9111.732870866079
1711092055433,9111.732870866079
1711092055474,9111.732870866079
1711092055514,9111.732870866079
1711092055555,9111.732870866079
1711092055596,9111.732870866079
1711092055635,9111.732870866079
1711092055675,8606.376976728905
1711092055716,8300.478372761747
1711092055756,8152.154102408094
1711092055797,8152.154102408094
1711092055836,8152.154102408094
1711092055877,8052.8690067203715
1711092055917,8052.8690067203715
1711092055957,8052.8690067203715
1711092055998,8052.8690067203715
1711092056037,8052.8690067203715
1711092056078,6500.21099661896
1711092056118,4657.585958202835
1711092056158,4657.585958202835
1711092056199,4657.585958202835
1711092056238,4657.585958202835
1711092056278,4657.585958202835
1711092056319,4657.585958202835
1711092056360,4657.585958202835
1711092056401,4657.585958202835
1711092056441,4657.585958202835
1711092056481,4657.585958202835
1711092056521,4657.585958202835
1711092056561,4587.829772091936
1711092056602,4587.829772091936
1711092056641,4587.829772091936
1711092056682,4587.829772091936
1711092056722,4587.829772091936
1711092056762,4587.829772091936
1711092056803,4587.829772091936
1711092056842,4587.829772091936
1711092056883,4587.829772091936
1711092056923,4587.829772091936
1711092056963,2530.014129068237
1711092057004,598.0668230745941
1711092057044,598.0668230745941
1711092057084,598.0668230745941
1711092057124,598.0668230745941
1711092057165,598.0668230745941
1711092057205,598.0668230745941
1711092057245,598.0668230745941
1711092057285,598.0668230745941
1711092057325,598.0668230745941
1711092057366,598.0668230745941
1711092057407,598.0668230745941
1711092057446,43.910017704125494
1711092057486,43.910017704125494
1711092057527,43.910017704125494
1711092057567,43.910017704125494
1711092057608,43.910017704125494
1711092057648,43.910017704125494
1711092057687,43.910017704125494
1711092057726,43.910017704125494
1711092057765,43.910017704125494
1711092057804,43.910017704125494
1711092057843,-2636.3746425372083
1711092057882,-4542.307265974581
1711092057921,-4542.307265974581
1711092057960,-4542.307265974581
1711092057999,-4542.307265974581
1711092058038,-4542.307265974581
1711092058077,-4542.307265974581
1711092058116,-4542.307265974581
1711092058155,-4542.307265974581
1711092058194,-4542.307265974581
1711092058233,-4542.307265974581
1711092058272,-4542.307265974581
1711092058311,-3723.974543196615
1711092058350,-3723.974543196615
1711092058389,-3723.974543196615
1711092058428,-3723.974543196615
1711092058467,-3723.974543196615
1711092058506,-3723.974543196615
1711092058546,-3723.974543196615
1711092058586,-3723.974543196615
1711092058626,-3723.974543196615
1711092058666,-3723.974543196615
1711092058706,-3723.974543196615
1711092058746,-3525.4789545419626
1711092058786,-3525.4789545419626
1711092058826,-3525.4789545419626
1711092058866,-3525.4789545419626
1711092058906,-3525.4789545419626
1711092058946,-3525.4789545419626
1711092058986,-3525.4789545419626
1711092059026,-3525.4789545419626
1711092059066,-3525.4789545419626
1711092059106,-3525.4789545419626
1711092059146,-3525.4789545419626
1711092059186,-3525.4789545419626
1711092059226,-3525.4789545419626
1711092059266,-3525.4789545419626
1711092059306,-3525.4789545419626
1711092059346,-3525.4789545419626
1711092059386,-3525.4789545419626
1711092059426,-3525.4789545419626
1711092059466,-3525.4789545419626
1711092059506,-3525.4789545419626
1711092059546,-3525.4789545419626
1711092059586,-2283.441549713025
1711092059626,-2279.7454824403394
1711092059666,-2279.7454824403394
1711092059706,-2279.7454824403394
1711092059746,-2279.7454824403394
1711092059786,-2279.7454824403394
1711092059826,-2279.7454824403394
1711092059866,-2279.7454824403394
1711092059906,-2279.7454824403394
1711092059946,-2279.7454824403394
1711092059986,-3706.513474932639
1711092060026,-3706.513474932639
1711092060066,-3706.513474932639
1711092060106,-3706.513474932639
1711092060146,-3706.513474932639
1711092060186,-3706.513474932639
1711092060226,-3706.513474932639
1711092060266,-3706.513474932639
1711092060306,-3706.513474932639
1711092060346,-3706.513474932639
1711092060386,-4004.990771383047
1711092060426,-4004.990771383047
1711092060466,-4004.990771383047
1711092060506,-4004.990771383047
1711092060546,-4004.990771383047
1711092060586,-4004.990771383047
1711092060626,-4004.990771383047
1711092060666,-4004.990771383047
1711092060706,-4004.990771383047
1711092060746,-4004.990771383047
1711092060786,-4004.990771383047
1711092060826,-4004.990771383047
1711092060866,-4004.990771383047
1711092060906,-4004.990771383047
1711092060946,-4004.990771383047
1711092060986,-4004.990771383047
1711092061026,-4004.990771383047
1711092061066,-4004.990771383047
1711092061106,-4004.990771383047
1711092061146,-4004.990771383047
1711092061186,-4004.990771383047
1711092061226,-5839.158568877727
1711092061266,-5839.158568877727
1711092061306,-5839.158568877727
1711092061346,-5839.158568877727
1711092061386,-5839.158568877727
1711092061426,-5839.158568877727
1711092061466,-5839.158568877727
1711092061506,-5839.158568877727
1711092061546,-5839.158568877727
1711092061586,-5839.158568877727
1711092061626,-5839.158568877727
1711092061666,-5016.729065267369
1711092061706,-5016.729065267369
1711092061746,-5016.729065267369
1711092061786,-5016.729065267369
1711092061826,-5016.729065267369
1711092061866,-5016.729065267369
1711092061906,-5016.729065267369
1711092061946,-5016.729065267369
1711092061986,-5016.729065267369
1711092062026,-5016.729065267369
1711092062066,-4491.761057979194
1711092062106,-3936.9509075062815
1711092062146,-3936.9509075062815
1711092062186,-3936.9509075062815
1711092062226,-3936.9509075062815
1711092062266,-3936.9509075062815
1711092062306,-3936.9509075062815
1711092062346,-3936.9509075062815
1711092062386,-3936.9509075062815
1711092062426,-3936.9509075062815
1711092062466,-3936.9509075062815
1711092062506,-3118.428133008303
1711092062546,-1856.7707968701143
1711092062586,-1856.7707968701143
1711092062626,-1856.7707968701143
1711092062666,-1856.7707968701143
1711092062706,-1856.7707968701143
1711092062746,-1856.7707968701143
1711092062786,-1856.7707968701143
1711092062826,-1856.7707968701143
1711092062866,-1106.4887752635404
1711092062906,-958.852459296817
1711092062946,-283.6970218643546
1711092062986,-94.98535305075347
1711092063026,889.2733502220362
1711092063066,889.2733502220362
1711092063106,889.2733502220362
1711092063146,889.2733502220362
1711092063186,889.2733502220362
1711092063226,889.2733502220362
1711092063266,889.2733502220362
1711092063306,889.2733502220362
1711092063346,889.2733502220362
1711092063386,2233.4168943990953
1711092063426,2233.4168943990953
1711092063466,2233.4168943990953
1711092063506,2233.4168943990953
1711092063546,2233.4168943990953
1711092063586,2233.4168943990953
1711092063626,2233.4168943990953
1711092063666,2233.4168943990953
1711092063706,2233.4168943990953
1711092063746,2233.4168943990953
1711092063786,2233.4168943990953
1711092063826,2898.5906280605122
1711092063866,2898.5906280605122
1711092063906,2898.5906280605122
1711092063946,2898.5906280605122
1711092063986,2898.5906280605122
1711092064026,2898.5906280605122
1711092064066,2898.5906280605122
1711092064106,2898.5906280605122
1711092064146,2898.5906280605122
1711092064186,2898.5906280605122
1711092064226,2898.5906280605122
1711092064266,4267.974276956171
1711092064306,4267.974276956171
1711092064346,4267.974276956171
1711092064386,4267.974276956171
1711092064426,4267.974276956171
1711092064466,4267.974276956171
1711092064506,4267.974276956171
1711092064546,4267.974276956171
1711092064586,4267.974276956171
1711092064626,4267.974276956171
1711092064666,4267.974276956171
1711092064706,2391.717958684312
1711092064746,1544.5546716754325
1711092064786,1544.5546716754325
1711092064826,1544.5546716754325
1711092064866,1544.5546716754325
1711092064906,1544.5546716754325
1711092064946,1544.5546716754325
1711092064986,1544.5546716754325
1711092065026,1544.5546716754325
1711092065066,1544.5546716754325
1711092065106,1544.5546716754325
1711092065146,1544.5546716754325
1711092065186,1737.1752379154786
1711092065226,1737.1752379154786
1711092065266,1737.1752379154786
1711092065306,1737.1752379154786
1711092065346,1737.1752379154786
1711092065386,1737.1752379154786
1711092065426,1737.1752379154786
1711092065466,1737.1752379154786
1711092065506,1737.1752379154786
1711092065546,1737.1752379154786
1711092065586,1737.1752379154786
1711092065626,-1650.2553638322279
1711092065666,-1650.2553638322279
1711092065706,-1650.2553638322279
1711092065746,-1650.2553638322279
1711092065786,-1650.2553638322279
1711092065826,-1650.2553638322279
1711092065866,-1650.2553638322279
1711092065906,-1650.2553638322279
1711092065946,-1650.2553638322279
1711092065986,-1650.2553638322279
1711092066026,-1650.2553638322279
1711092066066,-1709.9359082255978
1711092066106,-1709.9359082255978
1711092066146,-1709.9359082255978
1711092066186,-1709.9359082255978
1711092066226,-1709.9359082255978
1711092066266,-1709.9359082255978
1711092066306,-1709.9359082255978
1711092066346,-1709.9359082255978
1711092066386,-1709.9359082255978
1711092066426,-1709.9359082255978
1711092066466,-1709.9359082255978
1711092066506,-4627.033296298236
1711092066546,-4627.033296298236
1711092066586,-4627.033296298236
1711092066626,-4627.033296298236
1711092066666,-4627.033296298236
1711092066706,-4627.033296298236
1711092066746,-4627.033296298236
1711092066786,-4627.033296298236
1711092066826,-4627.033296298236
1711092066866,-4627.033296298236
1711092066906,-4627.033296298236
1711092066946,-3277.7234778485727
1711092066986,-3277.7234778485727
1711092067026,-3277.7234778485727
1711092067066,-3277.7234778485727
1711092067106,-3277.7234778485727
1711092067146,-3277.7234778485727
1711092067186,-3277.7234778485727
1711092067226,-3277.7234778485727
1711092067266,-3277.7234778485727
1711092067306,-3277.7234778485727
1711092067346,-3277.7234778485727
1711092067386,-4098.835668757791
1711092067426,-6501.27183735813
1711092067466,-6501.27183735813
1711092067506,-6501.27183735813
1711092067546,-6501.27183735813
1711092067586,-6501.27183735813
1711092067626,-6501.27183735813
1711092067666,-6501.27183735813
1711092067706,-6501.27183735813
1711092067746,-6501.27183735813
1711092067786,-6501.27183735813
1711092067826,-6501.27183735813
1711092067866,-6501.27183735813
1711092067906,-6501.27183735813
1711092067946,-6501.27183735813
1711092067986,-6501.27183735813
1711092068026,-6501.27183735813
1711092068066,-6501.27183735813
1711092068106,-6501.27183735813
1711092068146,-6501.27183735813
1711092068186,-6501.27183735813
1711092068226,-6501.27183735813
1711092068266,-7713.732543986291
1711092068306,-7713.732543986291
1711092068346,-7713.732543986291
1711092068386,-7713.732543986291
1711092068426,-7713.732543986291
1711092068466,-7713.732543986291
1711092068506,-7713.732543986291
1711092068546,-7713.732543986291
1711092068586,-7713.732543986291
1711092068626,-7713.732543986291
1711092068666,-7713.732543986291
1711092068706,-7713.732543986291
1711092068746,-7713.732543986291
1711092068786,-7713.732543986291
1711092068826,-7713.732543986291
1711092068866,-7713.732543986291
1711092068906,-7713.732543986291
1711092068946,-7713.732543986291
1711092068986,-7713.732543986291
1711092069026,-7713.732543986291
1711092069066,-7713.732543986291
1711092069106,-8018.104089665227
1711092069146,-10261.277789755724
1711092069186,-10261.277789755724
1711092069226,-10261.277789755724
1711092069266,-10261.277789755724
1711092069306,-10261.277789755724
1711092069346,-10261.277789755724
1711092069386,-10261.277789755724
1711092069426,-10261.277789755724
1711092069466,-10261.277789755724
1711092069506,-10261.277789755724
1711092069546,-10261.277789755724
1711092069586,-10261.277789755724
1711092069626,-10261.277789755724
1711092069665,-10261.277789755724
1711092069706,-10261.277789755724
1711092069746,-10261.277789755724
1711092069786,-10261.277789755724
1711092069826,-10261.277789755724
1711092069866,-10261.277789755724
1711092069906,-10261.277789755724
1711092069946,-10261.277789755724
1711092069987,-12474.665583781898
1711092070027,-12860.525060164044
1711092070067,-12860.525060164044
1711092070107,-12860.525060164044
1711092070147,-12860.525060164044
1711092070188,-12860.525060164044
1711092070227,-12860.525060164044
1711092070267,-12860.525060164044
1711092070307,-12860.525060164044
1711092070347,-12860.525060164044
1711092070388,-12860.525060164044
1711092070428,-13623.508157679578
1711092070468,-13623.508157679578
1711092070508,-13623.508157679578
1711092070548,-13623.508157679578
1711092070589,-13623.508157679578
1711092070628,-13623.508157679578
1711092070668,-13623.508157679578
1711092070708,-13623.508157679578
1711092070748,-13623.508157679578
1711092070789,-13092.7994739844
1711092070829,-12860.525060164044
1711092070869,-11513.073228235124
1711092070909,-11513.073228235124
1711092070949,-11513.073228235124
1711092070990,-11513.073228235124
1711092071029,-11513.073228235124
1711092071069,-11513.073228235124
1711092071109,-11513.073228235124
1711092071149,-11513.073228235124
1711092071190,-11513.073228235124
1711092071230,-11513.073228235124
1711092071270,-11513.073228235124
1711092071310,-11513.073228235124
1711092071350,-11513.073228235124
1711092071391,-11513.073228235124
1711092071430,-11513.073228235124
1711092071470,-11513.073228235124
1711092071510,-11513.073228235124
1711092071551,-11513.073228235124
1711092071591,-11513.073228235124
1711092071631,-11513.073228235124
1711092071671,-11961.592042740202
1711092071711,-11961.592042740202
1711092071751,-11961.592042740202
1711092071792,-11961.592042740202
1711092071831,-11961.592042740202
1711092071872,-11961.592042740202
1711092071912,-11961.592042740202
1711092071952,-11961.592042740202
1711092071993,-11961.592042740202
1711092072032,-11961.592042740202
1711092072072,-11961.592042740202
1711092072112,-11961.592042740202
1711092072153,-11961.592042740202
1711092072193,-11961.592042740202
1711092072233,-11961.592042740202
1711092072273,-11961.592042740202
1711092072313,-11961.592042740202
1711092072353,-11961.592042740202
1711092072394,-11961.592042740202
1711092072434,-11961.592042740202
1711092072474,-11961.592042740202
1711092072514,-12033.262448814232
1711092072554,-12334.185083548073
1711092072595,-12334.185083548073
1711092072634,-12334.185083548073
1711092072674,-12334.185083548073
1711092072714,-12334.185083548073
1711092072755,-12334.185083548073
1711092072795,-12334.185083548073
1711092072835,-12334.185083548073
1711092072875,-12334.185083548073
1711092072915,-12334.185083548073
1711092072955,-12334.185083548073
1711092072996,-12334.185083548073
1711092073035,-12334.185083548073
1711092073075,-12334.185083548073
1711092073116,-12334.185083548073
1711092073156,-12334.185083548073
1711092073196,-12334.185083548073
1711092073236,-12334.185083548073
1711092073276,-12334.185083548073
1711092073316,-11237.561094324104
1711092073356,-10892.84148348542
1711092073397,-10237.552706227638
1711092073437,-9600.236585573293
1711092073477,-9600.236585573293
1711092073517,-9600.236585573293
1711092073557,-9600.236585573293
1711092073598,-9600.236585573293
1711092073637,-9600.236585573293
1711092073677,-9600.236585573293
1711092073717,-9600.236585573293
1711092073757,-9600.236585573293
1711092073798,-9600.236585573293
1711092073838,-9600.236585573293
1711092073877,-9600.236585573293
1711092073918,-9600.236585573293
1711092073958,-9176.529136120342
1711092073999,-9176.529136120342
1711092074038,-9176.529136120342
1711092074078,-8422.255413471023
1711092074118,-8123.62506829761
1711092074158,-7452.1191847622395
1711092074199,-6931.116430633701
1711092074239,-6096.957458104007
1711092074279,-5918.760563898832
1711092074319,-5918.760563898832
1711092074359,-5918.760563898832
1711092074400,-5918.760563898832
1711092074439,-5918.760563898832
1711092074479,-5918.760563898832
1711092074519,-5918.760563898832
1711092074559,-5918.760563898832
1711092074600,-4152.8697644372005
1711092074639,-2514.2314088521525
1711092074679,-2514.2314088521525
1711092074719,-2514.2314088521525
1711092074760,-2514.2314088521525
1711092074800,-2514.2314088521525
1711092074840,-2514.2314088521525
1711092074880,-2514.2314088521525
1711092074920,-2514.2314088521525
1711092074960,-2514.2314088521525
1711092075001,-2514.2314088521525
1711092075040,-1895.1984088895842
1711092075080,-1811.9245920218527
1711092075120,-1811.9245920218527
1711092075161,-1811.9245920218527
1711092075201,-1811.9245920218527
1711092075241,-1811.9245920218527
1711092075281,-1811.9245920218527
1711092075321,-1811.9245920218527
1711092075361,-1811.9245920218527
1711092075402,-1811.9245920218527
1711092075441,-1811.9245920218527
1711092075481,-241.63529948168434
1711092075521,1279.0846617543139
1711092075561,1404.6488735680468
1711092075602,1404.6488735680468
1711092075642,1404.6488735680468
1711092075682,1404.6488735680468
1711092075722,1404.6488735680468
1711092075762,1404.6488735680468
1711092075803,1404.6488735680468
1711092075842,1404.6488735680468
1711092075882,1404.6488735680468
1711092075922,2087.932012937963
1711092075962,3021.9140054464806
1711092076003,3207.144683521241
1711092076042,3207.144683521241
1711092076083,3207.144683521241
1711092076123,3207.144683521241
1711092076163,3207.144683521241
1711092076204,3207.144683521241
1711092076243,3207.144683521241
1711092076283,3207.144683521241
1711092076323,3207.144683521241
1711092076363,3207.144683521241
1711092076404,5113.043635766022
1711092076444,6135.666932093445
1711092076484,6135.666932093445
1711092076524,6135.666932093445
1711092076564,6135.666932093445
1711092076605,6135.666932093445
1711092076644,6135.666932093445
1711092076687,6135.666932093445
1711092076724,6135.666932093445
1711092076764,6135.666932093445
1711092076805,6135.666932093445
1711092076845,6135.666932093445
1711092076885,7057.513629163848
1711092076925,7057.513629163848
1711092076965,7057.513629163848
1711092077006,7057.513629163848
1711092077045,7057.513629163848
1711092077085,7057.513629163848
1711092077125,7057.513629163848
1711092077165,7057.513629163848
1711092077206,7057.513629163848
1711092077246,7057.513629163848
1711092077286,7490.666079536546
1711092077326,8347.69699156098
1711092077366,8347.69699156098
1711092077407,8347.69699156098
1711092077446,8347.69699156098
1711092077486,8347.69699156098
1711092077526,8347.69699156098
1711092077567,8347.69699156098
1711092077607,8347.69699156098
1711092077647,8347.69699156098
1711092077687,8347.69699156098
1711092077727,8347.69699156098
1711092077767,8347.69699156098
1711092077808,8347.69699156098
1711092077847,8347.69699156098
1711092077888,8347.69699156098
1711092077928,8347.69699156098
1711092077968,8347.69699156098
1711092078009,8347.69699156098
1711092078048,8347.69699156098
1711092078088,8347.69699156098
1711092078128,8347.69699156098
1711092078168,9320.042574631749
1711092078209,10708.150363731897
1711092078248,10708.150363731897
1711092078289,10708.150363731897
1711092078329,10708.150363731897
1711092078369,10708.150363731897
1711092078410,10708.150363731897
1711092078449,10708.150363731897
1711092078489,10708.150363731897
1711092078529,10708.150363731897
1711092078569,10708.150363731897
1711092078610,10708.150363731897
1711092078650,8797.153863362968
1711092078690,8385.390186738223
1711092078730,8385.390186738223
1711092078770,8385.390186738223
1711092078811,8385.390186738223
1711092078850,8385.390186738223
1711092078893,8385.390186738223
1711092078930,8385.390186738223
1711092078971,8385.390186738223
1711092079012,8385.390186738223
1711092079051,8385.390186738223
1711092079091,8385.390186738223
1711092079131,8385.390186738223
1711092079171,8385.390186738223
1711092079212,8385.390186738223
1711092079251,8385.390186738223
1711092079291,8385.390186738223
1711092079332,8385.390186738223
1711092079372,8385.390186738223
1711092079413,8385.390186738223
1711092079452,8385.390186738223
1711092079492,8385.390186738223
1711092079532,7689.27883123653
1711092079572,5449.27552165743
1711092079613,5449.27552165743
1711092079653,5449.27552165743
1711092079693,5449.27552165743
1711092079733,5449.27552165743
1711092079773,5449.27552165743
1711092079814,5449.27552165743
1711092079854,5449.27552165743
1711092079894,5449.27552165743
1711092079934,5449.27552165743
1711092079974,5449.27552165743
1711092080015,6760.963621338829
1711092080054,6760.963621338829
1711092080094,6760.963621338829
1711092080135,6760.963621338829
1711092080175,6760.963621338829
1711092080216,6760.963621338829
1711092080255,6760.963621338829
1711092080295,6760.963621338829
1711092080335,6760.963621338829
1711092080375,6760.963621338829
1711092080416,6760.963621338829
1711092080456,6278.302627305733
1711092080496,4494.802780971397
1711092080536,4494.802780971397
1711092080576,4494.802780971397
1711092080617,4494.802780971397
1711092080656,4494.802780971397
1711092080696,4494.802780971397
1711092080736,4494.802780971397
1711092080776,4494.802780971397
1711092080817,4494.802780971397
1711092080856,4494.802780971397
1711092080896,4494.802780971397
1711092080936,4413.556374760345
1711092080976,4413.556374760345
1711092081017,4413.556374760345
1711092081057,4130.397699645255
1711092081100,3946.2422082615085
1711092081137,3946.2422082615085
1711092081177,3946.2422082615085
1711092081218,3946.2422082615085
1711092081257,3946.2422082615085
1711092081297,3946.2422082615085
1711092081337,3589.4015570720658
1711092081377,1387.594509149203
1711092081418,1387.594509149203
1711092081458,1387.594509149203
1711092081498,1387.594509149203
1711092081538,1387.594509149203
1711092081578,1387.594509149203
1711092081619,1387.594509149203
1711092081658,1387.594509149203
1711092081697,1387.594509149203
1711092081737,1387.594509149203
1711092081777,1387.594509149203
1711092081818,1984.9409627385903
1711092081858,1984.9409627385903
1711092081898,1984.9409627385903
1711092081938,1984.9409627385903
1711092081978,1984.9409627385903
1711092082019,1984.9409627385903
1711092082058,1984.9409627385903
1711092082098,1984.9409627385903
1711092082138,1984.9409627385903
1711092082178,1984.9409627385903
1711092082219,1984.9409627385903
1711092082259,240.78346182592213
1711092082299,240.78346182592213
1711092082339,240.78346182592213
1711092082379,240.78346182592213
1711092082420,240.78346182592213
1711092082459,240.78346182592213
1711092082499,240.78346182592213
1711092082539,240.78346182592213
1711092082579,240.78346182592213
1711092082620,240.78346182592213
1711092082659,240.78346182592213
1711092082699,240.78346182592213
1711092082740,240.78346182592213
1711092082780,240.78346182592213
1711092082821,240.78346182592213
1711092082860,240.78346182592213
1711092082900,240.78346182592213
1711092082940,240.78346182592213
1711092082980,240.78346182592213
1711092083021,240.78346182592213
1711092083060,240.78346182592213
1711092083101,-1400.5800416986458
1711092083141,-3477.4479701034725
1711092083181,-3477.4479701034725
1711092083222,-3477.4479701034725
1711092083261,-3477.4479701034725
1711092083301,-3477.4479701034725
1711092083341,-3477.4479701034725
1711092083381,-3477.4479701034725
1711092083422,-3477.4479701034725
1711092083462,-3477.4479701034725
1711092083501,-3477.4479701034725
1711092083542,-3886.6016452510376
1711092083582,-4579.181739523774
1711092083623,-4723.392274232116
1711092083662,-4723.9586793631315
1711092083702,-4723.9586793631315
1711092083742,-4723.9586793631315
1711092083782,-4723.9586793631315
1711092083823,-4723.9586793631315
1711092083862,-4723.9586793631315
1711092083903,-4723.9586793631315
1711092083943,-5051.435458623804
1711092083983,-5710.834981186083
1711092084024,-5710.834981186083
1711092084063,-5710.834981186083
1711092084103,-5710.834981186083
1711092084143,-5710.834981186083
1711092084183,-5710.834981186083
1711092084224,-5710.834981186083
1711092084264,-5710.834981186083
1711092084304,-5710.834981186083
1711092084344,-5710.834981186083
1711092084384,-5710.834981186083
1711092084425,-5710.834981186083
1711092084464,-5710.834981186083
1711092084504,-5710.834981186083
1711092084545,-5710.834981186083
1711092084584,-5710.834981186083
1711092084625,-5710.834981186083
1711092084665,-5710.834981186083
1711092084705,-5710.834981186083
1711092084745,-5022.77715263865
1711092084785,-4282.023232189473
1711092084826,-4143.772472681012
1711092084865,-3662.3523652721196
1711092084906,-3662.3523652721196
1711092084946,-3662.3523652721196
1711092084986,-3662.3523652721196
1711092085027,-3662.3523652721196
1711092085066,-3662.3523652721196
1711092085106,-3662.3523652721196
1711092085146,-3662.3523652721196
1711092085186,-3662.3523652721196
1711092085227,-2473.188411283307
1711092085267,-2473.188411283307
1711092085307,-2473.188411283307
1711092085347,-2473.188411283307
1711092085387,-2473.188411283307
1711092085428,-2473.188411283307
1711092085467,-2473.188411283307
1711092085507,-2473.188411283307
1711092085547,-2473.188411283307
1711092085588,-2473.188411283307
1711092085629,-2473.188411283307
1711092085668,-2984.710385362385
1711092085708,-2984.710385362385
1711092085748,-2984.710385362385
1711092085788,-2984.710385362385
1711092085829,-2984.710385362385
1711092085869,-2984.710385362385
1711092085909,-2984.710385362385
1711092085949,-2984.710385362385
1711092085989,-2984.710385362385
1711092086030,-2984.710385362385
1711092086069,-2984.710385362385
1711092086109,-1997.9587743869051
1711092086149,-1997.9587743869051
1711092086189,-1997.9587743869051
1711092086230,-1997.9587743869051
1711092086270,-1997.9587743869051
1711092086310,-1997.9587743869051
1711092086350,-1997.9587743869051
1711092086390,-1997.9587743869051
1711092086431,-1997.9587743869051
1711092086470,-1997.9587743869051
1711092086510,-1997.9587743869051
1711092086550,-1791.8723468289245
1711092086591,-1791.8723468289245
1711092086631,-1791.8723468289245
1711092086671,-1791.8723468289245
1711092086711,-1791.8723468289245
1711092086751,-1791.8723468289245
1711092086791,-1791.8723468289245
1711092086832,-1791.8723468289245
1711092086871,-1791.8723468289245
1711092086912,-1791.8723468289245
1711092086952,-1336.404212422669
1711092086992,-1336.404212422669
1711092087033,-1336.404212422669
1711092087072,-795.6537648253143
1711092087112,-795.6537648253143
1711092087152,-795.6537648253143
1711092087193,-795.6537648253143
1711092087233,-787.3564658961259
1711092087273,-761.60203086189
1711092087313,-303.17055178713053
1711092087353,39.14779534097761
1711092087393,1120.7840118850581
1711092087434,1226.2862282777205
1711092087473,1482.458748568315
1711092087513,1482.458748568315
1711092087553,1482.458748568315
1711092087593,1482.458748568315
1711092087634,1482.458748568315
1711092087674,1482.458748568315
1711092087714,1482.458748568315
1711092087754,2192.995949690696
1711092087794,2192.995949690696
1711092087835,2192.995949690696
1711092087874,2192.995949690696
1711092087914,2192.995949690696
1711092087954,2192.995949690696
1711092087994,2192.995949690696
1711092088035,2192.995949690696
1711092088074,2192.995949690696
1711092088115,2192.995949690696
1711092088155,2192.995949690696
1711092088195,2006.2732943193987
1711092088236,2006.2732943193987
1711092088275,2006.2732943193987
1711092088315,2006.2732943193987
1711092088355,2006.2732943193987
1711092088395,2006.2732943193987
1711092088436,2006.2732943193987
1711092088475,2006.2732943193987
1711092088516,2006.2732943193987
1711092088556,2006.2732943193987
1711092088596,899.3163613541983
1711092088637,899.3163613541983
1711092088676,899.3163613541983
1711092088716,899.3163613541983
1711092088756,899.3163613541983
1711092088796,899.3163613541983
1711092088837,899.3163613541983
1711092088876,899.3163613541983
1711092088916,899.3163613541983
1711092088956,899.3163613541983
1711092088997,-1249.7347602238879
1711092089037,-1249.7347602238879
1711092089077,-1249.7347602238879
1711092089117,-1249.7347602238879
1711092089157,-1249.7347602238879
1711092089197,-1249.7347602238879
1711092089238,-1249.7347602238879
1711092089277,-1249.7347602238879
1711092089317,-1249.7347602238879
1711092089358,-1249.7347602238879
1711092089398,-1249.7347602238879
1711092089438,-1830.5777244023047
1711092089478,-1830.5777244023047
1711092089518,-1830.5777244023047
1711092089558,-1830.5777244023047
1711092089598,-1830.5777244023047
1711092089639,-1830.5777244023047
1711092089678,-1830.5777244023047
1711092089718,-1830.5777244023047
1711092089758,-1830.5777244023047
1711092089799,-1830.5777244023047
1711092089839,-2257.4784374162555
1711092089879,-2257.4784374162555
1711092089919,-2257.4784374162555
1711092089959,-2257.4784374162555
1711092089999,-2257.4784374162555
1711092090040,-2257.4784374162555
1711092090079,-2257.4784374162555
1711092090119,-2257.4784374162555
1711092090159,-2257.4784374162555
1711092090200,-2257.4784374162555
1711092090240,-2770.250659998972
1711092090280,-3879.677079593297
1711092090320,-4105.731065597618
1711092090360,-4105.731065597618
1711092090400,-4105.731065597618
1711092090441,-4105.731065597618
1711092090480,-4105.731065597618
1711092090520,-4105.731065597618
1711092090561,-4105.731065597618
1711092090601,-4105.731065597618
1711092090641,-4347.751685226569
1711092090681,-4401.653636445291
1711092090721,-4401.653636445291
1711092090761,-4401.653636445291
1711092090801,-4401.653636445291
1711092090842,-4401.653636445291
1711092090882,-4401.653636445291
1711092090922,-4401.653636445291
1711092090962,-4401.653636445291
1711092091002,-4401.653636445291
1711092091043,-4401.653636445291
1711092091082,-4401.653636445291
1711092091122,-3003.193735848181
1711092091162,-3003.193735848181
1711092091202,-3003.193735848181
1711092091243,-3003.193735848181
1711092091283,-3003.193735848181
1711092091323,-3003.193735848181
1711092091363,-3003.193735848181
1711092091403,-3003.193735848181
1711092091444,-3003.193735848181
1711092091483,-3003.193735848181
1711092091523,-2827.992235889891
1711092091563,-2827.992235889891
1711092091603,-2827.992235889891
1711092091644,-2827.992235889891
1711092091684,-2827.992235889891
1711092091724,-2827.992235889891
1711092091764,-2827.992235889891
1711092091804,-2827.992235889891
1711092091845,-2827.992235889891
1711092091884,-2827.992235889891
1711092091924,-2827.992235889891
1711092091964,-1480.6244753070641
1711092092005,-1480.6244753070641
1711092092045,-1480.6244753070641
1711092092085,-1480.6244753070641
1711092092125,-1480.6244753070641
1711092092165,-1480.6244753070641
1711092092205,-1480.6244753070641
1711092092246,-1480.6244753070641
1711092092285,-1480.6244753070641
1711092092326,-1480.6244753070641
1711092092366,-1480.6244753070641
1711092092406,-2626.2819295616355
1711092092447,-2644.9460147637874
1711092092486,-2644.9460147637874
1711092092526,-2644.9460147637874
1711092092566,-2644.9460147637874
1711092092607,-2644.9460147637874
1711092092647,-2644.9460147637874
1711092092687,-2644.9460147637874
1711092092727,-2644.9460147637874
1711092092767,-2644.9460147637874
1711092092807,-2644.9460147637874
1711092092848,-2644.9460147637874
1711092092887,-1598.641392041929
1711092092928,-1598.641392041929
1711092092968,-1598.641392041929
1711092093008,-1598.641392041929
1711092093049,-1598.641392041929
1711092093088,-1598.641392041929
1711092093128,-1598.641392041929
1711092093168,-1598.641392041929
1711092093209,-1399.3934020432644
1711092093249,-1150.3285677784588
1711092093289,-111.01332194637507
1711092093329,-93.7529193602968
1711092093369,1047.4208025545813
1711092093409,1047.4208025545813
1711092093450,1047.4208025545813
1711092093490,1047.4208025545813
1711092093530,1047.4208025545813
1711092093570,1047.4208025545813
1711092093610,1047.4208025545813
1711092093651,1047.4208025545813
1711092093690,1047.4208025545813
1711092093732,1047.4208025545813
1711092093772,1047.4208025545813
1711092093813,1047.4208025545813
1711092093854,1047.4208025545813
1711092093893,1047.4208025545813
1711092093933,1047.4208025545813
1711092093973,1047.4208025545813
1711092094013,1047.4208025545813
1711092094054,1047.4208025545813
1711092094093,1047.4208025545813
1711092094134,1581.2654551949818
1711092094174,1581.2654551949818
1711092094214,1581.2654551949818
1711092094255,1581.2654551949818
1711092094294,1581.2654551949818
1711092094334,1581.2654551949818
1711092094374,1581.2654551949818
1711092094414,1581.2654551949818
1711092094455,1581.2654551949818
1711092094494,1581.2654551949818
1711092094535,1581.2654551949818
1711092094575,1581.2654551949818
1711092094615,1581.2654551949818
1711092094656,1581.2654551949818
1711092094695,1581.2654551949818
1711092094735,1581.2654551949818
1711092094775,1581.2654551949818
1711092094815,1581.2654551949818
1711092094856,1581.2654551949818
1711092094895,1581.2654551949818
1711092094935,1581.2654551949818
1711092094975,-902.6892109126784
1711092095016,-1378.6061434657313
1711092095056,-1378.6061434657313
1711092095096,-1378.6061434657313
1711092095136,-1378.6061434657313
1711092095176,-1378.6061434657313
1711092095216,-1378.6061434657313
1711092095257,-1378.6061434657313
1711092095296,-1378.6061434657313
1711092095336,-1378.6061434657313
1711092095377,-1378.6061434657313
1711092095417,-2489.8243250180967
1711092095457,-2582.6380204968154
1711092095497,-2582.6380204968154
1711092095537,-2582.6380204968154
1711092095577,-2582.6380204968154
1711092095617,-2582.6380204968154
1711092095658,-2582.6380204968154
1711092095697,-2582.6380204968154
1711092095738,-2582.6380204968154
1711092095778,-2582.6380204968154
1711092095818,-2923.539325306192
1711092095859,-4156.327908323146
1711092095898,-4156.327908323146
1711092095938,-4156.327908323146
1711092095978,-4156.327908323146
1711092096019,-4156.327908323146
1711092096059,-4156.327908323146
1711092096099,-4156.327908323146
1711092096139,-4156.327908323146
1711092096179,-4156.327908323146
1711092096219,-4156.327908323146
1711092096260,-5264.186690735398
1711092096299,-5264.186690735398
1711092096339,-5264.186690735398
1711092096379,-5264.186690735398
1711092096420,-5264.186690735398
1711092096460,-5264.186690735398
1711092096500,-5264.186690735398
1711092096540,-5264.186690735398
1711092096580,-5264.186690735398
1711092096620,-5264.186690735398
1711092096661,-7135.615995774046
1711092096700,-7689.649762316374
1711092096740,-7689.649762316374
1711092096780,-7689.649762316374
1711092096821,-7689.649762316374
1711092096861,-7689.649762316374
1711092096901,-7689.649762316374
1711092096941,-7689.649762316374
1711092096981,-7689.649762316374
1711092097021,-7689.649762316374
1711092097062,-7689.649762316374
1711092097102,-9113.261897363001
1711092097142,-9113.261897363001
1711092097182,-9113.261897363001
1711092097222,-9113.261897363001
1711092097263,-9113.261897363001
1711092097302,-9113.261897363001
1711092097342,-9113.261897363001
1711092097382,-9113.261897363001
1711092097423,-9113.261897363001
1711092097463,-9113.261897363001
1711092097503,-10436.190013510175
1711092097543,-10436.190013510175
1711092097583,-10436.190013510175
1711092097623,-10436.190013510175
1711092097664,-10436.190013510175
1711092097703,-10436.190013510175
1711092097744,-10436.190013510175
1711092097784,-10436.190013510175
1711092097824,-10436.190013510175
1711092097865,-10436.190013510175
1711092097904,-10436.190013510175
1711092097944,-11278.95088637527
1711092097984,-11278.95088637527
1711092098024,-11278.95088637527
1711092098065,-11278.95088637527
1711092098105,-11278.95088637527
1711092098145,-11278.95088637527
1711092098185,-11278.95088637527
1711092098225,-11278.95088637527
1711092098266,-11278.95088637527
1711092098305,-11278.95088637527
1711092098345,-11278.95088637527
1711092098386,-12338.53655358241
1711092098425,-12338.53655358241
1711092098466,-12338.53655358241
1711092098506,-12338.53655358241
1711092098546,-12338.53655358241
1711092098586,-12338.53655358241
1711092098626,-12338.53655358241
1711092098667,-12338.53655358241
1711092098706,-12338.53655358241
1711092098747,-12338.53655358241
1711092098787,-12338.53655358241
1711092098827,-10447.235343733802
1711092098868,-10447.235343733802
1711092098907,-10447.235343733802
1711092098947,-10447.235343733802
1711092098987,-10447.235343733802
1711092099027,-10447.235343733802
1711092099068,-10447.235343733802
1711092099108,-10447.235343733802
1711092099148,-10447.235343733802
1711092099188,-9476.3966950248
1711092099228,-9282.214598143706
1711092099269,-8815.601711606374
1711092099308,-7852.245978687191
1711092099348,-7852.245978687191
1711092099388,-7852.245978687191
1711092099429,-7852.245978687191
1711092099470,-7852.245978687191
1711092099509,-7852.245978687191
1711092099549,-7852.245978687191
1711092099589,-7852.245978687191
1711092099629,-7852.245978687191
1711092099670,-6232.579648402287
1711092099710,-5942.28836527653
1711092099750,-5942.28836527653
1711092099790,-5942.28836527653
1711092099830,-5942.28836527653
1711092099871,-5942.28836527653
1711092099910,-5942.28836527653
1711092099950,-5942.28836527653
1711092099990,-5942.28836527653
1711092100031,-5009.366055251798
1711092100072,-4303.449660371523
1711092100111,-3928.991171941627
1711092100151,-3027.986456339946
1711092100191,-2852.36552248057
1711092100231,-2852.36552248057
1711092100272,-2852.36552248057
1711092100311,-2852.36552248057
1711092100351,-2852.36552248057
1711092100392,-2852.36552248057
1711092100432,-2852.36552248057
1711092100473,-2852.36552248057
1711092100512,-1166.3028380076867
1711092100552,-1166.3028380076867
1711092100592,-1166.3028380076867
1711092100632,-1166.3028380076867
1711092100673,-970.5782512840815
1711092100712,-970.5782512840815
1711092100752,-970.5782512840815
1711092100792,-970.5782512840815
1711092100832,-930.6685865048785
1711092100873,-698.5549510437995
1711092100913,35.566145659890026
1711092100953,323.25591361662373
1711092100993,1197.7448069443926
1711092101033,1197.7448069443926
1711092101073,1197.7448069443926
1711092101113,1197.7448069443926
1711092101153,1197.7448069443926
1711092101193,1197.7448069443926
1711092101233,1197.7448069443926
1711092101274,1197.7448069443926
1711092101313,1197.7448069443926
1711092101353,2768.916900952114
1711092101394,2768.916900952114
1711092101433,2768.916900952114
1711092101474,2768.916900952114
1711092101514,2768.916900952114
1711092101554,2768.916900952114
1711092101594,2768.916900952114
1711092101634,2768.916900952114
1711092101675,2768.916900952114
1711092101714,2768.916900952114
1711092101754,2768.916900952114
1711092101794,3874.7110011882614
1711092101834,3874.7110011882614
1711092101875,3874.7110011882614
1711092101915,3874.7110011882614
1711092101955,3874.7110011882614
1711092101995,3874.7110011882614
1711092102035,3874.7110011882614
1711092102076,3874.7110011882614
1711092102115,3874.7110011882614
1711092102155,3874.7110011882614
1711092102195,3874.7110011882614
1711092102235,4649.33842274081
1711092102276,5471.283957628068
1711092102316,5471.283957628068
1711092102356,5471.283957628068
1711092102396,5471.283957628068
1711092102436,5710.779863261618
1711092102477,5766.0459437433165
1711092102516,5766.0459437433165
1711092102556,5766.0459437433165
1711092102596,5766.0459437433165
1711092102636,5833.815057215048
1711092102677,6212.6541698705405
1711092102717,7643.9469115508255
1711092102756,7643.9469115508255
1711092102797,7643.9469115508255
1711092102837,7643.9469115508255
1711092102877,7643.9469115508255
1711092102917,7643.9469115508255
1711092102957,7643.9469115508255
1711092102997,7643.9469115508255
1711092103037,7643.9469115508255
1711092103078,7643.9469115508255
1711092103117,7643.9469115508255
1711092103157,7643.9469115508255
1711092103198,7643.9469115508255
1711092103238,7643.9469115508255
1711092103278,7643.9469115508255
1711092103318,7643.9469115508255
1711092103358,7643.9469115508255
1711092103398,7643.9469115508255
1711092103438,7643.9469115508255
1711092103479,7643.9469115508255
1711092103518,6162.852573204553
1711092103558,6161.063520098571
1711092103598,6161.063520098571
1711092103638,6161.063520098571
1711092103679,6161.063520098571
1711092103719,6161.063520098571
1711092103759,6161.063520098571
1711092103799,6161.063520098571
1711092103839,6161.063520098571
1711092103880,6161.063520098571
1711092103919,6161.063520098571
1711092103959,6161.063520098571
1711092103999,6161.063520098571
1711092104039,6161.063520098571
1711092104080,6161.063520098571
1711092104119,6161.063520098571
1711092104160,6161.063520098571
1711092104200,6161.063520098571
1711092104240,6161.063520098571
1711092104281,6161.063520098571
1711092104320,6161.063520098571
1711092104360,6161.063520098571
1711092104400,3538.961435665842
1711092104440,3320.1786430440843
1711092104481,3320.1786430440843
1711092104521,3320.1786430440843
1711092104561,3320.1786430440843
1711092104601,3320.1786430440843
1711092104641,3320.1786430440843
1711092104682,3320.1786430440843
1711092104721,3320.1786430440843
1711092104761,3320.1786430440843
1711092104801,3320.1786430440843
1711092104841,3320.1786430440843
1711092104882,3538.9870501228143
1711092104921,3538.9870501228143
1711092104962,3538.9870501228143
1711092105002,3538.9870501228143
1711092105042,3538.9870501228143
1711092105083,3538.9870501228143
1711092105122,3538.9870501228143
1711092105162,3538.9870501228143
1711092105202,3538.9870501228143
1711092105243,3538.9870501228143
1711092105283,3538.9870501228143
1711092105323,988.227918169694
1711092105363,440.9169541420415
1711092105403,440.9169541420415
1711092105443,440.9169541420415
1711092105484,440.9169541420415
1711092105523,440.9169541420415
1711092105563,440.9169541420415
1711092105604,440.9169541420415
1711092105643,440.9169541420415
1711092105684,440.9169541420415
1711092105724,440.9169541420415
1711092105763,440.9169541420415
1711092105803,440.9169541420415
1711092105843,440.9169541420415
1711092105884,440.9169541420415
1711092105923,440.9169541420415
1711092105963,440.9169541420415
1711092106003,440.9169541420415
1711092106044,440.9169541420415
1711092106084,440.9169541420415
1711092106124,440.9169541420415
1711092106164,440.9169541420415
1711092106204,-939.6376535263844
1711092106244,-939.6376535263844
1711092106285,-939.6376535263844
1711092106324,-939.6376535263844
1711092106364,-939.6376535263844
1711092106405,-939.6376535263844
1711092106445,-939.6376535263844
1711092106486,-939.6376535263844
1711092106525,-939.6376535263844
1711092106565,-939.6376535263844
1711092106605,-939.6376535263844
1711092106646,242.97883579391055
1711092106686,242.97883579391055
1711092106726,242.97883579391055
1711092106766,242.97883579391055
1711092106806,242.97883579391055
1711092106846,242.97883579391055
1711092106887,242.97883579391055
1711092106926,242.97883579391055
1711092106966,242.97883579391055
1711092107006,242.97883579391055
1711092107047,242.97883579391055
1711092107087,-2725.339694537688
1711092107127,-4209.105331927072
1711092107167,-4209.105331927072
1711092107207,-4209.105331927072
1711092107247,-4209.105331927072
1711092107288,-4209.105331927072
1711092107327,-4209.105331927072
1711092107368,-4209.105331927072
1711092107408,-4209.105331927072
1711092107448,-4209.105331927072
1711092107489,-4209.105331927072
1711092107528,-4209.105331927072
1711092107568,-3210.756397998426
1711092107608,-3210.756397998426
1711092107649,-3210.756397998426
1711092107689,-3210.756397998426
1711092107729,-3210.756397998426
1711092107769,-3210.756397998426
1711092107809,-3210.756397998426
1711092107849,-3210.756397998426
1711092107890,-3210.756397998426
1711092107929,-3210.756397998426
1711092107969,-3210.756397998426
1711092108010,-5745.963062927825
