Timestamp,Cleaned PPG
1712819459558,0.0
1712819459596,0.0
1712819459637,0.0
1712819459676,0.0
1712819459716,0.0
1712819459756,0.0
1712819459797,0.0
1712819459838,0.0
1712819459877,0.0
1712819459917,0.0
1712819459957,0.0
1712819459997,0.0
1712819460039,0.0
1712819460078,0.0
1712819460118,0.0
1712819460158,0.0
1712819460198,0.0
1712819460239,0.0
1712819460279,0.0
1712819460319,0.0
1712819460359,0.0
1712819460399,0.0
1712819460440,0.0
1712819460479,0.0
1712819460519,0.0
1712819460560,0.0
1712819460599,0.0
1712819460641,0.0
1712819460680,0.0
1712819460720,0.0
1712819460760,0.0
1712819460800,0.0
1712819460841,1183914.1000010297
1712819460880,1183914.1000010297
1712819460921,1183914.1000010297
1712819460961,1183914.1000010297
1712819461001,1183914.1000010297
1712819461042,1183914.1000010297
1712819461081,1183914.1000010297
1712819461121,1183914.1000010297
1712819461161,1183914.1000010297
1712819461201,1183914.1000010297
1712819461242,1183914.1000010297
1712819461282,1114900.1906969573
1712819461322,1050444.1903878492
1712819461362,989332.754794209
1712819461402,933103.9692992263
1712819461443,879394.8508719872
1712819461482,827391.4470673224
1712819461522,773368.6275339127
1712819461562,719130.6213095887
1712819461602,670692.9484401306
1712819461644,625017.7363043162
1712819461683,583524.5373995984
1712819461723,547301.7718486064
1712819461766,512986.95023560245
1712819461803,481922.0709523293
1712819461844,453112.01356591284
1712819461883,428281.7999678408
1712819461923,403728.5143729658
1712819461963,381358.2667163233
1712819462004,360762.6924602685
1712819462045,336821.90919906786
1712819462084,306432.4647848755
1712819462124,275241.0409733099
1712819462164,241397.66373526677
1712819462204,213450.3096099971
1712819462245,192427.41092635226
1712819462284,186043.7449608387
1712819462325,182300.84218818787
1712819462365,165735.89569901768
1712819462405,156076.43601901922
1712819462446,135635.48602915555
1712819462485,115953.49443094293
1712819462525,115311.23670254787
1712819462565,114064.29678046983
1712819462606,113902.79817177821
1712819462647,111532.22176477313
1712819462686,107883.44701837935
1712819462726,105079.59525157278
1712819462766,104816.8292908473
1712819462806,101065.18358764239
1712819462847,100133.72247249959
1712819462887,96418.55471481942
1712819462927,95291.62106269319
1712819462967,95291.62106269319
1712819463007,95291.62106269319
1712819463048,95291.62106269319
1712819463087,95291.62106269319
1712819463127,95291.62106269319
1712819463167,95291.62106269319
1712819463208,95291.62106269319
1712819463249,95291.62106269319
1712819463288,95291.62106269319
1712819463328,96349.11475069914
1712819463368,96418.55471481942
1712819463408,96418.55471481942
1712819463449,96418.55471481942
1712819463489,96418.55471481942
1712819463529,96418.55471481942
1712819463569,96418.55471481942
1712819463609,96349.11475069914
1712819463650,96349.11475069914
1712819463689,96349.11475069914
1712819463729,96349.11475069914
1712819463769,96349.11475069914
1712819463810,86567.25761888176
1712819463850,33105.888450025115
1712819463890,-16572.309344459325
1712819463930,-36125.81078671664
1712819463973,-37405.9029641496
1712819464011,-41574.11219054926
1712819464052,-42740.312434447
1712819464091,-44496.65699996147
1712819464132,-45562.250919151586
1712819464172,-59266.296546907164
1712819464212,-71941.94448513817
1712819464253,-82914.42306991015
1712819464293,-92020.17969518993
1712819464333,-99903.89876946062
1712819464373,-102657.29666370805
1712819464414,-104213.34207416419
1712819464454,-105282.41965522803
1712819464494,-112241.79785828898
1712819464534,-117658.66737579368
1712819464574,-118575.91932291538
1712819464615,-118794.2373611601
1712819464656,-119849.02032280061
1712819464695,-121551.67699709255
1712819464735,-121551.67699709255
1712819464776,-121551.67699709255
1712819464816,-121551.67699709255
1712819464857,-121551.67699709255
1712819464897,-121551.67699709255
1712819464937,-118575.91932291538
1712819464977,-117658.66737579368
1712819465017,-112241.79785828898
1712819465058,-102657.29666370805
1712819465098,-99903.89876946062
1712819465138,-99537.97641495056
1712819465178,-65222.50873750681
1712819465219,-65155.9823227569
1712819465260,-65035.341995762894
1712819465299,-64405.36622718349
1712819465339,-59243.81560060172
1712819465380,-59243.81560060172
1712819465420,-59243.81560060172
1712819465460,-59243.81560060172
1712819465500,-59243.81560060172
1712819465540,-59243.81560060172
1712819465580,-59243.81560060172
1712819465621,-59243.81560060172
1712819465661,-61166.88272554055
1712819465701,-65035.341995762894
1712819465741,-65035.341995762894
1712819465781,-65035.341995762894
1712819465821,-75534.12405615556
1712819465862,-75534.12405615556
1712819465902,-75534.12405615556
1712819465942,-75534.12405615556
1712819465982,-75534.12405615556
1712819466022,-75534.12405615556
1712819466063,-75534.12405615556
1712819466103,-75534.12405615556
1712819466143,-75534.12405615556
1712819466183,-75534.12405615556
1712819466223,-75534.12405615556
1712819466264,-69414.70465142839
1712819466303,-63329.98452275852
1712819466344,-60515.68172162492
1712819466384,-39737.37311056
1712819466424,-30374.771855445113
1712819466465,-30374.771855445113
1712819466505,-29620.17546696239
1712819466545,-29620.17546696239
1712819466585,-29177.211897723842
1712819466625,-26640.047169604804
1712819466666,-24203.08334199316
1712819466706,-24203.08334199316
1712819466746,-22990.16600337648
1712819466786,-22381.582170010544
1712819466827,-21788.96480389079
1712819466867,-18242.30887980014
1712819466907,-18164.983915171353
1712819466947,-16398.240855013486
1712819466988,-16398.240855013486
1712819467029,-16398.240855013486
1712819467070,-16398.240855013486
1712819467109,-16398.240855013486
1712819467149,-16398.240855013486
1712819467190,-21788.96480389079
1712819467230,-16398.240855013486
1712819467271,-15866.634673018474
1712819467310,-15866.634673018474
1712819467351,-15866.634673018474
1712819467391,-8404.65888946876
1712819467431,-5434.905004910193
1712819467472,-4235.492235831451
1712819467512,-2677.331115412526
1712819467552,-2655.2532963135745
1712819467592,-2284.1718959771097
1712819467632,-2053.223451347556
1712819467673,-1038.868550003972
1712819467713,2714.5096870106645
1712819467753,2714.5096870106645
1712819467794,2714.5096870106645
1712819467834,2714.5096870106645
1712819467875,2714.5096870106645
1712819467914,2714.5096870106645
1712819467954,7569.702486665687
1712819467995,11085.769242979586
1712819468035,16255.225573027274
1712819468076,21266.661203064956
1712819468115,21266.661203064956
1712819468156,21266.661203064956
1712819468196,21266.661203064956
1712819468236,21266.661203064956
1712819468277,21266.661203064956
1712819468317,21266.661203064956
1712819468357,21266.661203064956
1712819468397,21266.661203064956
1712819468437,21266.661203064956
1712819468478,21266.661203064956
1712819468518,17335.134548783768
1712819468558,13354.230479562422
1712819468598,13354.230479562422
1712819468639,13354.230479562422
1712819468680,13354.230479562422
1712819468719,13354.230479562422
1712819468760,13354.230479562422
1712819468800,13354.230479562422
1712819468840,13354.230479562422
1712819468881,13354.230479562422
1712819468920,13354.230479562422
1712819468960,13354.230479562422
1712819469001,16412.604445610894
1712819469041,16412.604445610894
1712819469081,16412.604445610894
1712819469121,16412.604445610894
1712819469161,16412.604445610894
1712819469201,16412.604445610894
1712819469242,16412.604445610894
1712819469282,16412.604445610894
1712819469322,16412.604445610894
1712819469362,16412.604445610894
1712819469402,20277.275312379934
1712819469442,20341.44570323266
1712819469483,22992.879970605485
1712819469523,22992.879970605485
1712819469563,22992.879970605485
1712819469603,22992.879970605485
1712819469643,22992.879970605485
1712819469684,22992.879970605485
1712819469724,22992.879970605485
1712819469764,22992.879970605485
1712819469804,22992.879970605485
1712819469844,35250.694462843705
1712819469885,42011.424798486056
1712819469925,42011.424798486056
1712819469965,42011.424798486056
1712819470005,42011.424798486056
1712819470045,42011.424798486056
1712819470086,42011.424798486056
1712819470126,42011.424798486056
1712819470166,42011.424798486056
1712819470206,42011.424798486056
1712819470247,42011.424798486056
1712819470288,42011.424798486056
1712819470328,28130.01376264752
1712819470369,16896.730907923775
1712819470409,16896.730907923775
1712819470449,16896.730907923775
1712819470490,16896.730907923775
1712819470530,16896.730907923775
1712819470570,16896.730907923775
1712819470610,16896.730907923775
1712819470650,16628.56204146752
1712819470692,14722.48203360429
1712819470731,13403.74178402382
1712819470771,12928.75836385414
1712819470812,12459.506868459051
1712819470852,9852.146033284022
1712819470893,9064.574165923987
1712819470932,6666.651286682347
1712819470972,6666.651286682347
1712819471013,6666.651286682347
1712819471053,6666.651286682347
1712819471094,1782.4736627014354
1712819471133,1782.4736627014354
1712819471174,1782.4736627014354
1712819471214,1782.4736627014354
1712819471254,1782.4736627014354
1712819471295,-2275.1970339871477
1712819471335,-2275.1970339871477
1712819471375,-2275.1970339871477
1712819471415,-2275.1970339871477
1712819471455,-2275.1970339871477
1712819471496,-2275.1970339871477
1712819471536,-2275.1970339871477
1712819471576,2228.3681145880837
1712819471614,4520.399546931731
1712819471654,9040.827432591934
1712819471695,11960.583415569272
1712819471735,12768.380080920877
1712819471775,15416.429658092558
1712819471815,17813.652706447756
1712819471855,18663.01048713387
1712819471896,18908.26773062139
1712819471936,21231.743323151022
1712819471976,21231.743323151022
1712819472016,21231.743323151022
1712819472056,21231.743323151022
1712819472097,21231.743323151022
1712819472137,22038.007194182603
1712819472177,22297.06410957547
1712819472217,26582.728840898722
1712819472257,31574.107480237726
1712819472298,35180.709977637045
1712819472337,36007.068531610304
1712819472378,37163.54966903478
1712819472418,37163.54966903478
1712819472458,37163.54966903478
1712819472499,37163.54966903478
1712819472538,37163.54966903478
1712819472578,39431.79451190308
1712819472619,41893.61832328234
1712819472659,55738.70177023113
1712819472700,56484.17364317272
1712819472741,61682.60609276127
1712819472781,63540.04239206808
1712819472821,64215.971249906346
1712819472861,65572.88264626986
1712819472902,65572.88264626986
1712819472942,64215.971249906346
1712819472982,63540.04239206808
1712819473022,63472.40076742321
1712819473062,61682.60609276127
1712819473103,55738.70177023113
1712819473143,45300.401206124574
1712819473183,39431.79451190308
1712819473223,23992.28235839121
1712819473263,23992.28235839121
1712819473304,34848.892572879326
1712819473344,38047.28700558096
1712819473384,38047.28700558096
1712819473424,36728.525854602456
1712819473465,36331.28148883302
1712819473506,34848.892572879326
1712819473545,32603.237875638064
1712819473585,25138.29465416167
1712819473625,25138.29465416167
1712819473666,23992.28235839121
1712819473708,22545.40172235854
1712819473747,22149.360301032662
1712819473787,19040.115600198507
1712819473828,14591.976943427697
1712819473868,14591.976943427697
1712819473909,14591.976943427697
1712819473948,14591.976943427697
1712819473988,14591.976943427697
1712819474029,14591.976943427697
1712819474069,14591.976943427697
1712819474110,4822.667044001631
1712819474149,-1464.810370033607
1712819474190,-3153.42918523401
1712819474230,-3153.42918523401
1712819474270,-3153.42918523401
1712819474311,-3153.42918523401
1712819474351,-3153.42918523401
1712819474391,-3153.42918523401
1712819474431,-3153.42918523401
1712819474472,-3153.42918523401
1712819474513,-3153.42918523401
1712819474552,-4299.245441806968
1712819474592,-6130.5926231206395
1712819474633,-9178.363731737249
1712819474673,-9525.562973963097
1712819474714,-9525.562973963097
1712819474754,-9525.562973963097
1712819474794,-9178.363731737249
1712819474834,-6130.5926231206395
1712819474874,1136.1404688041657
1712819474916,7791.617296707351
1712819474955,14215.440340051427
1712819474995,15703.455891759135
1712819475036,21203.25455333013
1712819475076,23906.54706073273
1712819475117,25542.904316831846
1712819475156,25542.904316831846
1712819475196,25542.904316831846
1712819475236,25542.904316831846
1712819475277,23906.54706073273
1712819475318,22835.99439858226
1712819475357,22835.99439858226
1712819475397,22835.99439858226
1712819475437,22835.99439858226
1712819475477,22835.99439858226
1712819475518,22835.99439858226
1712819475558,22835.99439858226
1712819475598,22835.99439858226
1712819475638,22835.99439858226
1712819475678,21203.25455333013
1712819475719,11027.075891552493
1712819475759,-287.43998530413955
1712819475799,-7787.028356811963
1712819475839,-14446.53944286285
1712819475879,-14446.53944286285
1712819475920,-14446.53944286285
1712819475959,-14446.53944286285
1712819476000,-14446.53944286285
1712819476040,-14446.53944286285
1712819476080,-14446.53944286285
1712819476121,-14446.53944286285
1712819476160,-14446.53944286285
1712819476201,-14446.53944286285
1712819476241,-14446.53944286285
1712819476281,-10935.54813103797
1712819476322,-10189.117938064039
1712819476362,-9326.330086763017
1712819476402,-7768.470282348804
1712819476442,-2763.7674057288095
1712819476482,-754.1694041802548
1712819476523,1111.0201275181025
1712819476563,3038.9938732795417
1712819476603,4265.281382952351
1712819476643,5421.459514008369
1712819476683,5896.9989315494895
1712819476724,6016.775413032621
1712819476764,7779.638020589948
1712819476804,7803.552824569866
1712819476845,7847.825768437237
1712819476885,10416.103217225522
1712819476926,10694.414512977004
1712819476965,10795.741769786458
1712819477005,11589.90070031304
1712819477047,12633.554220126942
1712819477087,15681.45498530427
1712819477128,16820.16734371707
1712819477167,22624.104935857467
1712819477208,23688.931169728283
1712819477248,29231.373627878726
1712819477288,29231.373627878726
1712819477329,29231.373627878726
1712819477369,29231.373627878726
1712819477409,29231.373627878726
1712819477449,29231.373627878726
1712819477489,29231.373627878726
1712819477531,29231.373627878726
1712819477570,29231.373627878726
1712819477610,29231.373627878726
1712819477651,27829.980468388647
1712819477691,27829.980468388647
1712819477732,23643.740271131508
1712819477772,23643.740271131508
1712819477812,23643.740271131508
1712819477852,23643.740271131508
1712819477892,21558.789661445655
1712819477933,20820.745627603494
1712819477973,20631.563330960926
1712819478013,18553.947885462083
1712819478053,17640.23789485218
1712819478093,17509.46628226433
1712819478134,17262.75721055176
1712819478174,17023.865982381627
1712819478214,16675.961476463825
1712819478255,16374.567908804398
1712819478295,15602.066703927703
1712819478336,3057.0095830564387
1712819478376,-9383.486599915661
1712819478416,-9383.486599915661
1712819478456,-9383.486599915661
1712819478496,-9383.486599915661
1712819478537,-9383.486599915661
1712819478576,-9383.486599915661
1712819478616,-9383.486599915661
1712819478657,-9383.486599915661
1712819478697,-9383.486599915661
1712819478738,-9383.486599915661
1712819478777,-9383.486599915661
1712819478817,-8343.682354918681
1712819478857,-8343.682354918681
1712819478898,-8343.682354918681
1712819478938,-8343.682354918681
1712819478978,-8343.682354918681
1712819479018,-8343.682354918681
1712819479058,-8343.682354918681
1712819479099,-8343.682354918681
1712819479140,-8343.682354918681
1712819479179,-8343.682354918681
1712819479219,-8343.682354918681
1712819479259,-19219.041461918503
1712819479299,-30982.68032031879
1712819479340,-38575.07553747995
1712819479380,-38575.07553747995
1712819479420,-38575.07553747995
1712819479460,-38575.07553747995
1712819479501,-38575.07553747995
1712819479541,-38575.07553747995
1712819479581,-38575.07553747995
1712819479621,-38575.07553747995
1712819479661,-38575.07553747995
1712819479701,-38575.07553747995
1712819479743,-38575.07553747995
1712819479782,-32695.364326464478
1712819479822,-31236.076976163313
1712819479863,-18569.372735409997
1712819479903,-18569.372735409997
1712819479944,-18569.372735409997
1712819479983,-18569.372735409997
1712819480023,-18569.372735409997
1712819480064,-18569.372735409997
1712819480104,-18569.372735409997
1712819480145,-18569.372735409997
1712819480184,-18569.372735409997
1712819480225,-18569.372735409997
1712819480265,-16339.103577971924
1712819480305,-15231.056324948557
1712819480346,-15231.056324948557
1712819480386,-15231.056324948557
1712819480427,-15231.056324948557
1712819480468,-15231.056324948557
1712819480508,-15231.056324948557
1712819480549,-16339.103577971924
1712819480588,-19160.66385619715
1712819480628,-20441.86170486454
1712819480669,-20568.5862411391
1712819480709,-20995.430916514248
1712819480750,-23043.306596519426
1712819480789,-23043.306596519426
1712819480830,-23043.306596519426
1712819480870,-23043.306596519426
1712819480910,-23043.306596519426
1712819480951,-27619.241058610845
1712819480991,-31094.661902492866
1712819481031,-38209.18980526645
1712819481071,-38209.18980526645
1712819481111,-38209.18980526645
1712819481152,-38209.18980526645
1712819481192,-38209.18980526645
1712819481232,-38209.18980526645
1712819481273,-38209.18980526645
1712819481313,-38209.18980526645
1712819481354,-38209.18980526645
1712819481393,-38209.18980526645
1712819481434,-38209.18980526645
1712819481474,-38209.18980526645
1712819481514,-38209.18980526645
1712819481555,-38209.18980526645
1712819481594,-38209.18980526645
1712819481635,-38209.18980526645
1712819481675,-38209.18980526645
1712819481715,-38209.18980526645
1712819481756,-38209.18980526645
1712819481796,-38209.18980526645
1712819481836,-35053.283970536664
1712819481876,-33705.981739478186
1712819481916,-33106.4635170633
1712819481957,-27238.84082964156
1712819481996,-27238.84082964156
1712819482037,-27238.84082964156
1712819482077,-27238.84082964156
1712819482117,-27238.84082964156
1712819482158,-27238.84082964156
1712819482197,-27238.84082964156
1712819482237,-27238.84082964156
1712819482278,-15300.526864928892
1712819482318,10520.910571670625
1712819482359,15427.715846122941
1712819482398,15632.201627006754
1712819482438,21616.490082298405
1712819482478,23315.07353302557
1712819482519,26634.53668631427
1712819482559,31838.85608244501
1712819482599,34065.85212158598
1712819482639,41145.50763390586
1712819482679,41145.50763390586
1712819482719,41145.50763390586
1712819482761,41145.50763390586
1712819482800,41145.50763390586
1712819482840,41145.50763390586
1712819482881,41145.50763390586
1712819482921,41145.50763390586
1712819482962,34065.85212158598
1712819483001,26634.53668631427
1712819483041,21616.490082298405
1712819483082,18394.329814417288
1712819483122,18208.541265904903
1712819483163,15615.048821103293
1712819483202,14924.806610361673
1712819483243,14028.295942779165
1712819483283,11596.051419800147
1712819483323,11087.22988995025
1712819483364,10193.84499937389
1712819483404,9423.140396406874
1712819483444,9070.44313603267
1712819483484,5692.984449985437
1712819483524,-5303.6627233875915
1712819483565,-5303.6627233875915
1712819483605,-5303.6627233875915
1712819483645,-5303.6627233875915
1712819483690,-5303.6627233875915
1712819483730,-5303.6627233875915
1712819483771,-5303.6627233875915
1712819483811,-5510.655214893166
1712819483851,-10577.671482501086
1712819483891,-13343.703271844424
1712819483931,-17027.20817120839
1712819483972,-17027.20817120839
1712819484011,-20717.02409312129
1712819484051,-19700.245291247033
1712819484092,-19700.245291247033
1712819484132,-20717.02409312129
1712819484172,-20717.02409312129
1712819484212,-20717.02409312129
1712819484252,-20717.02409312129
1712819484292,-19819.648971669376
1712819484333,-19700.245291247033
1712819484373,-19700.245291247033
1712819484413,-19700.245291247033
1712819484453,-19700.245291247033
1712819484493,-19700.245291247033
1712819484533,-19700.245291247033
1712819484574,-19700.245291247033
1712819484613,-19700.245291247033
1712819484654,-19819.648971669376
1712819484694,-19819.648971669376
1712819484734,-19819.648971669376
1712819484775,-19819.648971669376
1712819484814,-20446.101139388047
1712819484854,-20446.101139388047
1712819484894,-20820.204952769214
1712819484935,-20820.204952769214
1712819484975,-20820.204952769214
1712819485015,-20820.204952769214
1712819485055,-20820.204952769214
1712819485095,-29822.313092468306
1712819485135,-29822.313092468306
1712819485176,-29822.313092468306
1712819485215,-29822.313092468306
1712819485256,-29822.313092468306
1712819485296,-29822.313092468306
1712819485336,-29822.313092468306
1712819485377,-29822.313092468306
1712819485416,-31883.064959777053
1712819485456,-37796.16884870501
1712819485497,-37796.16884870501
1712819485537,-37796.16884870501
1712819485578,-32569.13440692844
1712819485617,-31883.064959777053
1712819485657,-29148.954931367654
1712819485697,-28881.965061161667
1712819485738,-27892.407710446045
1712819485779,-27160.874111963436
1712819485818,-25861.92589677195
1712819485859,-22493.161641535815
1712819485899,-21549.520932453685
1712819485939,-20951.589148606174
1712819485980,-19470.35883962689
1712819486020,-19470.35883962689
1712819486060,-20653.623594996985
1712819486100,-20951.589148606174
1712819486140,-20951.589148606174
1712819486181,-20653.623594996985
1712819486220,-20653.623594996985
1712819486261,-20653.623594996985
1712819486301,-20653.623594996985
1712819486341,-20653.623594996985
1712819486382,-20653.623594996985
1712819486421,-20653.623594996985
1712819486461,-20653.623594996985
1712819486502,-20653.623594996985
1712819486542,-24540.09164981963
1712819486582,-31248.873495920794
1712819486622,-35821.30333993258
1712819486662,-79351.84478608496
1712819486702,-79351.84478608496
1712819486743,-79351.84478608496
1712819486783,-84885.92799956677
1712819486823,-84995.32087270077
1712819486863,-87107.93516960857
1712819486903,-88893.39758125716
1712819486944,-92591.87688781903
1712819486985,-92958.39182261238
1712819487024,-94730.9214724563
1712819487064,-95106.23028117651
1712819487105,-94730.9214724563
1712819487145,-92958.39182261238
1712819487185,-92591.87688781903
1712819487225,-91994.54235193925
1712819487265,-88893.39758125716
1712819487305,-87309.2860269812
1712819487346,-87107.93516960857
1712819487387,-86104.64863476856
1712819487426,-84995.32087270077
1712819487467,-84885.92799956677
1712819487507,-84885.92799956677
1712819487547,-84885.92799956677
1712819487588,-84885.92799956677
1712819487627,-81950.34887535963
1712819487668,-78685.35760950949
1712819487708,-72100.2025063124
1712819487748,-71203.86094764853
1712819487789,-65922.31065991241
1712819487829,-60225.06507313764
1712819487869,-58081.61020251131
1712819487909,-51246.69550489308
1712819487950,3537.697378332261
1712819487991,9974.498274023179
1712819488030,13115.232350755716
1712819488070,21018.94917427795
1712819488111,21093.98811443802
1712819488151,22913.54198257043
1712819488192,22913.54198257043
1712819488231,22913.54198257043
1712819488271,22913.54198257043
1712819488312,22913.54198257043
1712819488352,22913.54198257043
1712819488393,21093.98811443802
1712819488433,21018.94917427795
1712819488473,21018.94917427795
1712819488513,21018.94917427795
1712819488553,21018.94917427795
1712819488596,20522.807304173242
1712819488636,20522.807304173242
1712819488676,20522.807304173242
1712819488716,20522.807304173242
1712819488757,20522.807304173242
1712819488798,20522.807304173242
1712819488837,20522.807304173242
1712819488877,17409.73397852294
1712819488918,17218.188729892718
1712819488958,13928.92751992005
1712819488999,12784.405328779016
1712819489038,10928.298421433428
1712819489078,10928.298421433428
1712819489119,10928.298421433428
1712819489159,10928.298421433428
1712819489200,10928.298421433428
1712819489239,12210.364635244943
1712819489280,12784.405328779016
1712819489320,13928.92751992005
1712819489360,14922.282096176874
1712819489401,14922.282096176874
1712819489440,14922.282096176874
1712819489480,14922.282096176874
1712819489521,14922.282096176874
1712819489561,14922.282096176874
1712819489601,12784.405328779016
1712819489641,12210.364635244943
1712819489681,10282.326054075966
1712819489721,9834.048922573682
1712819489762,9326.969928938895
1712819489802,9326.969928938895
1712819489842,9326.969928938895
1712819489882,9326.969928938895
1712819489922,10237.968235356733
1712819489962,10282.326054075966
1712819490003,12210.364635244943
1712819490043,12966.826221025782
1712819490083,14922.282096176874
1712819490123,16395.21576538682
1712819490163,16395.21576538682
1712819490204,16395.21576538682
1712819490244,16395.21576538682
1712819490284,16395.21576538682
1712819490324,16395.21576538682
1712819490365,16395.21576538682
1712819490405,13762.431666445453
1712819490445,13762.431666445453
1712819490485,13762.431666445453
1712819490525,13762.431666445453
1712819490566,13762.431666445453
1712819490607,13762.431666445453
1712819490646,13762.431666445453
1712819490686,13762.431666445453
1712819490727,14346.76145093143
1712819490767,16395.21576538682
1712819490808,16720.24531929847
1712819490848,17381.43192684464
1712819490888,17381.43192684464
1712819490928,17381.43192684464
1712819490968,17381.43192684464
1712819491009,17381.43192684464
1712819491049,17381.43192684464
1712819491089,17381.43192684464
1712819491129,16720.24531929847
1712819491169,14346.76145093143
1712819491211,13762.431666445453
1712819491250,13463.040299804416
1712819491290,13463.040299804416
1712819491331,13463.040299804416
1712819491371,13463.040299804416
1712819491412,13463.040299804416
1712819491453,13463.040299804416
1712819491493,13463.040299804416
1712819491533,13463.040299804416
1712819491573,13463.040299804416
1712819491614,13463.040299804416
1712819491654,13463.040299804416
1712819491694,13463.040299804416
1712819491734,13463.040299804416
1712819491775,13463.040299804416
1712819491816,13463.040299804416
1712819491855,13463.040299804416
1712819491895,13463.040299804416
1712819491936,10915.394957824145
1712819491976,9815.694041116163
1712819492017,9815.694041116163
1712819492057,9815.694041116163
1712819492097,9815.694041116163
1712819492137,9815.694041116163
1712819492177,9815.694041116163
1712819492218,9815.694041116163
1712819492258,9815.694041116163
1712819492298,9815.694041116163
1712819492338,10511.0026419051
1712819492378,10511.0026419051
1712819492419,10511.0026419051
1712819492459,10511.0026419051
1712819492499,10511.0026419051
1712819492539,10511.0026419051
1712819492579,10511.0026419051
1712819492620,10511.0026419051
1712819492660,10511.0026419051
1712819492700,10511.0026419051
1712819492740,10511.0026419051
1712819492780,10511.0026419051
1712819492821,10511.0026419051
1712819492860,10511.0026419051
1712819492901,10511.0026419051
1712819492941,10511.0026419051
1712819492981,10511.0026419051
1712819493022,10511.0026419051
1712819493061,10511.0026419051
1712819493101,10511.0026419051
1712819493142,10511.0026419051
1712819493182,7293.13780200202
1712819493223,4011.23490133835
1712819493262,1507.4420571501832
1712819493302,1249.4793622544967
1712819493343,1249.4793622544967
1712819493383,1249.4793622544967
1712819493424,1249.4793622544967
1712819493463,1249.4793622544967
1712819493504,915.7029599933885
1712819493544,306.97499954514205
1712819493584,239.63594246376306
1712819493625,111.22442511701956
1712819493664,-267.7216331453528
1712819493705,-545.0997582520358
1712819493745,-2574.1543153147213
1712819493785,-2631.1925440824125
1712819493826,-4315.52127168118
1712819493867,-4315.52127168118
1712819493907,-4315.52127168118
1712819493947,-7588.792200197
1712819493988,-7588.792200197
1712819494029,-7588.792200197
1712819494068,-7588.792200197
1712819494108,-7588.792200197
1712819494149,-7588.792200197
1712819494189,-7588.792200197
1712819494230,-7588.792200197
1712819494269,-7588.792200197
1712819494310,-7588.792200197
1712819494350,-7588.792200197
1712819494390,-4516.60620845505
1712819494431,-4516.60620845505
1712819494471,-4516.60620845505
1712819494511,-4516.60620845505
1712819494551,-4516.60620845505
1712819494591,-4516.60620845505
1712819494632,-4516.60620845505
1712819494672,-4516.60620845505
1712819494712,-4516.60620845505
1712819494752,-4516.60620845505
1712819494792,-4516.60620845505
1712819494834,-9592.417450241279
1712819494873,-16534.08797442587
1712819494913,-16534.08797442587
1712819494954,-16534.08797442587
1712819494994,-16534.08797442587
1712819495035,-16534.08797442587
1712819495074,-16534.08797442587
1712819495115,-16534.08797442587
1712819495155,-16534.08797442587
1712819495195,-16534.08797442587
1712819495236,-16534.08797442587
1712819495276,-16534.08797442587
1712819495316,-13411.792966236826
1712819495356,-8997.579983537318
1712819495396,-8997.579983537318
1712819495438,-8997.579983537318
1712819495477,-8997.579983537318
1712819495517,-8997.579983537318
1712819495558,-8997.579983537318
1712819495598,-8997.579983537318
1712819495638,-8997.579983537318
1712819495678,-8997.579983537318
1712819495718,-8997.579983537318
1712819495753,-8997.579983537318
1712819495793,-15108.649591796566
1712819495834,-22844.633522533346
1712819495874,-28114.22696230584
1712819495914,-28114.22696230584
1712819495954,-28114.22696230584
1712819495994,-28114.22696230584
1712819496035,-28114.22696230584
1712819496074,-28114.22696230584
1712819496114,-28114.22696230584
1712819496154,-28114.22696230584
1712819496194,-28114.22696230584
1712819496235,-28114.22696230584
1712819496275,-28114.22696230584
1712819496315,-25789.983509727288
1712819496355,-25789.983509727288
1712819496395,-25789.983509727288
1712819496436,-25789.983509727288
1712819496476,-25789.983509727288
1712819496516,-25789.983509727288
1712819496556,-25789.983509727288
1712819496596,-25789.983509727288
1712819496637,-25789.983509727288
1712819496677,-25789.983509727288
1712819496717,-25009.25351236295
1712819496757,-22822.86667159316
1712819496797,-22822.86667159316
1712819496838,-22822.86667159316
1712819496878,-22822.86667159316
1712819496918,-22822.86667159316
1712819496958,-22822.86667159316
1712819496998,-22822.86667159316
1712819497039,-22822.86667159316
1712819497079,-22822.86667159316
1712819497119,-22822.86667159316
1712819497159,-19250.10607741261
1712819497200,-15547.159212553175
1712819497243,-15547.159212553175
1712819497282,-15547.159212553175
1712819497322,-15547.159212553175
1712819497363,-15547.159212553175
1712819497403,-15547.159212553175
1712819497444,-15547.159212553175
1712819497483,-15547.159212553175
1712819497523,-15547.159212553175
1712819497564,-15547.159212553175
1712819497604,-15547.159212553175
1712819497645,-15985.488839501515
1712819497684,-18892.68076015031
1712819497725,-18892.68076015031
1712819497765,-18892.68076015031
1712819497805,-18892.68076015031
1712819497846,-18892.68076015031
1712819497886,-18892.68076015031
1712819497926,-18892.68076015031
1712819497966,-18892.68076015031
1712819498006,-18892.68076015031
1712819498047,-18892.68076015031
1712819498087,-18892.68076015031
1712819498127,-15062.636966313701
1712819498168,-11330.564478907268
1712819498208,-9624.14754478028
1712819498249,-9624.14754478028
1712819498289,-9624.14754478028
1712819498329,-9624.14754478028
1712819498369,-9624.14754478028
1712819498409,-9624.14754478028
1712819498450,-9624.14754478028
1712819498490,-9624.14754478028
1712819498530,-9624.14754478028
1712819498571,-9624.14754478028
1712819498611,-7831.5371797515545
1712819498652,-7661.078180159908
1712819498692,-7661.078180159908
1712819498732,-7661.078180159908
1712819498772,-7661.078180159908
1712819498812,-7661.078180159908
1712819498853,-7661.078180159908
1712819498892,-7661.078180159908
1712819498933,-7661.078180159908
1712819498973,-7661.078180159908
1712819499013,-7661.078180159908
1712819499054,-4461.518626872217
1712819499093,-2861.8550709588453
1712819499133,-2861.8550709588453
1712819499174,-2861.8550709588453
1712819499214,-2861.8550709588453
1712819499254,-2861.8550709588453
1712819499294,-2861.8550709588453
1712819499334,-2861.8550709588453
1712819499374,-2861.8550709588453
1712819499415,-2861.8550709588453
1712819499455,-2861.8550709588453
1712819499495,-875.6657871599309
1712819499535,-86.23438774445094
1712819499575,-86.23438774445094
1712819499615,-86.23438774445094
1712819499656,-86.23438774445094
1712819499696,-86.23438774445094
1712819499736,-86.23438774445094
1712819499776,-86.23438774445094
1712819499816,-86.23438774445094
1712819499857,-86.23438774445094
1712819499897,-86.23438774445094
1712819499937,3223.2600300991908
1712819499977,4158.298985152971
1712819500018,4158.298985152971
1712819500059,4158.298985152971
1712819500098,4158.298985152971
1712819500138,4158.298985152971
1712819500179,4158.298985152971
1712819500219,4158.298985152971
1712819500260,4158.298985152971
1712819500299,4158.298985152971
1712819500340,4158.298985152971
1712819500380,4158.298985152971
1712819500420,4158.298985152971
1712819500461,4158.298985152971
1712819500501,4158.298985152971
1712819500541,4158.298985152971
1712819500581,4158.298985152971
1712819500621,4158.298985152971
1712819500662,4158.298985152971
1712819500702,4158.298985152971
1712819500742,4158.298985152971
1712819500782,4158.298985152971
1712819500823,4165.64268312417
1712819500864,7216.550478905672
1712819500903,10812.545258800266
1712819500943,13686.609568351647
1712819500984,13686.609568351647
1712819501024,13686.609568351647
1712819501065,13686.609568351647
1712819501104,13686.609568351647
1712819501144,13686.609568351647
1712819501185,13686.609568351647
1712819501225,13686.609568351647
1712819501266,13686.609568351647
1712819501305,13686.609568351647
1712819501346,13686.609568351647
1712819501386,9294.826141831698
1712819501426,7047.457362545654
1712819501467,7047.457362545654
1712819501507,7047.457362545654
1712819501548,7047.457362545654
1712819501589,7047.457362545654
1712819501629,7047.457362545654
1712819501670,7047.457362545654
1712819501710,7047.457362545654
1712819501750,7047.457362545654
1712819501790,7047.457362545654
1712819501830,7047.457362545654
1712819501871,9039.425556852715
1712819501911,12075.77041812893
1712819501951,12075.77041812893
1712819501991,12075.77041812893
1712819502031,12075.77041812893
1712819502072,12075.77041812893
1712819502112,12075.77041812893
1712819502152,12075.77041812893
1712819502192,12075.77041812893
1712819502232,12075.77041812893
1712819502273,12075.77041812893
1712819502313,12075.77041812893
1712819502353,10796.168131747749
1712819502393,10796.168131747749
1712819502433,10796.168131747749
1712819502474,10796.168131747749
1712819502513,10796.168131747749
1712819502554,10796.168131747749
1712819502594,10796.168131747749
1712819502634,10796.168131747749
1712819502675,10796.168131747749
1712819502714,10796.168131747749
1712819502754,10796.168131747749
1712819502795,11506.128474638797
1712819502835,14047.89419992501
1712819502876,14047.89419992501
1712819502915,14047.89419992501
1712819502955,14047.89419992501
1712819502995,14047.89419992501
1712819503036,14047.89419992501
1712819503077,14047.89419992501
1712819503116,14047.89419992501
1712819503156,14047.89419992501
1712819503196,14047.89419992501
1712819503237,14047.89419992501
1712819503278,11099.263207192998
1712819503317,7641.6103536693845
1712819503357,7641.6103536693845
1712819503398,7641.6103536693845
1712819503438,7641.6103536693845
1712819503479,7641.6103536693845
1712819503518,7641.6103536693845
1712819503559,7641.6103536693845
1712819503599,7641.6103536693845
1712819503639,7641.6103536693845
1712819503680,7641.6103536693845
1712819503720,7641.6103536693845
1712819503760,9897.418340228032
1712819503800,9897.418340228032
1712819503840,9897.418340228032
1712819503881,9897.418340228032
1712819503921,9897.418340228032
1712819503961,9897.418340228032
1712819504002,9897.418340228032
1712819504042,9897.418340228032
1712819504083,9897.418340228032
1712819504122,9897.418340228032
1712819504162,9897.418340228032
1712819504203,3087.7492368260864
1712819504243,-2314.9674953618087
1712819504284,-2426.6320461279247
1712819504323,-2426.6320461279247
1712819504364,-2426.6320461279247
1712819504404,-2426.6320461279247
1712819504444,-2426.6320461279247
1712819504485,-2426.6320461279247
1712819504525,-2426.6320461279247
1712819504565,-2426.6320461279247
1712819504605,-2426.6320461279247
1712819504645,-2426.6320461279247
1712819504686,-2426.6320461279247
1712819504726,-77.07873009564355
1712819504766,-77.07873009564355
1712819504806,-77.07873009564355
1712819504847,-77.07873009564355
1712819504889,-77.07873009564355
1712819504929,-77.07873009564355
1712819504969,-77.07873009564355
1712819505009,-77.07873009564355
1712819505050,-77.07873009564355
1712819505091,-77.07873009564355
1712819505130,-77.07873009564355
1712819505170,-6146.5789240603335
1712819505211,-6783.730319526279
1712819505251,-6783.730319526279
1712819505292,-6783.730319526279
1712819505331,-6783.730319526279
1712819505372,-6783.730319526279
1712819505412,-6783.730319526279
1712819505452,-6783.730319526279
1712819505493,-6783.730319526279
1712819505532,-6783.730319526279
1712819505572,-6783.730319526279
1712819505612,-6783.730319526279
1712819505653,-6783.730319526279
1712819505694,-6783.730319526279
1712819505733,-6783.730319526279
1712819505773,-6783.730319526279
1712819505813,-6783.730319526279
1712819505853,-6783.730319526279
1712819505894,-6783.730319526279
1712819505934,-6783.730319526279
1712819505974,-6783.730319526279
1712819506014,-6783.730319526279
1712819506055,-8379.71247939067
1712819506095,-12905.265724096913
1712819506135,-12905.265724096913
1712819506175,-12905.265724096913
1712819506215,-12905.265724096913
1712819506256,-12905.265724096913
1712819506297,-12905.265724096913
1712819506336,-12905.265724096913
1712819506376,-12905.265724096913
1712819506417,-12905.265724096913
1712819506457,-12905.265724096913
1712819506498,-12905.265724096913
1712819506537,-11707.717343667988
1712819506577,-10933.260865557473
1712819506618,-10933.260865557473
1712819506658,-10933.260865557473
1712819506699,-10933.260865557473
1712819506738,-10933.260865557473
1712819506779,-10933.260865557473
1712819506819,-10933.260865557473
1712819506859,-10933.260865557473
1712819506900,-10933.260865557473
1712819506940,-10933.260865557473
1712819506980,-10933.260865557473
1712819507020,-18957.78699709801
1712819507060,-23610.443673025817
1712819507101,-23610.443673025817
1712819507141,-23610.443673025817
1712819507181,-23610.443673025817
1712819507221,-23610.443673025817
1712819507262,-23610.443673025817
1712819507303,-23610.443673025817
1712819507342,-23610.443673025817
1712819507383,-23610.443673025817
1712819507423,-23610.443673025817
1712819507463,-23610.443673025817
1712819507504,-20385.652629977325
1712819507543,-17314.387631929945
1712819507584,-17314.387631929945
1712819507624,-17314.387631929945
1712819507664,-17314.387631929945
1712819507705,-17314.387631929945
1712819507745,-17314.387631929945
1712819507785,-17314.387631929945
1712819507831,-17314.387631929945
1712819507871,-17314.387631929945
1712819507912,-17314.387631929945
1712819507952,-17314.387631929945
1712819507992,-18764.940108906012
1712819508032,-19120.00242554769
1712819508072,-19120.00242554769
1712819508113,-19120.00242554769
1712819508152,-19120.00242554769
1712819508193,-19120.00242554769
1712819508233,-19120.00242554769
1712819508273,-19120.00242554769
1712819508314,-19120.00242554769
1712819508354,-19120.00242554769
1712819508394,-19120.00242554769
1712819508434,-19120.00242554769
1712819508474,-15136.820982765406
1712819508515,-15136.820982765406
1712819508555,-15136.820982765406
1712819508595,-15136.820982765406
1712819508635,-15136.820982765406
1712819508675,-15136.820982765406
1712819508717,-15136.820982765406
1712819508758,-15136.820982765406
1712819508798,-15136.820982765406
1712819508838,-15136.820982765406
1712819508878,-15136.820982765406
1712819508919,-17326.677480413113
1712819508959,-17326.677480413113
1712819508999,-17326.677480413113
1712819509039,-17326.677480413113
1712819509079,-17326.677480413113
1712819509120,-17326.677480413113
1712819509160,-17326.677480413113
1712819509200,-17326.677480413113
1712819509240,-17326.677480413113
1712819509280,-17326.677480413113
1712819509321,-17326.677480413113
1712819509361,-14061.530779233202
1712819509401,-10288.666066070553
1712819509441,-7968.335080476943
1712819509481,-7968.335080476943
1712819509522,-7968.335080476943
1712819509562,-7968.335080476943
1712819509602,-7968.335080476943
1712819509642,-7968.335080476943
1712819509682,-7968.335080476943
1712819509723,-7968.335080476943
1712819509763,-7968.335080476943
1712819509803,-7968.335080476943
1712819509843,-7968.335080476943
1712819509884,-14426.829253574368
1712819509925,-14426.829253574368
1712819509964,-14426.829253574368
1712819510004,-14426.829253574368
1712819510045,-14426.829253574368
1712819510085,-14426.829253574368
1712819510126,-14426.829253574368
1712819510166,-14426.829253574368
1712819510206,-14426.829253574368
1712819510246,-14426.829253574368
1712819510286,-14426.829253574368
1712819510327,-10911.365990461316
1712819510367,-7981.2757449809
1712819510407,-4549.918474222766
1712819510447,-4549.918474222766
1712819510487,-4549.918474222766
1712819510529,-4549.918474222766
1712819510568,-4549.918474222766
1712819510608,-4549.918474222766
1712819510649,-4549.918474222766
1712819510689,-4549.918474222766
1712819510730,-4549.918474222766
1712819510769,-4549.918474222766
1712819510809,-4549.918474222766
1712819510850,-8971.305913087213
1712819510890,-10234.120926121483
1712819510931,-10234.120926121483
1712819510971,-10234.120926121483
1712819511011,-10234.120926121483
1712819511051,-10234.120926121483
1712819511091,-10234.120926121483
1712819511132,-10234.120926121483
1712819511172,-10234.120926121483
1712819511212,-10234.120926121483
1712819511253,-10234.120926121483
1712819511293,-10234.120926121483
1712819511334,-10234.120926121483
1712819511373,-10234.120926121483
1712819511413,-10234.120926121483
1712819511454,-10234.120926121483
1712819511494,-10234.120926121483
1712819511535,-10234.120926121483
1712819511574,-10234.120926121483
1712819511615,-10234.120926121483
1712819511655,-10234.120926121483
1712819511695,-9545.540938552469
1712819511736,-6455.62649236084
1712819511776,-6077.827778874431
1712819511816,-6077.827778874431
1712819511856,-6077.827778874431
1712819511896,-6077.827778874431
1712819511937,-6077.827778874431
1712819511977,-6077.827778874431
1712819512017,-6077.827778874431
1712819512057,-6077.827778874431
1712819512097,-6077.827778874431
1712819512138,-6077.827778874431
1712819512177,-2087.313495797571
1712819512218,1726.0965556991287
1712819512258,1726.0965556991287
1712819512298,1726.0965556991287
1712819512339,1726.0965556991287
1712819512378,1726.0965556991287
1712819512418,1726.0965556991287
1712819512459,1726.0965556991287
1712819512499,1726.0965556991287
1712819512540,1726.0965556991287
1712819512579,1726.0965556991287
1712819512619,1726.0965556991287
1712819512660,-5030.449081040919
1712819512700,-5030.449081040919
1712819512741,-5030.449081040919
1712819512780,-5030.449081040919
1712819512821,-5030.449081040919
1712819512861,-5030.449081040919
1712819512901,-5030.449081040919
1712819512942,-5030.449081040919
1712819512981,-5030.449081040919
1712819513022,-5030.449081040919
1712819513062,-5030.449081040919
1712819513102,-3692.390215560328
1712819513143,-262.5034254514612
1712819513183,3608.694690771401
1712819513223,6774.185719525209
1712819513263,6774.185719525209
1712819513304,6774.185719525209
1712819513344,6774.185719525209
1712819513384,6774.185719525209
1712819513424,6774.185719525209
1712819513464,6774.185719525209
1712819513505,6774.185719525209
1712819513546,6774.185719525209
1712819513585,6774.185719525209
1712819513625,6774.185719525209
1712819513666,3188.9498664136045
1712819513706,354.4484538240358
1712819513747,354.4484538240358
1712819513787,354.4484538240358
1712819513827,354.4484538240358
1712819513867,354.4484538240358
1712819513907,354.4484538240358
1712819513948,354.4484538240358
1712819513988,354.4484538240358
1712819514028,354.4484538240358
1712819514068,354.4484538240358
1712819514108,354.4484538240358
1712819514150,3511.1675043755677
1712819514189,7122.701739760581
1712819514229,7122.701739760581
1712819514270,7122.701739760581
1712819514310,7122.701739760581
1712819514351,7122.701739760581
1712819514390,7122.701739760581
1712819514431,7122.701739760581
1712819514471,7122.701739760581
1712819514511,7122.701739760581
1712819514552,7122.701739760581
1712819514592,7122.701739760581
1712819514632,6911.373125984799
1712819514672,6911.373125984799
1712819514712,6911.373125984799
1712819514753,6911.373125984799
1712819514793,6911.373125984799
1712819514833,6911.373125984799
1712819514876,6911.373125984799
1712819514914,6911.373125984799
1712819514955,6911.373125984799
1712819514995,6911.373125984799
1712819515035,6911.373125984799
1712819515076,8722.161028348375
1712819515116,11716.073843480088
1712819515157,11716.073843480088
1712819515196,11716.073843480088
1712819515236,11716.073843480088
1712819515276,11716.073843480088
1712819515316,11716.073843480088
1712819515358,11716.073843480088
1712819515397,11716.073843480088
1712819515437,11716.073843480088
1712819515477,11716.073843480088
1712819515517,11716.073843480088
1712819515558,9551.243292166619
1712819515598,1534.589069494512
1712819515638,-2588.278076056391
1712819515678,-2588.278076056391
1712819515718,-2588.278076056391
1712819515759,-2588.278076056391
1712819515799,-2588.278076056391
1712819515839,-2588.278076056391
1712819515879,-2588.278076056391
1712819515919,-2588.278076056391
1712819515960,-2588.278076056391
1712819516000,-2588.278076056391
1712819516040,-2588.278076056391
1712819516080,380.1927490250673
1712819516120,3371.632658838993
1712819516161,3371.632658838993
1712819516201,3371.632658838993
1712819516241,3371.632658838993
1712819516281,3371.632658838993
1712819516322,3371.632658838993
1712819516362,3371.632658838993
1712819516402,3371.632658838993
1712819516442,3371.632658838993
1712819516482,3371.632658838993
1712819516523,3371.632658838993
1712819516564,2051.4543152449187
1712819516603,-6021.400339764077
1712819516643,-6050.166641275631
1712819516684,-6050.166641275631
1712819516724,-6050.166641275631
1712819516765,-6050.166641275631
1712819516805,-6050.166641275631
1712819516845,-6050.166641275631
1712819516885,-6050.166641275631
1712819516925,-6050.166641275631
1712819516966,-6050.166641275631
1712819517006,-6050.166641275631
1712819517046,-6050.166641275631
1712819517089,-2466.600371150067
1712819517127,-1000.4451988348737
1712819517168,-1000.4451988348737
1712819517207,-1000.4451988348737
1712819517247,-1000.4451988348737
1712819517288,-1000.4451988348737
1712819517328,-1000.4451988348737
1712819517369,-1000.4451988348737
1712819517409,-1000.4451988348737
1712819517449,-1000.4451988348737
1712819517489,-1000.4451988348737
1712819517529,-1000.4451988348737
1712819517570,-6322.3016923384275
1712819517610,-6322.3016923384275
1712819517650,-6322.3016923384275
1712819517690,-6322.3016923384275
1712819517730,-6322.3016923384275
1712819517771,-6322.3016923384275
1712819517811,-6322.3016923384275
1712819517851,-6322.3016923384275
1712819517892,-6322.3016923384275
1712819517932,-6322.3016923384275
1712819517973,-6322.3016923384275
1712819518012,-6322.3016923384275
1712819518052,-6322.3016923384275
1712819518093,-6322.3016923384275
1712819518133,-6322.3016923384275
1712819518174,-6322.3016923384275
1712819518214,-6322.3016923384275
1712819518254,-6322.3016923384275
1712819518294,-6322.3016923384275
1712819518335,-6322.3016923384275
1712819518376,-6322.3016923384275
1712819518416,-10622.66020538914
1712819518456,-17893.52402097406
1712819518496,-17893.52402097406
1712819518536,-17893.52402097406
1712819518577,-17893.52402097406
1712819518617,-17893.52402097406
1712819518657,-17893.52402097406
1712819518697,-17893.52402097406
1712819518737,-17893.52402097406
1712819518778,-17893.52402097406
1712819518817,-17893.52402097406
1712819518858,-17893.52402097406
1712819518898,-14879.825825654436
1712819518938,-11697.819133597892
1712819518979,-11697.819133597892
1712819519018,-11697.819133597892
1712819519059,-11697.819133597892
1712819519099,-11697.819133597892
1712819519139,-11697.819133597892
1712819519180,-11697.819133597892
1712819519220,-11697.819133597892
1712819519260,-11697.819133597892
1712819519303,-11697.819133597892
1712819519340,-11697.819133597892
1712819519381,-15183.07798556611
1712819519421,-21524.39142018417
1712819519461,-21524.39142018417
1712819519501,-21524.39142018417
1712819519541,-21524.39142018417
1712819519582,-21524.39142018417
1712819519622,-21524.39142018417
1712819519662,-21524.39142018417
1712819519702,-21524.39142018417
1712819519743,-21524.39142018417
1712819519784,-21524.39142018417
1712819519823,-21524.39142018417
1712819519863,-17585.91115068132
1712819519889,-14188.325856073294
1712819519930,-10188.940055555897
1712819519970,-10188.940055555897
1712819520010,-10188.940055555897
1712819520050,-10188.940055555897
1712819520090,-10188.940055555897
1712819520130,-10188.940055555897
1712819520171,-10188.940055555897
1712819520210,-10188.940055555897
1712819520250,-10188.940055555897
1712819520291,-10188.940055555897
1712819520331,-10188.940055555897
1712819520372,-10334.242259932216
1712819520411,-16360.494183079805
1712819520451,-20315.461886197794
1712819520491,-23292.9057417328
1712819520532,-23292.9057417328
1712819520572,-23292.9057417328
1712819520612,-23292.9057417328
1712819520652,-23292.9057417328
1712819520692,-23292.9057417328
1712819520732,-23292.9057417328
1712819520773,-23292.9057417328
1712819520813,-23292.9057417328
1712819520853,-23292.9057417328
1712819520893,-23511.684056164697
1712819520933,-24828.603827158688
1712819520974,-25445.935076477937
1712819521013,-25445.935076477937
1712819521053,-25445.935076477937
1712819521094,-24274.371698008385
1712819521134,-23511.684056164697
1712819521175,-21800.651080523618
1712819521214,-19515.8028138089
1712819521254,-19131.211717758095
1712819521294,-18293.046074310318
1712819521335,-17861.327164886985
1712819521376,-16728.452424165327
1712819521415,-14093.987557508051
1712819521455,-12177.553618400125
1712819521495,-9980.81976985652
1712819521535,-8218.798843836877
1712819521576,-7005.883191074245
1712819521616,-7005.883191074245
1712819521656,322.6427098712884
1712819521696,9289.242127367528
1712819521736,9289.242127367528
1712819521777,9289.242127367528
1712819521817,9289.242127367528
1712819521857,9289.242127367528
1712819521897,16358.023811275605
1712819521938,18225.706698318012
1712819521979,23676.476975363446
1712819522018,25901.655812421348
1712819522058,25901.655812421348
1712819522099,25901.655812421348
1712819522139,27211.25095149991
1712819522180,27211.25095149991
1712819522219,27211.25095149991
1712819522259,25901.655812421348
1712819522300,25446.72681796411
1712819522340,21204.217993190512
1712819522381,18225.706698318012
1712819522420,16188.678508805111
1712819522460,14340.562108422862
1712819522500,8886.91728952853
1712819522541,8214.415656823665
1712819522582,8214.415656823665
1712819522621,8214.415656823665
1712819522661,8214.415656823665
1712819522701,6101.81549136946
1712819522741,1638.1827479738276
1712819522782,653.8524587051943
1712819522822,400.1285471706651
1712819522862,229.38582598417997
1712819522902,-159.7495825192891
1712819522942,-10369.936172972433
1712819522983,-23405.443320689956
1712819523023,-23405.443320689956
1712819523063,-23405.443320689956
1712819523103,-23405.443320689956
1712819523143,-23405.443320689956
1712819523184,-23405.443320689956
1712819523224,-23405.443320689956
1712819523264,-23405.443320689956
1712819523304,-23405.443320689956
1712819523344,-23405.443320689956
1712819523385,-23405.443320689956
1712819523425,-17589.178947967477
1712819523465,-13437.210438280134
1712819523505,-11404.734136477113
1712819523546,-8916.648998747114
1712819523586,-29.051305271685123
1712819523626,11011.115115275374
1712819523666,15518.782937779091
1712819523706,19232.30705719255
1712819523747,21600.45737440884
1712819523788,21964.26915204758
1712819523827,25864.803299948107
1712819523867,29144.36508523021
1712819523908,37152.75317610195
1712819523948,37525.375603196444
1712819523989,44853.36006069672
1712819524029,45306.64554257481
1712819524069,46306.92548048007
1712819524109,46870.263285412686
1712819524149,47078.22324056784
1712819524190,48935.15601963503
1712819524230,54551.08109624102
1712819524270,54551.08109624102
1712819524310,54551.08109624102
1712819524351,54551.08109624102
1712819524392,54551.08109624102
1712819524431,54551.08109624102
1712819524471,54551.08109624102
1712819524512,54551.08109624102
1712819524552,54551.08109624102
1712819524593,54551.08109624102
1712819524632,54551.08109624102
1712819524672,50322.93701770622
1712819524713,44629.26128494716
1712819524753,38620.32522880519
1712819524794,38450.29049175326
1712819524833,35240.147857865086
1712819524874,20949.33568717842
1712819524914,15555.887374688173
1712819524954,15555.887374688173
1712819524995,15555.887374688173
1712819525035,15555.887374688173
1712819525075,15555.887374688173
1712819525115,15555.887374688173
1712819525156,15555.887374688173
1712819525196,15555.887374688173
1712819525236,15555.887374688173
1712819525276,15555.887374688173
1712819525317,15555.887374688173
1712819525357,33788.1110948096
1712819525398,35686.10061526508
1712819525437,38131.25302352384
1712819525478,40917.86962012481
1712819525518,41179.17819395568
1712819525558,41520.88677592459
1712819525599,41956.08576755016
1712819525639,42343.3810679107
1712819525679,44113.821261907
1712819525719,47843.87576426775
1712819525759,49363.49974998622
1712819525800,51102.280115253525
1712819525839,51102.280115253525
1712819525879,51102.280115253525
1712819525920,51102.280115253525
1712819525960,52299.013440057635
1712819526001,54165.28333845944
1712819526040,60325.791388767306
1712819526080,69907.80894087115
1712819526121,79510.35897066863
1712819526161,81141.71545383474
1712819526202,81141.71545383474
1712819526241,81141.71545383474
1712819526281,81141.71545383474
1712819526322,81141.71545383474
1712819526362,81141.71545383474
1712819526403,81141.71545383474
1712819526442,81141.71545383474
1712819526482,81141.71545383474
1712819526522,81141.71545383474
1712819526563,81141.71545383474
1712819526604,73881.66076610703
1712819526643,73860.35871488135
1712819526683,70908.26418008166
1712819526724,69919.12853866862
1712819526764,68591.06652377988
1712819526805,68204.45701829181
1712819526844,65730.85257958481
1712819526884,65558.93489677622
1712819526925,54787.08498867182
1712819526965,54396.24398339703
1712819527006,51931.737951566
1712819527045,47536.308017418254
1712819527086,47446.67422567331
1712819527126,47446.67422567331
1712819527166,47446.67422567331
1712819527207,47446.67422567331
1712819527247,47446.67422567331
1712819527287,45647.11432947125
1712819527327,45647.11432947125
1712819527367,45647.11432947125
1712819527408,45647.11432947125
1712819527448,45647.11432947125
1712819527488,45647.11432947125
1712819527528,45647.11432947125
1712819527569,44237.7214665506
1712819527610,43606.58490332402
1712819527649,42926.53098802362
1712819527689,42911.131832580315
1712819527730,42549.49105616193
1712819527770,42463.56902287551
1712819527811,42463.56902287551
1712819527850,40101.372311362764
1712819527891,39960.092874591006
1712819527931,39960.092874591006
1712819527971,39960.092874591006
1712819528012,31218.545241856016
1712819528052,20296.409835435916
1712819528092,17113.661117831245
1712819528132,13722.735669999383
1712819528172,11794.131002644077
1712819528213,9130.21165518742
1712819528253,5162.948596533388
1712819528293,491.75009981449693
1712819528333,-1169.9878919338807
1712819528374,-1565.5418691565283
1712819528415,-2123.2097264938056
1712819528454,-2603.773276038002
1712819528495,-2849.9003487974405
1712819528535,-3518.6722221039236
1712819528575,-4229.837188839912
1712819528616,-4912.075815071352
1712819528655,-5722.607491779141
1712819528696,-6378.119725480676
1712819528736,-6588.365468847565
1712819528776,-7450.480076847132
1712819528817,-8909.391916784924
1712819528857,-15931.954984685406
1712819528897,-20840.397397016175
1712819528937,-25466.355977109168
1712819528978,-25466.355977109168
1712819529018,-25466.355977109168
1712819529058,-25466.355977109168
1712819529098,-25466.355977109168
1712819529138,-25466.355977109168
1712819529178,-25466.355977109168
1712819529219,-25466.355977109168
1712819529259,-25516.771136517636
1712819529299,-25614.793911957182
1712819529339,-27787.976335349493
1712819529379,-28254.129108413123
1712819529420,-29449.84174246248
1712819529460,-33736.30035492638
1712819529500,-34882.480163060594
1712819529540,-36906.7775361808
1712819529580,-36985.28541248152
1712819529621,-37662.420844963286
1712819529660,-42255.59001479717
1712819529701,-42255.59001479717
1712819529741,-42255.59001479717
1712819529781,-42255.59001479717
1712819529822,-42255.59001479717
1712819529861,-42255.59001479717
1712819529901,-42255.59001479717
1712819529942,-42255.59001479717
1712819529982,-42255.59001479717
1712819530023,-42255.59001479717
1712819530062,-42255.59001479717
1712819530103,-42445.726795181865
1712819530143,-42445.726795181865
1712819530183,-42445.726795181865
1712819530224,-42445.726795181865
1712819530263,-42445.726795181865
1712819530304,-42445.726795181865
1712819530344,-42445.726795181865
1712819530384,-42445.726795181865
1712819530425,-42445.726795181865
1712819530465,-42445.726795181865
1712819530505,-44056.46839193092
1712819530546,-44056.46839193092
1712819530586,-44056.46839193092
1712819530627,-44056.46839193092
1712819530666,-44056.46839193092
1712819530706,-44056.46839193092
1712819530747,-44056.46839193092
1712819530787,-44056.46839193092
1712819530828,-44056.46839193092
1712819530867,-44056.46839193092
1712819530908,-44056.46839193092
1712819530948,-34829.89163005608
1712819530988,-26677.70971774729
1712819531029,-23694.019648520276
1712819531069,-23694.019648520276
1712819531109,-23694.019648520276
1712819531150,-23694.019648520276
1712819531190,-23694.019648520276
1712819531231,-23694.019648520276
1712819531270,-23694.019648520276
1712819531310,-21739.86598913651
1712819531351,-20641.701246012934
1712819531391,-20077.568749082973
1712819531432,-18328.057822240284
1712819531471,-14989.426678648219
1712819531512,-14989.426678648219
1712819531552,-14989.426678648219
1712819531592,-14989.426678648219
1712819531633,-14989.426678648219
1712819531673,-14989.426678648219
1712819531713,-14989.426678648219
1712819531753,-14989.426678648219
1712819531793,-12920.329675621819
1712819531834,-6596.13677401375
1712819531874,-97.31556103983894
1712819531914,8059.8951042951085
1712819531969,13562.892589739058
1712819532009,15477.056061820127
1712819532050,15477.056061820127
1712819532089,15477.056061820127
1712819532130,15801.964876359794
1712819532170,16980.805055325152
1712819532210,18408.60041578859
1712819532251,19716.960001399973
1712819532290,20862.91163365147
1712819532330,21594.770325218327
1712819532371,22147.403474099934
1712819532411,22147.403474099934
1712819532452,21594.770325218327
1712819532492,20862.91163365147
1712819532532,19716.960001399973
1712819532572,19064.583702772623
1712819532612,18408.60041578859
1712819532653,16980.805055325152
1712819532692,15801.964876359794
1712819532733,15477.056061820127
1712819532773,15336.372769700829
1712819532813,14209.591662038118
1712819532854,5781.685668564867
1712819532893,-3638.695726201404
1712819532933,-4047.741601143498
1712819532974,-4849.190659835935
1712819533014,-5028.33905005455
1712819533055,-5028.33905005455
1712819533094,-5028.33905005455
1712819533134,-5028.33905005455
1712819533174,-5028.33905005455
1712819533215,-5028.33905005455
1712819533255,-5028.33905005455
1712819533295,-5028.33905005455
1712819533335,-5028.33905005455
1712819533375,-4849.190659835935
1712819533415,-4047.741601143498
1712819533457,162.801652709255
1712819533496,1952.4372330219485
1712819533536,7732.349631008692
1712819533576,9446.800775490003
1712819533616,10810.872001949232
1712819533657,11042.795985043515
1712819533697,11290.20918970462
1712819533737,12461.620894855121
1712819533777,12985.832851907238
1712819533818,13916.225618446246
1712819533858,14998.296426226152
1712819533898,17177.245747014415
1712819533938,18811.25984948175
1712819533978,19093.59012995567
1712819534019,21581.771667504683
1712819534060,25175.242403703975
1712819534099,28539.591366235167
1712819534139,28539.591366235167
1712819534181,28539.591366235167
1712819534221,28539.591366235167
1712819534262,28539.591366235167
1712819534301,28539.591366235167
1712819534341,28539.591366235167
1712819534382,28539.591366235167
1712819534422,28539.591366235167
1712819534463,28539.591366235167
1712819534502,28539.591366235167
1712819534543,24723.071959361434
1712819534583,24595.608567302814
1712819534623,22353.79144722363
1712819534664,20657.174169047037
1712819534704,11317.779255151749
1712819534744,-1925.8833905379288
1712819534784,-2226.3415801881347
1712819534824,-3784.4908973292913
1712819534865,-4881.857386431657
1712819534905,-5927.087436913513
1712819534945,-10515.706845412496
1712819534985,-11478.918447782984
1712819535026,-14710.916393014602
1712819535066,-14817.132913349662
1712819535106,-14860.656618244946
1712819535146,-16646.176695192466
1712819535186,-16678.665192724904
1712819535227,-24321.84040750377
1712819535268,-24321.84040750377
1712819535307,-24321.84040750377
1712819535347,-24321.84040750377
1712819535388,-24321.84040750377
1712819535428,-24321.84040750377
1712819535469,-24321.84040750377
1712819535509,-24321.84040750377
1712819535549,-24321.84040750377
1712819535589,-24321.84040750377
1712819535631,-24321.84040750377
1712819535672,-24321.84040750377
1712819535711,-24321.84040750377
1712819535752,-24321.84040750377
1712819535792,-24321.84040750377
1712819535832,-24321.84040750377
1712819535873,-26893.200902728364
1712819535912,-24016.982792955125
1712819535952,-24016.982792955125
1712819535993,-24016.982792955125
1712819536033,-24016.982792955125
1712819536074,-24016.982792955125
1712819536113,-24016.982792955125
1712819536153,-24016.982792955125
1712819536193,-24016.982792955125
1712819536234,-24016.982792955125
1712819536274,-24016.982792955125
1712819536314,-24016.982792955125
1712819536354,-24016.982792955125
1712819536394,-24016.982792955125
1712819536434,-24016.982792955125
1712819536475,-24016.982792955125
1712819536515,-11576.260033165338
1712819536555,-8963.7689366478
1712819536595,-6308.747124654008
1712819536635,-5765.508041867288
1712819536676,-5314.204011947848
1712819536716,-5063.53366951365
1712819536756,-527.682292856276
1712819536796,249.38226824160665
1712819536836,3007.2989743682556
1712819536877,5019.18093002704
1712819536917,5176.682041269029
1712819536957,6269.974054312101
1712819536997,6646.857292506844
1712819537037,8173.781272337306
1712819537078,8474.512159351725
1712819537118,9084.823468239512
1712819537158,11908.513708221726
1712819537199,11908.513708221726
1712819537239,9084.823468239512
1712819537280,9084.823468239512
1712819537319,9084.823468239512
1712819537359,9084.823468239512
1712819537400,9084.823468239512
1712819537440,9084.823468239512
1712819537481,8173.781272337306
1712819537520,6646.857292506844
1712819537561,6269.974054312101
1712819537601,5019.18093002704
1712819537641,-48.723494426347315
1712819537682,-14761.60053903889
1712819537722,-17999.490624892525
1712819537762,-20361.317905857693
1712819537802,-24932.299622964114
1712819537842,-26012.533421867527
1712819537883,-26012.533421867527
1712819537923,-26012.533421867527
1712819537963,-26012.533421867527
1712819538003,-26012.533421867527
1712819538044,-26012.533421867527
1712819538085,-26012.533421867527
1712819538124,-27648.225528766867
1712819538165,-29952.154703318607
1712819538205,-35966.33943988243
1712819538245,-38371.98616838921
1712819538286,-39938.4765452717
1712819538325,-44854.571393645136
1712819538366,-44854.571393645136
1712819538406,-44854.571393645136
1712819538446,-44854.571393645136
1712819538487,-44854.571393645136
1712819538527,-44854.571393645136
1712819538567,-60062.542019865476
1712819538607,-60062.542019865476
1712819538648,-60062.542019865476
1712819538688,-60062.542019865476
1712819538728,-60062.542019865476
1712819538768,-60062.542019865476
1712819538808,-60062.542019865476
1712819538849,-60062.542019865476
1712819538890,-60062.542019865476
1712819538929,-60062.542019865476
1712819538969,-60062.542019865476
1712819539010,-45719.522642219206
1712819539050,-44768.47165013384
1712819539091,-43368.245890275575
1712819539131,-39207.07355082384
1712819539171,-34056.50883793598
1712819539211,-33028.65131385578
1712819539251,-32933.76768437517
1712819539292,-25154.625151426997
1712819539331,-22849.224457594566
1712819539372,-21480.96192899742
1712819539412,-18775.776200700086
1712819539452,-14957.048840535805
1712819539493,-11274.699608427007
1712819539532,-10444.094412650447
1712819539572,-7924.953310295008
1712819539613,-7924.953310295008
1712819539653,-7924.953310295008
1712819539694,-7924.953310295008
1712819539733,-7924.953310295008
1712819539773,-7924.953310295008
1712819539813,-7008.041267869994
1712819539854,15479.588481615763
1712819539894,17147.11248141993
1712819539934,17628.296002213145
1712819539974,24976.408597541973
1712819540014,25823.403429357568
1712819540054,30374.378238955047
1712819540095,34360.292521702126
1712819540135,36051.21317710262
1712819540175,37534.14807351725
1712819540215,43253.873468799284
1712819540255,44608.72122720163
1712819540296,45061.86322905333
1712819540336,45061.86322905333
1712819540376,45061.86322905333
1712819540416,45061.86322905333
1712819540457,44608.72122720163
1712819540497,43472.38058710098
1712819540537,43253.873468799284
1712819540577,43253.873468799284
1712819540617,43253.873468799284
1712819540658,43253.873468799284
1712819540699,43253.873468799284
1712819540738,43253.873468799284
1712819540778,43253.873468799284
1712819540819,43253.873468799284
1712819540859,43253.873468799284
1712819540902,27847.26775340573
1712819540941,19169.51745643909
1712819540981,14882.147102630697
1712819541022,12485.200822440907
1712819541062,12404.866886888165
1712819541103,8778.952375122346
1712819541142,2849.904960353393
1712819541183,-5519.625481197378
1712819541223,-8088.911901332904
1712819541263,-8838.751767708221
1712819541304,-10147.816148353275
1712819541344,-12039.913206628757
1712819541384,-12039.913206628757
1712819541424,-12039.913206628757
1712819541464,-13188.850362576544
1712819541505,-13539.782533247024
1712819541545,-14884.076789242914
1712819541585,-14884.076789242914
1712819541625,-14884.076789242914
1712819541666,-13539.782533247024
1712819541707,-13188.850362576544
1712819541746,-13120.111335604684
1712819541787,-12304.790620564949
1712819541827,-12039.913206628757
1712819541867,-11629.766792323906
1712819541908,-10147.816148353275
1712819541947,-8795.252082304098
1712819541988,-8088.911901332904
1712819542028,-8088.911901332904
1712819542068,-3243.5109279670287
1712819542109,-322.3412269242108
1712819542149,4329.186608636053
1712819542189,4329.186608636053
1712819542229,5890.62899623788
1712819542269,5890.62899623788
1712819542310,5890.62899623788
1712819542350,5890.62899623788
1712819542390,5890.62899623788
1712819542430,5890.62899623788
1712819542470,5890.62899623788
1712819542511,5890.62899623788
1712819542551,8496.950154947117
1712819542591,12752.976804149803
1712819542631,12752.976804149803
1712819542671,12752.976804149803
1712819542712,12752.976804149803
1712819542752,12752.976804149803
1712819542792,12752.976804149803
1712819542832,12752.976804149803
1712819542872,12752.976804149803
1712819542913,12752.976804149803
1712819542952,12381.476693554781
1712819542993,12381.476693554781
1712819543033,12381.476693554781
1712819543073,12381.476693554781
1712819543114,14427.931925668381
1712819543153,16135.99701675633
1712819543193,19976.39094660571
1712819543234,21214.778782727662
1712819543274,22314.72419087123
1712819543315,24788.227278159466
1712819543354,29234.14964392502
1712819543394,29293.41137932148
1712819543435,30551.038513431326
1712819543475,30910.086656153202
1712819543516,30910.086656153202
1712819543555,32017.44726973353
1712819543596,32017.44726973353
1712819543636,32017.44726973353
1712819543676,31480.46800115984
1712819543717,30910.086656153202
1712819543756,30910.086656153202
1712819543798,30910.086656153202
1712819543838,30910.086656153202
1712819543878,31480.46800115984
1712819543919,31598.870792334434
1712819543959,32017.44726973353
1712819543999,32446.392102839425
1712819544024,33790.62041640002
1712819544064,34083.83883182076
1712819544105,36297.85124657722
1712819544145,38616.26112859417
1712819544185,38865.112042285036
1712819544225,39246.41752792243
1712819544265,39246.41752792243
1712819544306,39246.41752792243
1712819544345,40863.23887838982
1712819544385,40863.23887838982
1712819544426,40863.23887838982
1712819544466,39246.41752792243
1712819544507,39246.41752792243
1712819544546,39246.41752792243
1712819544587,39246.41752792243
1712819544627,39246.41752792243
1712819544667,39246.41752792243
1712819544708,39246.41752792243
1712819544747,39246.41752792243
1712819544788,39246.41752792243
1712819544828,39246.41752792243
1712819544868,33305.076445953455
1712819544909,20913.791363511467
1712819544949,17478.223029027693
1712819544989,12542.90075946413
1712819545029,12354.2326599136
1712819545070,10518.075523743872
1712819545111,9429.771754103014
1712819545150,7166.759904414415
1712819545190,4190.749774645548
1712819545231,3749.1659597470425
1712819545271,3570.4974537701346
1712819545312,2876.0449557586107
1712819545351,-228.62900748290122
1712819545392,-946.212527994765
1712819545432,-8198.524557585828
1712819545472,-8638.173817764502
1712819545513,-9652.115343049634
1712819545553,-10163.110620028106
1712819545593,-10672.938030872494
1712819545633,-11870.029028860386
1712819545673,-53048.40690949769
1712819545714,-67487.14241832588
1712819545754,-77152.64773982437
1712819545794,-84950.75116842147
1712819545834,-91023.33976996201
1712819545875,-95751.64844679972
1712819545915,-97285.18197708111
1712819545955,-97285.18197708111
1712819545995,-100029.88641817728
1712819546035,-101904.36084755021
1712819546075,-102158.42836917588
1712819546116,-102232.6790282065
1712819546156,-102741.85196485813
1712819546196,-106149.04205322778
1712819546236,-107376.77158722118
1712819546276,-108296.52507688734
1712819546317,-109936.55797431478
1712819546357,-110581.3412581291
1712819546397,-111023.2842251237
1712819546437,-120443.33894599578
1712819546477,-137869.68221858656
1712819546518,-137869.68221858656
1712819546557,-137869.68221858656
1712819546598,-137869.68221858656
1712819546638,-137869.68221858656
1712819546678,-137869.68221858656
1712819546719,-137869.68221858656
1712819546758,-137869.68221858656
1712819546798,-137869.68221858656
1712819546839,-138045.87726368592
1712819546879,-138075.9938138707
1712819546920,-141691.52911933186
1712819546959,-140129.43976425286
1712819546999,-138895.54162580613
1712819547040,-138075.9938138707
1712819547080,-138045.87726368592
1712819547121,-135549.12037650822
1712819547160,-131416.68939443282
1712819547201,-131379.49468055647
1712819547241,-131204.25042735692
1712819547281,-122628.43210558151
1712819547322,-122160.46344807046
1712819547362,-118974.6810957673
1712819547402,-116225.70128272427
1712819547442,-109531.1658376013
1712819547482,-109444.22627810063
1712819547523,-109444.22627810063
1712819547563,-109444.22627810063
1712819547603,-97447.97663525864
1712819547643,-86426.97677346831
1712819547684,-76218.8890411905
1712819547725,-70493.68312234711
1712819547764,-68840.41803833912
1712819547805,-67184.18730146624
1712819547845,-66643.27906113607
1712819547885,-66502.98908348661
1712819547926,-63142.19515725924
1712819547965,-62915.38692480768
1712819548006,-62262.391061391216
1712819548046,-55441.3175924425
1712819548086,-54459.395358160604
1712819548127,-49560.152111594565
1712819548167,-43302.5477968622
1712819548207,-34535.41155416309
1712819548247,-22655.348829803057
1712819548288,-10881.313084429596
1712819548329,801.1473086150363
1712819548368,6232.4424230232835
1712819548408,6232.4424230232835
1712819548449,6232.4424230232835
1712819548489,6989.315402464941
1712819548530,7840.685511721764
1712819548569,7840.685511721764
1712819548610,11547.282881215215
1712819548650,11849.822232289705
1712819548690,15512.112376090838
1712819548731,16166.877888228744
1712819548771,20678.232395967934
1712819548811,24019.234423984773
1712819548851,24019.234423984773
1712819548891,22633.947304727975
1712819548932,20604.347666874062
1712819548972,16166.877888228744
1712819549012,15512.112376090838
1712819549052,14780.927679581568
1712819549092,11849.822232289705
1712819549134,7840.685511721764
1712819549173,7665.668882276397
1712819549213,7665.668882276397
1712819549254,7665.668882276397
1712819549294,7665.668882276397
1712819549335,7840.685511721764
1712819549374,10582.820610937895
1712819549414,11849.822232289705
1712819549454,14780.927679581568
1712819549495,14780.927679581568
1712819549535,14780.927679581568
1712819549575,14780.927679581568
1712819549615,14780.927679581568
1712819549655,14780.927679581568
1712819549695,14780.927679581568
1712819549736,14780.927679581568
1712819549776,17984.30114168441
1712819549816,26217.316095596878
1712819549856,34694.89115245687
1712819549896,43938.400581443915
1712819549937,53780.12307497626
1712819549977,53780.12307497626
1712819550017,53780.12307497626
1712819550057,53780.12307497626
1712819550097,53780.12307497626
1712819550138,54161.97680729441
1712819550177,54161.97680729441
1712819550218,54217.524196098326
1712819550258,55090.55917520309
1712819550298,56253.124645181
1712819550339,56752.78098243335
1712819550378,57741.96539565362
1712819550419,57741.96539565362
1712819550459,57741.96539565362
1712819550499,57741.96539565362
1712819550540,57741.96539565362
1712819550580,57741.96539565362
1712819550620,60112.762057435466
1712819550660,60112.762057435466
1712819550700,60112.762057435466
1712819550741,58830.85796866473
1712819550781,58830.85796866473
1712819550821,58830.85796866473
1712819550861,58830.85796866473
1712819550901,58830.85796866473
1712819550942,58830.85796866473
1712819550982,58830.85796866473
1712819551022,58830.85796866473
1712819551063,58830.85796866473
1712819551103,55672.22449913481
1712819551144,49561.06883613742
1712819551183,48607.16950958315
1712819551224,44969.194916564506
1712819551264,44220.84915433172
1712819551304,43711.67660564091
1712819551345,43602.24783209385
1712819551385,40114.17291214503
1712819551425,37154.078107971465
1712819551467,34377.82238360075
1712819551507,33467.13949089288
1712819551548,25477.801122542704
1712819551587,22939.9551178182
1712819551628,20839.96953167976
1712819551668,20092.078281192807
1712819551708,19793.741848266218
1712819551749,19546.432848462136
1712819551789,19546.432848462136
1712819551829,18031.08146361215
1712819551869,13788.210255548358
1712819551910,13597.455793099478
1712819551950,13497.435006744694
1712819551990,12573.67339559435
1712819552030,12103.365679574898
1712819552070,9889.777785404818
1712819552111,9830.788128159009
1712819552152,8643.644690344343
1712819552191,8643.644690344343
1712819552231,8643.644690344343
1712819552272,9830.788128159009
1712819552312,9889.777785404818
1712819552353,9889.777785404818
1712819552393,9889.777785404818
1712819552433,9889.777785404818
1712819552473,13788.210255548358
1712819552513,15483.373007860035
1712819552554,19309.75609221449
1712819552593,19309.75609221449
1712819552634,19309.75609221449
1712819552674,24011.1628501846
1712819552714,31607.765947925393
1712819552755,38172.764447247144
1712819552794,38985.25214302214
1712819552834,41322.91700387932
1712819552875,41675.082859678194
1712819552915,43319.831963046454
1712819552955,43913.63811067003
1712819552995,46051.84334702371
1712819553035,46051.84334702371
1712819553075,46051.84334702371
1712819553116,46051.84334702371
1712819553156,46051.84334702371
1712819553196,46051.84334702371
1712819553236,46051.84334702371
1712819553276,46051.84334702371
1712819553316,46051.84334702371
1712819553357,46051.84334702371
1712819553397,46051.84334702371
1712819553437,41140.52467546472
1712819553478,40408.72603649297
1712819553518,40115.38346572197
1712819553559,22994.300425681286
1712819553599,4761.617007493507
1712819553639,-7376.000000374857
1712819553679,-19293.463707194198
1712819553719,-23170.37174301641
1712819553760,-27720.493682210566
1712819553800,-32785.20909322379
1712819553840,-36417.78403979982
1712819553880,-42969.255621065386
1712819553920,-43516.15666125831
1712819553961,-44812.3166918254
1712819554001,-45806.01153350482
1712819554041,-45871.09022614127
1712819554081,-46289.84522472788
1712819554121,-46424.734792285366
1712819554162,-46780.34811128257
1712819554202,-49522.33315756079
1712819554242,-59657.633095980156
1712819554283,-71079.86089636362
1712819554324,-71079.86089636362
1712819554365,-71079.86089636362
1712819554404,-71079.86089636362
1712819554444,-71079.86089636362
1712819554485,-71079.86089636362
1712819554525,-72789.01660290686
1712819554566,-75140.50769209629
1712819554605,-79619.89506874443
1712819554645,-80677.14721471723
1712819554686,-80796.0176705271
1712819554726,-80796.0176705271
1712819554767,-80677.14721471723
1712819554807,-79619.89506874443
1712819554847,-75879.93486764282
1712819554887,-75140.50769209629
1712819554928,-72789.01660290686
1712819554968,-70668.96717883926
1712819555008,-70056.09414168587
1712819555048,-69886.22380243335
1712819555088,-67816.21147240186
1712819555129,-66806.08518874552
1712819555170,-66510.87063371856
1712819555209,-64200.64940721961
1712819555249,-63986.69211666705
1712819555290,-63986.69211666705
1712819555330,-62167.551833804464
1712819555371,-56492.03577794484
1712819555411,-54182.282339342404
1712819555451,-52470.81032535643
1712819555491,-49981.87378838798
1712819555531,-47453.50352898659
1712819555572,-44961.1150877648
1712819555612,-43709.66832665983
1712819555652,-38732.43556646095
1712819555692,-38331.2875043829
1712819555732,-35958.560660929885
1712819555773,-34354.30914679635
1712819555813,-28066.879570153542
1712819555853,-25096.174408752006
1712819555893,-21983.55458666105
1712819555933,-21373.34095975128
1712819555974,-21373.34095975128
1712819556013,-21373.34095975128
1712819556054,-21373.34095975128
1712819556099,-21373.34095975128
1712819556139,-21373.34095975128
1712819556179,-18906.163938072044
1712819556219,-18233.10088719055
1712819556259,-16386.931294488255
1712819556299,-16280.868144774344
1712819556339,-14618.322730304208
1712819556380,-10940.402516975999
1712819556419,-10384.341538244626
1712819556460,-6431.216926431749
1712819556500,-6431.216926431749
1712819556540,-9366.619406749494
1712819556581,-10384.341538244626
1712819556620,-14618.322730304208
1712819556660,-14735.522687499877
1712819556700,-15284.26877350104
1712819556741,-14735.522687499877
1712819556781,-14618.322730304208
1712819556821,-12975.489339553518
1712819556861,-12697.722103590844
1712819556901,-10918.477863025386
1712819556941,-10384.341538244626
1712819556982,-9366.619406749494
1712819557021,-6672.874562291428
1712819557061,-6431.216926431749
1712819557102,-3414.6264481609687
1712819557142,-2520.4972206102684
1712819557182,-3414.6264481609687
1712819557222,-4477.419978721067
1712819557262,-6672.874562291428
1712819557302,-9366.619406749494
1712819557342,-10461.206461366732
1712819557383,-10918.477863025386
1712819557423,-10461.206461366732
1712819557463,-9673.398703149054
1712819557503,-7252.103965127841
1712819557543,-6672.874562291428
1712819557584,-4477.419978721067
1712819557623,-3706.294780254597
1712819557663,-3414.6264481609687
1712819557704,874.1043333359994
1712819557744,1411.7615337385796
1712819557784,4339.983866122551
1712819557824,4760.2185052854475
1712819557864,4760.2185052854475
1712819557904,4760.2185052854475
1712819557945,3731.2774597632233
1712819557985,3731.2774597632233
1712819558025,4825.80734313326
1712819558065,5153.724959337618
1712819558105,6166.298360615037
1712819558146,7298.550521616358
1712819558187,8675.760546042118
1712819558226,9158.361086184857
1712819558267,10287.854055375326
1712819558307,11817.820414426504
1712819558347,13605.785094534513
1712819558388,14069.929293934721
1712819558428,14282.02151221456
1712819558468,16834.71556285536
1712819558508,20344.70819104789
1712819558548,20510.176025360823
1712819558589,23221.29600584088
1712819558629,33351.612026338466
1712819558669,37015.96546414122
1712819558709,37015.96546414122
1712819558750,37034.21972121112
1712819558791,37034.21972121112
1712819558830,37034.21972121112
1712819558870,39039.58054906223
1712819558911,40909.8212406605
1712819558951,43482.085624160245
1712819558992,43555.83951496426
1712819559031,47637.77251697332
1712819559072,51857.315352749545
1712819559112,52137.99463012209
1712819559152,53820.89595072577
1712819559193,51857.315352749545
1712819559233,50843.221210113494
1712819559274,47637.77251697332
1712819559314,43482.085624160245
1712819559354,40909.8212406605
1712819559395,39699.02398070134
1712819559434,39039.58054906223
1712819559475,37034.21972121112
1712819559515,37034.21972121112
1712819559555,37034.21972121112
1712819559596,36508.46278973902
1712819559636,36508.46278973902
1712819559676,31796.752247976605
1712819559716,26514.84050262207
1712819559756,25018.078977704048
1712819559797,25018.078977704048
1712819559837,25018.078977704048
1712819559877,25018.078977704048
1712819559917,24020.648997808108
1712819559957,23945.337653528433
1712819559998,22367.81370120053
1712819560037,20681.187252533622
1712819560078,20129.365166738164
1712819560118,19307.91137371119
1712819560158,18640.743271536194
1712819560199,18628.03315093345
1712819560238,17950.07855729712
1712819560279,17758.96485762624
1712819560319,16951.399669283303
1712819560359,14253.123106752988
1712819560400,5182.23692150414
1712819560439,-546.6715285321698
1712819560480,-546.6715285321698
1712819560520,-546.6715285321698
1712819560560,-546.6715285321698
1712819560601,-546.6715285321698
1712819560640,-546.6715285321698
1712819560680,-546.6715285321698
1712819560721,-546.6715285321698
1712819560761,-546.6715285321698
1712819560802,-546.6715285321698
1712819560841,-2136.3901457269676
1712819560881,-2589.9519987010863
1712819560922,-2589.9519987010863
1712819560962,-2589.9519987010863
1712819561003,-2589.9519987010863
1712819561042,-2589.9519987010863
1712819561083,-2589.9519987010863
1712819561123,-2589.9519987010863
1712819561163,-2589.9519987010863
1712819561204,-2136.3901457269676
1712819561244,-2089.273585718358
1712819561284,376.39195955265313
1712819561324,1389.9288233579136
1712819561365,1389.9288233579136
1712819561406,1389.9288233579136
1712819561445,1389.9288233579136
1712819561485,1389.9288233579136
1712819561526,1389.9288233579136
1712819561566,1389.9288233579136
1712819561607,1389.9288233579136
1712819561646,1389.9288233579136
1712819561687,1389.9288233579136
1712819561727,1389.9288233579136
1712819561767,1389.9288233579136
1712819561808,1389.9288233579136
1712819561848,1389.9288233579136
1712819561888,1389.9288233579136
1712819561928,1389.9288233579136
1712819561968,1389.9288233579136
1712819562010,1389.9288233579136
1712819562049,1389.9288233579136
1712819562089,-60.906934523023665
1712819562130,-60.906934523023665
1712819562170,-60.906934523023665
1712819562211,-60.906934523023665
1712819562250,-60.906934523023665
1712819562291,-60.906934523023665
1712819562331,-60.906934523023665
1712819562371,-60.906934523023665
1712819562412,-60.906934523023665
1712819562452,-1076.0187252070755
1712819562492,-2393.6864644554444
1712819562533,-4029.3001789613627
1712819562573,-4029.3001789613627
1712819562614,-4029.3001789613627
1712819562653,-4029.3001789613627
1712819562693,-4029.3001789613627
1712819562734,-4029.3001789613627
1712819562774,-4029.3001789613627
1712819562815,-4029.3001789613627
1712819562854,-4856.576641460881
1712819562895,-8346.704218339175
1712819562935,-8346.704218339175
1712819562975,-8346.704218339175
1712819563016,-8346.704218339175
1712819563055,-8346.704218339175
1712819563096,-8346.704218339175
1712819563136,-8346.704218339175
1712819563176,-8346.704218339175
1712819563217,-8346.704218339175
1712819563256,-8346.704218339175
1712819563296,-8346.704218339175
1712819563337,-7411.041252330178
1712819563377,-7411.041252330178
1712819563418,-7411.041252330178
1712819563457,-7411.041252330178
1712819563497,-7411.041252330178
1712819563537,-7411.041252330178
1712819563578,-7411.041252330178
1712819563619,-7411.041252330178
1712819563658,-7411.041252330178
1712819563698,-4968.402858808171
1712819563738,-3410.6187709015794
1712819563778,-3070.4334159849677
1712819563819,-3070.4334159849677
1712819563859,-3070.4334159849677
1712819563899,-3070.4334159849677
1712819563939,-3070.4334159849677
1712819563979,-3070.4334159849677
1712819564020,-3070.4334159849677
1712819564060,-3070.4334159849677
1712819564100,-3070.4334159849677
1712819564140,5418.49354640767
1712819564180,9722.700868596323
1712819564221,18703.4627066548
1712819564261,18703.4627066548
1712819564301,18703.4627066548
1712819564342,18703.4627066548
1712819564382,18703.4627066548
1712819564423,18703.4627066548
1712819564462,18703.4627066548
1712819564502,18703.4627066548
1712819564543,18703.4627066548
1712819564583,18703.4627066548
1712819564624,18703.4627066548
1712819564663,22213.39413646888
1712819564704,21574.728371910285
1712819564744,21574.728371910285
1712819564784,21574.728371910285
1712819564825,21574.728371910285
1712819564865,17767.826215408044
1712819564905,17577.046402058564
1712819564945,17568.901788238203
1712819564986,17557.09846462845
1712819565026,17198.3678929382
1712819565066,16582.641215479467
1712819565106,15045.485715863062
1712819565147,14898.252041390631
1712819565187,14860.497058063513
1712819565228,14222.142957939766
1712819565267,13915.241910836194
1712819565308,405.84204549062997
1712819565348,-7047.384375626454
1712819565389,-7152.307154508308
1712819565430,-12894.059454047587
1712819565470,-13006.795002348488
1712819565510,-16028.8656426128
1712819565550,-16028.8656426128
1712819565591,-16028.8656426128
1712819565632,-18229.597628178773
1712819565671,-18706.8262774467
1712819565711,-19993.72841784195
1712819565752,-24779.146151445806
1712819565792,-27234.711453412427
1712819565833,-28246.71027559694
1712819565872,-30274.95613562409
1712819565913,-30679.468659579055
1712819565953,-31565.363333040616
1712819565993,-33251.4400216043
1712819566034,-33251.4400216043
1712819566074,-33251.4400216043
1712819566114,-31696.904488245025
1712819566155,-31565.363333040616
1712819566195,-30679.468659579055
1712819566235,-30274.95613562409
1712819566275,-30274.95613562409
1712819566315,-30274.95613562409
1712819566355,-30274.95613562409
1712819566395,-31565.363333040616
1712819566436,-31696.904488245025
1712819566476,-31696.904488245025
1712819566516,-32674.55845691124
1712819566556,-32674.55845691124
1712819566596,-32774.106933282455
1712819566637,-32674.55845691124
1712819566676,-31696.904488245025
1712819566717,-30738.089161790907
1712819566757,-30738.089161790907
1712819566797,-30738.089161790907
1712819566838,-30332.709414727986
1712819566877,-29505.37253638194
1712819566918,-29129.951785530895
1712819566958,-29060.913937488105
1712819566998,-28726.1574126645
1712819567039,-28726.1574126645
1712819567078,-28726.1574126645
1712819567119,-28428.710463310592
1712819567159,-28261.54822671064
1712819567199,-22365.814386984333
1712819567240,-17423.68923964724
1712819567279,-17211.471682606963
1712819567320,-16550.529243333032
1712819567360,-13208.274350935128
1712819567400,-13208.274350935128
1712819567441,-12207.306681597605
1712819567481,-10902.20691793738
1712819567521,-10543.872615320142
1712819567561,-9517.989055715501
1712819567601,-5818.895462497603
1712819567642,-4695.742614153773
1712819567682,-3307.132966984529
1712819567722,-550.8275198950432
1712819567762,290.7361264619976
1712819567802,290.7361264619976
1712819567844,290.7361264619976
1712819567883,290.7361264619976
1712819567923,290.7361264619976
1712819567964,290.7361264619976
1712819568004,5798.121054462623
1712819568045,21721.834472516086
1712819568084,29597.91640603356
1712819568124,29597.91640603356
1712819568163,29597.91640603356
1712819568204,29597.91640603356
1712819568244,29597.91640603356
1712819568284,29597.91640603356
1712819568324,30853.525770006236
1712819568364,37184.21023100661
1712819568404,38663.13062717207
1712819568445,42642.746285648085
1712819568485,42940.69977889769
1712819568525,42940.69977889769
1712819568565,42940.69977889769
1712819568605,42642.746285648085
1712819568646,37184.21023100661
1712819568686,33881.970979192294
1712819568726,30853.525770006236
1712819568766,29183.92403880693
1712819568807,28958.550508559914
1712819568847,22461.498703348218
1712819568887,21403.669889284763
1712819568927,19934.928143904777
1712819568967,16925.857659158297
1712819569008,16925.857659158297
1712819569049,15161.951197257964
1712819569088,11758.416828336893
1712819569128,9825.25322838081
1712819569169,6820.7978902871255
1712819569209,6149.503940321971
1712819569250,5431.438673057128
1712819569290,4364.189525982598
1712819569330,2462.260399865918
1712819569370,1066.8282031514682
1712819569410,666.1316730706021
1712819569451,129.8643756415695
1712819569491,82.74894727393985
1712819569531,-1288.0213789353147
1712819569571,-2730.331737660803
1712819569611,-11401.124938580673
1712819569653,-23359.531598441536
1712819569692,-27564.711245015496
1712819569732,-29116.170089163817
1712819569773,-29306.67670877464
1712819569813,-29306.67670877464
1712819569854,-29306.67670877464
1712819569893,-29306.67670877464
1712819569933,-29306.67670877464
1712819569973,-29306.67670877464
1712819570014,-29306.67670877464
1712819570054,-29306.67670877464
1712819570094,-29306.67670877464
1712819570134,-29116.170089163817
1712819570174,-27564.711245015496
1712819570214,-17601.9118751192
1712819570255,-8687.282273191959
1712819570295,-6447.374889990315
1712819570335,-4854.140707039274
1712819570375,2618.8798967024777
1712819570415,6659.561264161952
1712819570456,7752.375083873048
1712819570496,8620.427774329204
1712819570536,10588.09891065862
1712819570576,10766.713365597185
1712819570616,11423.136018353049
1712819570657,16415.028134065913
1712819570696,19221.804956119042
1712819570737,19221.804956119042
1712819570777,19221.804956119042
1712819570817,19221.804956119042
1712819570858,19221.804956119042
1712819570897,19221.804956119042
1712819570937,19221.804956119042
1712819570978,16415.028134065913
1712819571018,15160.786034060176
1712819571059,15160.786034060176
1712819571098,15160.786034060176
1712819571138,16415.028134065913
1712819571179,19221.804956119042
1712819571219,20163.048612348503
1712819571260,20163.048612348503
1712819571300,20163.048612348503
1712819571340,20163.048612348503
1712819571380,20163.048612348503
1712819571420,20163.048612348503
1712819571461,15160.786034060176
1712819571501,14251.990851844195
1712819571541,12843.040588280419
1712819571581,9140.53511644015
1712819571621,9140.53511644015
1712819571662,9140.53511644015
1712819571702,9140.53511644015
1712819571742,9140.53511644015
1712819571783,9140.53511644015
1712819571823,9140.53511644015
1712819571864,10534.503233676776
1712819571903,11869.245606552344
1712819571944,11869.245606552344
1712819571984,11869.245606552344
1712819572024,11869.245606552344
1712819572065,11869.245606552344
1712819572105,11869.245606552344
1712819572145,11869.245606552344
1712819572185,10534.503233676776
1712819572225,8653.9386372203
1712819572266,7675.243550043553
1712819572306,7082.0428682749625
1712819572346,6736.735754783265
1712819572386,6736.735754783265
1712819572427,6736.735754783265
1712819572468,6736.735754783265
1712819572507,6736.735754783265
1712819572548,6736.735754783265
1712819572589,6736.735754783265
1712819572629,3000.969835470896
1712819572670,3000.969835470896
1712819572709,3000.969835470896
1712819572750,3000.969835470896
1712819572790,3000.969835470896
1712819572830,3000.969835470896
1712819572871,2940.7058361312374
1712819572911,2496.833976005204
1712819572951,2051.7579994853586
1712819572991,790.4744903692044
1712819573032,427.1676116604358
1712819573073,142.2296385075897
1712819573112,-50.22106909379363
1712819573152,-567.8124468163587
1712819573192,-665.2418202932458
1712819573232,-985.4792930427939
1712819573274,-1022.5800932012498
1712819573313,-10451.648288014112
1712819573353,-10451.648288014112
1712819573393,-10451.648288014112
1712819573433,-10451.648288014112
1712819573474,-10451.648288014112
1712819573514,-10451.648288014112
1712819573554,-10451.648288014112
1712819573594,-10451.648288014112
1712819573634,-10451.648288014112
1712819573675,-10451.648288014112
1712819573715,-10451.648288014112
1712819573755,-9027.116732738214
1712819573795,-4529.646737731993
1712819573835,2711.1115580480546
1712819573876,3292.339557174593
1712819573915,3740.3297501555644
1712819573956,4238.656132021919
1712819573996,4238.656132021919
1712819574036,4238.656132021919
1712819574077,4238.656132021919
1712819574117,4238.656132021919
1712819574157,4238.656132021919
1712819574197,4312.876219414873
1712819574237,6496.452174396254
1712819574278,6520.020167429233
1712819574318,6520.020167429233
1712819574358,6520.020167429233
1712819574398,6496.452174396254
1712819574438,4817.375082480721
1712819574480,4312.876219414873
1712819574519,4238.656132021919
1712819574559,4049.364176310133
1712819574600,4049.364176310133
1712819574640,4049.364176310133
1712819574681,2462.5975009687245
1712819574720,1815.2748672741
1712819574760,1273.9758385294117
1712819574801,1110.5549671705812
1712819574841,1110.5549671705812
1712819574882,1815.2748672741
1712819574921,1815.2748672741
1712819574962,4049.364176310133
1712819575002,4235.567578990478
1712819575042,4235.567578990478
1712819575083,4235.567578990478
1712819575123,4235.567578990478
1712819575163,4235.567578990478
1712819575206,4235.567578990478
1712819575243,1078.388600296108
1712819575284,1078.388600296108
1712819575324,1078.388600296108
1712819575364,1078.388600296108
1712819575405,1078.388600296108
1712819575445,1078.388600296108
1712819575486,1078.388600296108
1712819575525,1078.388600296108
1712819575566,1078.388600296108
1712819575606,1078.388600296108
1712819575646,-276.3382435650565
1712819575687,-3644.025059668813
1712819575727,-3644.025059668813
1712819575767,-3644.025059668813
1712819575807,-3644.025059668813
1712819575847,-3644.025059668813
1712819575888,-3644.025059668813
1712819575929,-3644.025059668813
1712819575969,-3849.7566634970717
1712819576009,-4059.5637193536386
1712819576050,-4402.291178472107
1712819576091,-4462.3576864292845
1712819576130,-4671.501563200727
1712819576171,-4671.501563200727
1712819576211,-4402.291178472107
1712819576251,-4238.205697871279
1712819576292,-4238.205697871279
1712819576331,-3849.7566634970717
1712819576371,-3678.3699722117744
1712819576412,-2597.089751935331
1712819576452,-1156.3393608657643
1712819576493,314.47100346023217
1712819576533,2160.1554016708396
1712819576573,2524.6685749744065
1712819576613,2524.6685749744065
1712819576653,2524.6685749744065
1712819576694,2524.6685749744065
1712819576733,2160.1554016708396
1712819576774,2160.1554016708396
1712819576814,3647.391275160713
1712819576854,3741.7046126052737
1712819576895,6623.5995809696615
1712819576934,7008.283567855135
1712819576974,9187.209289923543
1712819577015,9305.068659556098
1712819577055,9313.821383135859
1712819577096,9511.697605380788
1712819577135,10280.262083915528
1712819577175,10341.431895457441
1712819577216,11623.756214872003
1712819577256,13242.711352294777
1712819577297,15057.294938983861
1712819577336,11623.756214872003
1712819577377,10280.262083915528
1712819577420,9511.697605380788
1712819577457,9313.821383135859
1712819577498,9313.821383135859
1712819577538,9313.821383135859
1712819577578,9313.821383135859
1712819577618,9313.821383135859
1712819577658,9313.821383135859
1712819577699,9313.821383135859
1712819577739,6032.320580641506
1712819577779,6032.320580641506
1712819577819,6032.320580641506
1712819577860,6032.320580641506
1712819577901,6032.320580641506
1712819577940,6032.320580641506
1712819577980,6032.320580641506
1712819578021,6032.320580641506
1712819578061,4614.268775485922
1712819578102,3531.3841751175933
1712819578141,2222.661209381884
1712819578182,713.0350169804879
1712819578222,713.0350169804879
1712819578262,713.0350169804879
1712819578303,713.0350169804879
1712819578343,713.0350169804879
1712819578383,713.0350169804879
1712819578423,713.0350169804879
1712819578464,713.0350169804879
1712819578505,-5285.603974229423
1712819578544,-6233.120024010539
1712819578585,-6233.120024010539
1712819578625,-6233.120024010539
1712819578665,-6233.120024010539
1712819578706,-6233.120024010539
1712819578746,-8769.60995043721
1712819578786,-9949.051643706392
1712819578826,-10120.344050508458
1712819578866,-11847.128902014578
1712819578907,-11880.206089647021
1712819578947,-11906.652645231923
1712819578987,-12061.079099426745
1712819579027,-11906.652645231923
1712819579068,-11880.206089647021
1712819579108,-11847.128902014578
1712819579148,-9949.051643706392
1712819579188,-9492.892470330931
1712819579228,-8769.60995043721
1712819579269,-6233.120024010539
1712819579310,-5797.7674627746455
1712819579350,-3352.7703417306766
1712819579390,-2185.142707677558
1712819579430,-2185.142707677558
1712819579470,-5797.7674627746455
1712819579511,-7008.920281874947
1712819579551,-8001.965150563512
1712819579591,-8001.965150563512
1712819579633,-8001.965150563512
1712819579671,-8001.965150563512
1712819579712,-7008.920281874947
1712819579751,-6984.817986496724
1712819579792,-5797.7674627746455
1712819579832,-4157.506161322817
1712819579873,-2185.142707677558
1712819579914,-2159.282987647224
1712819579953,-1155.3977559017949
1712819579993,-1155.3977559017949
1712819580033,-1155.3977559017949
1712819580073,-1155.3977559017949
1712819580114,-2185.142707677558
1712819580154,-4157.506161322817
1712819580194,-6021.40612603398
1712819580240,-6984.817986496724
1712819580280,-6984.817986496724
1712819580321,-6984.817986496724
1712819580360,-6984.817986496724
1712819580401,-6984.817986496724
1712819580441,-6984.817986496724
1712819580481,-6021.40612603398
1712819580522,-4374.256014320999
1712819580561,-4157.506161322817
1712819580601,-1155.3977559017949
1712819580641,-995.0747923145536
1712819580681,-995.0747923145536
1712819580722,-995.0747923145536
1712819580762,-995.0747923145536
1712819580802,-995.0747923145536
1712819580842,-3239.049786729738
1712819580883,-3239.049786729738
1712819580924,-3239.049786729738
1712819580963,-2445.4796087655704
1712819581003,-1221.1602224193048
1712819581044,-1221.1602224193048
1712819581084,-1221.1602224193048
1712819581125,-1221.1602224193048
1712819581164,-1221.1602224193048
1712819581205,-1221.1602224193048
1712819581245,-995.0747923145536
1712819581285,-105.44222582131624
1712819581326,-38.454336741473526
1712819581366,1161.6259039165452
1712819581406,1161.6259039165452
1712819581446,1161.6259039165452
1712819581487,-38.454336741473526
1712819581527,-105.44222582131624
1712819581567,-1221.1602224193048
1712819581607,-2445.4796087655704
1712819581647,-3239.049786729738
1712819581688,-5000.403272372438
1712819581729,-5621.857054864522
1712819581768,-6415.124993654434
1712819581808,-8348.73483777279
1712819581849,-9764.369878208498
1712819581889,-10337.658343143295
1712819581930,-16580.25723455916
1712819581970,-22933.08472741209
1712819582010,-22933.08472741209
1712819582050,-22933.08472741209
1712819582090,-22933.08472741209
1712819582131,-22933.08472741209
1712819582171,-22933.08472741209
1712819582211,-24223.414774128934
1712819582251,-24223.414774128934
1712819582291,-24223.414774128934
1712819582333,-24223.414774128934
1712819582372,-24223.414774128934
1712819582412,-24223.414774128934
1712819582453,-23758.069010783453
1712819582493,-22862.95101406332
1712819582534,-22156.84311421984
1712819582573,-21564.177024347475
1712819582613,-21458.442620527698
1712819582654,-19445.200741901994
1712819582694,-18656.761577904224
1712819582735,-16680.62276793667
1712819582774,-16531.820589037612
1712819582815,-16470.18163987249
1712819582855,-16094.112506937934
1712819582895,-15721.60350393923
1712819582936,-13838.381892948411
1712819582975,-11046.078821567819
1712819583016,-11046.078821567819
1712819583056,-11046.078821567819
1712819583096,-11046.078821567819
1712819583137,-11046.078821567819
1712819583176,-11046.078821567819
1712819583216,-11046.078821567819
1712819583257,-11046.078821567819
1712819583297,-10383.153319215635
1712819583338,-6314.204715048429
1712819583377,-5360.838917554822
1712819583417,-4052.9845814639702
1712819583457,-289.2577128247358
1712819583498,-289.2577128247358
1712819583539,-289.2577128247358
1712819583578,-289.2577128247358
1712819583618,-3820.2964958194643
1712819583659,-5360.838917554822
1712819583699,-6314.204715048429
1712819583740,-9691.969018994598
1712819583779,-9691.969018994598
1712819583819,-6314.204715048429
1712819583860,-3820.2964958194643
1712819583900,-3531.3597983203363
1712819583941,-289.2577128247358
1712819583980,1796.7640991695225
1712819584021,4100.521125053754
1712819584061,4289.144308628049
1712819584101,4433.6606070357375
1712819584142,5384.333177984925
1712819584181,5500.963194075506
1712819584222,6097.37499012379
1712819584262,6213.174006322399
1712819584302,7750.78507418884
1712819584343,6097.37499012379
1712819584383,5500.963194075506
1712819584423,5500.963194075506
1712819584463,5500.963194075506
1712819584504,5500.963194075506
1712819584544,5500.963194075506
1712819584585,5500.963194075506
1712819584626,5500.963194075506
1712819584666,5500.963194075506
1712819584706,5500.963194075506
1712819584747,5495.919922976755
1712819584787,400.841829450801
1712819584827,-2205.52609158447
1712819584867,-5227.666845017578
1712819584907,-11519.58673950797
1712819584948,-12371.445421004202
1712819584988,-12371.445421004202
1712819585028,-12371.445421004202
1712819585068,-13302.85306033492
1712819585109,-13302.85306033492
1712819585150,-15723.61475475016
1712819585189,-20454.429803893203
1712819585229,-20454.429803893203
1712819585269,-20571.558908617822
1712819585310,-25070.2002454591
1712819585351,-25279.56040478684
1712819585390,-26507.076494756155
1712819585431,-27540.93489046092
1712819585471,-27901.33456098009
1712819585511,-28056.36640991969
1712819585552,-29348.682992887683
1712819585592,-28056.36640991969
1712819585632,-27901.33456098009
1712819585672,-26698.135882901028
1712819585713,-27901.33456098009
1712819585753,-27995.717181419488
1712819585793,-29348.682992887683
1712819585833,-29461.434302086476
1712819585874,-30506.55110607948
1712819585914,-31561.822883331217
1712819585955,-31895.423176512588
1712819585994,-33587.94103191979
1712819586036,-34294.30129046878
1712819586076,-34632.80902701174
1712819586116,-37659.671421126
1712819586157,-38076.84195454093
1712819586196,-38504.70122223068
1712819586236,-42366.505704785
1712819586277,-42747.871763056144
1712819586317,-45415.18095759023
1712819586358,-45415.18095759023
1712819586397,-45870.624941302696
1712819586437,-45870.624941302696
1712819586478,-46225.59519391088
1712819586519,-46291.47396552586
1712819586560,-46340.521410825895
1712819586599,-46868.41463192436
1712819586639,-48393.92495370982
1712819586680,-48393.92495370982
1712819586720,-48393.92495370982
1712819586761,-48393.92495370982
1712819586801,-46868.41463192436
1712819586841,-46340.521410825895
1712819586881,-46340.521410825895
1712819586921,-46340.521410825895
1712819586962,-45415.18095759023
1712819587002,-42508.18411844876
1712819587042,-42164.083881217986
1712819587082,-40950.44080848945
1712819587122,-37097.95695689903
1712819587163,-33540.38681404991
1712819587203,-24974.74854508415
1712819587243,-18707.507427074248
1712819587284,-17548.869279673556
1712819587324,-17548.869279673556
1712819587365,-17548.869279673556
1712819587404,-17217.926805328345
1712819587444,-16825.573481190484
1712819587485,-16825.573481190484
1712819587525,-16011.495429960312
1712819587566,-12383.719508481212
1712819587605,-12202.284427321749
1712819587646,-11085.693551816978
1712819587686,-10617.705164651852
1712819587726,-8626.355158758117
1712819587767,-8425.184572850354
1712819587807,-7632.2365154679865
1712819587847,-7583.021018967498
1712819587887,-6096.83493994968
1712819587927,-5907.991050768644
1712819587969,-5907.991050768644
1712819588008,-5907.991050768644
1712819588048,-2340.04893352231
1712819588089,345.1416263070423
1712819588129,562.520934548229
1712819588170,1350.1867046321277
1712819588209,1825.0393603178672
1712819588250,1825.0393603178672
1712819588290,1825.0393603178672
1712819588330,2035.0987551154103
1712819588371,2422.387507471489
1712819588411,2842.294328262564
1712819588451,4647.0391840108205
1712819588491,6487.903437389061
1712819588531,7004.748258110369
1712819588573,7185.070023999549
1712819588613,7185.070023999549
1712819588653,7185.070023999549
1712819588693,7185.070023999549
1712819588734,7185.070023999549
1712819588774,7185.070023999549
1712819588814,7185.070023999549
1712819588854,9406.00900310697
1712819588894,9551.36005973164
1712819588934,10189.603423216846
1712819588975,10451.801609592047
1712819589015,12110.894850965124
1712819589055,12940.183209299576
1712819589095,12971.768396984553
1712819589135,13330.030312310439
1712819589176,13789.991700905608
1712819589216,13915.483392850962
1712819589256,15078.077663351083
1712819589296,15525.825402203714
1712819589336,17767.7899701579
1712819589377,19121.018115106504
1712819589416,20826.03976988606
1712819589457,20826.03976988606
1712819589497,20826.03976988606
1712819589537,20826.03976988606
1712819589578,17767.7899701579
1712819589617,17767.7899701579
1712819589657,17767.7899701579
1712819589698,17767.7899701579
1712819589738,17767.7899701579
1712819589779,17767.7899701579
1712819589818,17767.7899701579
1712819589859,17767.7899701579
1712819589899,17767.7899701579
1712819589939,17767.7899701579
1712819589980,19153.868502601283
1712819590020,19153.868502601283
1712819590060,19153.868502601283
1712819590100,19153.868502601283
1712819590140,19153.868502601283
1712819590182,19153.868502601283
1712819590221,19153.868502601283
1712819590261,19153.868502601283
1712819590302,16735.009458079934
1712819590342,16513.067714299075
1712819590383,15652.105041005183
1712819590422,13920.507804834284
1712819590463,13920.507804834284
1712819590503,13920.507804834284
1712819590543,13920.507804834284
1712819590584,13920.507804834284
1712819590624,13920.507804834284
1712819590664,13920.507804834284
1712819590704,13920.507804834284
1712819590744,8916.868377847131
1712819590785,5202.738259704784
1712819590825,3725.5790021065623
1712819590865,3725.5790021065623
1712819590905,3725.5790021065623
1712819590946,3725.5790021065623
1712819590987,3725.5790021065623
1712819591026,3725.5790021065623
1712819591066,3725.5790021065623
1712819591106,3725.5790021065623
1712819591147,3269.468004703056
1712819591188,2952.2794664362445
1712819591227,2361.9188268731814
1712819591268,2296.2608740532305
1712819591309,1551.0950845081825
1712819591350,1486.7088451469317
1712819591391,1486.7088451469317
1712819591430,1486.7088451469317
1712819591471,1486.7088451469317
1712819591511,1486.7088451469317
1712819591551,1486.7088451469317
1712819591592,1486.7088451469317
1712819591632,-771.7391157641541
1712819591672,-966.4523806395009
1712819591712,-2421.316557217622
1712819591753,-2676.5448853007983
1712819591793,-6080.155550398398
1712819591833,-6474.656593225896
1712819591873,-10754.606941305334
1712819591913,-10785.886476666667
1712819591953,-11400.662877244642
1712819591994,-12898.090135230683
1712819592034,-12898.090135230683
1712819592074,-12898.090135230683
1712819592114,-12898.090135230683
1712819592154,-12898.090135230683
1712819592195,-11987.692753696116
1712819592234,-11400.662877244642
1712819592276,-10988.05848800065
1712819592307,-10785.886476666667
1712819592347,-10592.749390308047
1712819592388,-10284.73364449921
1712819592427,-10284.73364449921
1712819592468,-10284.73364449921
1712819592508,-10284.73364449921
1712819592548,-10284.73364449921
1712819592589,-8963.443975206697
1712819592628,-6149.72009284934
1712819592668,-2536.820834170794
1712819592708,4607.891466641566
1712819592748,15006.810656176647
1712819592789,25145.426233637612
1712819592829,35865.381245443365
1712819592869,39475.01247788407
1712819592909,41526.280759694055
1712819592949,42031.79236870678
1712819592990,47983.68580056983
1712819593029,51683.75090382993
1712819593069,53703.405367605155
1712819593109,54936.45684771892
1712819593149,54936.45684771892
1712819593190,54936.45684771892
1712819593230,54936.45684771892
1712819593270,54936.45684771892
1712819593310,54936.45684771892
1712819593350,54936.45684771892
1712819593391,54936.45684771892
1712819593431,54936.45684771892
1712819593471,54936.45684771892
1712819593511,53703.405367605155
1712819593551,49455.03704482177
1712819593592,37173.532028828515
1712819593631,29983.25092116976
1712819593671,29983.25092116976
1712819593711,29983.25092116976
1712819593751,29983.25092116976
1712819593792,29983.25092116976
1712819593832,29739.4663436166
1712819593872,29011.06030194927
1712819593912,28830.376201518346
1712819593952,28729.87722400506
1712819593993,28711.267969501438
1712819594032,28278.293074512156
1712819594072,27302.590112649603
1712819594112,27147.422889126465
1712819594152,27147.422889126465
1712819594193,26382.38461916335
1712819594233,23594.700858075637
1712819594273,16319.590781750623
1712819594313,16319.590781750623
1712819594354,16319.590781750623
1712819594395,16319.590781750623
1712819594434,16319.590781750623
1712819594475,13589.317166458815
1712819594515,13529.645114841871
1712819594555,12613.09954094328
1712819594596,10239.044096283847
1712819594636,8829.143711078214
1712819594676,8648.698609464336
1712819594716,8399.808570541209
1712819594756,8144.402161183301
1712819594797,8144.402161183301
1712819594837,8144.402161183301
1712819594877,8399.808570541209
1712819594917,8648.698609464336
1712819594957,8819.316194495652
1712819594999,10239.044096283847
1712819595038,12013.48816010356
1712819595078,12013.48816010356
1712819595119,9649.16543918848
1712819595159,8819.316194495652
1712819595200,5261.397028867621
1712819595239,4240.369448493235
1712819595280,2720.8142929878086
1712819595320,1682.28364870511
1712819595360,1316.3924166925717
1712819595401,1316.3924166925717
1712819595441,1316.3924166925717
1712819595481,1316.3924166925717
1712819595521,1340.2569669629447
1712819595561,1340.2569669629447
1712819595602,2720.8142929878086
1712819595642,4992.015786811244
1712819595682,4992.015786811244
1712819595722,4992.015786811244
1712819595762,4992.015786811244
1712819595803,1403.1181348627433
1712819595843,1340.2569669629447
1712819595883,619.5656143825036
1712819595923,-1379.2608109791763
1712819595964,-3563.340611577034
1712819596004,-4233.431819518097
1712819596044,-4233.431819518097
1712819596084,-4233.431819518097
1712819596124,-4233.431819518097
1712819596164,-4375.60361205833
1712819596205,-4375.60361205833
1712819596245,-3563.340611577034
1712819596285,-2258.245186258573
1712819596325,-2258.245186258573
1712819596365,-2258.245186258573
1712819596406,-2258.245186258573
1712819596446,-2258.245186258573
1712819596486,-2258.245186258573
1712819596526,-2449.444345812546
1712819596567,-6303.271166502964
1712819596608,-7721.949456857517
1712819596648,-9719.231229854748
1712819596688,-10515.808189457748
1712819596728,-10515.808189457748
1712819596768,-10515.808189457748
1712819596809,-10515.808189457748
1712819596849,-10515.808189457748
1712819596889,-10515.808189457748
1712819596929,-9719.231229854748
1712819596969,-8799.836725552566
1712819597010,-6303.271166502964
1712819597050,-4254.202185789589
1712819597091,-4254.202185789589
1712819597131,-4254.202185789589
1712819597171,-4254.202185789589
1712819597212,-4254.202185789589
1712819597251,-4867.416071809828
1712819597292,-8799.836725552566
1712819597332,-10515.808189457748
1712819597372,-10956.205025165109
1712819597413,-11219.349965832662
1712819597453,-10956.205025165109
1712819597493,-10956.205025165109
1712819597533,-10825.979014222044
1712819597573,-10534.447409579298
1712819597615,-9588.058363197139
1712819597654,-8799.836725552566
1712819597694,-6589.094963686774
1712819597734,-4867.416071809828
1712819597775,-4254.202185789589
1712819597816,-2633.0564326178282
1712819597855,-2633.0564326178282
1712819597896,-2633.0564326178282
1712819597936,-2633.0564326178282
1712819597976,-4867.416071809828
1712819598017,-6589.094963686774
1712819598056,-7230.748760844115
1712819598097,-9588.058363197139
1712819598137,-9588.058363197139
1712819598177,-9588.058363197139
1712819598218,-9588.058363197139
1712819598258,-9588.058363197139
1712819598298,-9588.058363197139
1712819598338,-7230.748760844115
1712819598379,-6589.094963686774
1712819598419,-3724.1727143072058
1712819598459,-2633.0564326178282
1712819598499,235.16041150828823
1712819598540,235.16041150828823
1712819598580,235.16041150828823
1712819598621,235.16041150828823
1712819598660,235.16041150828823
1712819598701,-3167.5880181849934
1712819598741,-3724.1727143072058
1712819598781,-7230.748760844115
1712819598822,-9936.420142661082
1712819598862,-9936.420142661082
1712819598902,-9936.420142661082
1712819598942,-9936.420142661082
1712819598982,-9936.420142661082
1712819599023,-9936.420142661082
1712819599062,-7970.670225882903
1712819599103,-4039.0768680865876
1712819599143,-3724.1727143072058
1712819599183,-3167.5880181849934
1712819599224,-3167.5880181849934
1712819599263,-3167.5880181849934
1712819599303,-3167.5880181849934
1712819599344,-3167.5880181849934
1712819599384,-3167.5880181849934
1712819599425,-3167.5880181849934
1712819599465,-3167.5880181849934
1712819599505,-3167.5880181849934
1712819599545,-716.5096115458291
1712819599585,-716.5096115458291
1712819599626,-716.5096115458291
1712819599665,106.80494782002643
1712819599706,236.79667510697618
1712819599746,236.79667510697618
1712819599786,236.79667510697618
1712819599827,236.79667510697618
1712819599866,750.2827205432113
1712819599906,2201.554884271696
1712819599948,2785.485172642395
1712819599988,4966.872032507556
1712819600029,6426.41905808216
1712819600068,6437.286729078507
1712819600108,6437.286729078507
1712819600149,6437.286729078507
1712819600189,6437.286729078507
1712819600230,6437.286729078507
1712819600269,6437.286729078507
1712819600310,5949.893523352919
1712819600350,4966.872032507556
1712819600390,4966.872032507556
1712819600431,4966.872032507556
1712819600471,4966.872032507556
1712819600511,4966.872032507556
1712819600552,4966.872032507556
1712819600592,4966.872032507556
1712819600633,4966.872032507556
1712819600672,4966.872032507556
1712819600712,5889.25418683188
1712819600753,5949.893523352919
1712819600793,5949.893523352919
1712819600834,5949.893523352919
1712819600873,5949.893523352919
1712819600914,5949.893523352919
1712819600954,5949.893523352919
1712819600994,5949.893523352919
1712819601035,5949.893523352919
1712819601075,5949.893523352919
1712819601115,5949.893523352919
1712819601155,5889.25418683188
1712819601195,5889.25418683188
1712819601236,5889.25418683188
1712819601276,5889.25418683188
1712819601316,5889.25418683188
1712819601356,5889.25418683188
1712819601397,5889.25418683188
1712819601438,5889.25418683188
1712819601477,5889.25418683188
1712819601517,5889.25418683188
1712819601558,-1991.7832654488739
1712819601598,-3292.69167679362
1712819601639,-3292.69167679362
1712819601678,-3292.69167679362
1712819601718,-3292.69167679362
1712819601759,-3292.69167679362
1712819601799,-3292.69167679362
1712819601840,-3292.69167679362
1712819601880,-3292.69167679362
1712819601920,-3292.69167679362
1712819601960,-3292.69167679362
1712819602001,-4922.829760452267
1712819602041,-4922.829760452267
1712819602081,-4922.829760452267
1712819602121,-4922.829760452267
1712819602161,-4922.829760452267
1712819602201,-4922.829760452267
1712819602242,-4922.829760452267
1712819602282,-4922.829760452267
1712819602322,-4922.829760452267
1712819602362,-4922.829760452267
1712819602402,-4922.829760452267
1712819602443,-7886.728893798543
1712819602483,-7886.728893798543
1712819602523,-7886.728893798543
1712819602563,-7886.728893798543
1712819602603,-7886.728893798543
1712819602644,-7886.728893798543
1712819602683,-7886.728893798543
1712819602724,-7886.728893798543
1712819602764,-7886.728893798543
1712819602804,-7886.728893798543
1712819602845,-10357.84932853235
1712819602884,-10357.84932853235
1712819602924,-10357.84932853235
1712819602965,-10357.84932853235
1712819603005,-10357.84932853235
1712819603046,-10357.84932853235
1712819603085,-10357.84932853235
1712819603125,-10357.84932853235
1712819603166,-10357.84932853235
1712819603206,-10357.84932853235
1712819603247,-11816.723875420168
1712819603287,-11816.723875420168
1712819603328,-11816.723875420168
1712819603368,-11816.723875420168
1712819603408,-11816.723875420168
1712819603449,-11816.723875420168
1712819603489,-11816.723875420168
1712819603529,-11816.723875420168
1712819603569,-11816.723875420168
1712819603609,-11816.723875420168
1712819603651,-11816.723875420168
1712819603690,-12321.218423480634
1712819603730,-12321.218423480634
1712819603771,-12321.218423480634
1712819603811,-12321.218423480634
1712819603852,-12321.218423480634
1712819603891,-12321.218423480634
1712819603932,-12321.218423480634
1712819603972,-12321.218423480634
1712819604012,-11046.940469526686
1712819604053,-8970.732183185406
1712819604093,-8130.1569184684195
1712819604133,-6664.917187906336
1712819604173,-6664.917187906336
1712819604213,-6664.917187906336
1712819604254,-6664.917187906336
1712819604294,-6664.917187906336
1712819604334,-6664.917187906336
1712819604374,-6664.917187906336
1712819604414,-6664.917187906336
1712819604455,-6664.917187906336
1712819604495,-8130.1569184684195
1712819604535,-8130.1569184684195
1712819604575,-8130.1569184684195
1712819604615,-8130.1569184684195
1712819604656,-8130.1569184684195
1712819604695,-8130.1569184684195
1712819604736,-8130.1569184684195
1712819604776,-8130.1569184684195
1712819604816,-8130.1569184684195
1712819604857,-7561.133553653257
1712819604896,-4535.16420694394
1712819604936,-4070.456665629754
1712819604976,-4070.456665629754
1712819605017,-4070.456665629754
1712819605058,-4070.456665629754
1712819605097,-4070.456665629754
1712819605137,-4070.456665629754
1712819605178,-7561.133553653257
1712819605218,-10625.107671066187
1712819605259,-11168.330909833312
1712819605298,-11458.54818655504
1712819605339,-12296.726639634464
1712819605379,-12296.726639634464
1712819605419,-12296.726639634464
1712819605460,-12537.709306419361
1712819605500,-13361.37421042868
1712819605540,-11458.54818655504
1712819605580,-11168.330909833312
1712819605620,-10502.815698847873
1712819605661,-7561.133553653257
1712819605701,-6169.977182832081
1712819605741,-6169.977182832081
1712819605781,-6169.977182832081
1712819605821,-6169.977182832081
1712819605862,-6169.977182832081
1712819605901,-6169.977182832081
1712819605942,-6169.977182832081
1712819605982,-10502.815698847873
1712819606022,-10502.815698847873
1712819606063,-10502.815698847873
1712819606102,-10502.815698847873
1712819606142,-10502.815698847873
1712819606183,-10502.815698847873
1712819606223,-10502.815698847873
1712819606264,-10502.815698847873
1712819606303,-9504.576486205682
1712819606343,-6169.977182832081
1712819606383,-5927.917011027224
1712819606424,-5657.467592585366
1712819606465,-5657.467592585366
1712819606504,-5657.467592585366
1712819606544,-5657.467592585366
1712819606585,-5657.467592585366
1712819606625,-5657.467592585366
1712819606666,-5657.467592585366
1712819606705,-5657.467592585366
1712819606745,-5657.467592585366
