Timestamp,Cleaned PPG
1712226188896,0.0
1712226188939,0.0
1712226188977,0.0
1712226189016,0.0
1712226189056,0.0
1712226189097,0.0
1712226189137,0.0
1712226189178,0.0
1712226189217,0.0
1712226189257,0.0
1712226189297,0.0
1712226189337,0.0
1712226189378,0.0
1712226189417,0.0
1712226189457,0.0
1712226189498,0.0
1712226189538,0.0
1712226189579,0.0
1712226189618,0.0
1712226189658,0.0
1712226189698,0.0
1712226189738,0.0
1712226189779,0.0
1712226189818,0.0
1712226189858,0.0
1712226189898,0.0
1712226189938,0.0
1712226189979,0.0
1712226190019,0.0
1712226190059,0.0
1712226190099,0.0
1712226190139,0.0
1712226190180,1169101.0463944492
1712226190219,1186830.0536252758
1712226190259,1227977.7462937497
1712226190299,1227977.7462937497
1712226190339,1235863.1155837243
1712226190380,1246465.685291667
1712226190420,1246465.685291667
1712226190459,1246465.685291667
1712226190499,1246465.685291667
1712226190540,1246465.685291667
1712226190581,1246465.685291667
1712226190620,1235863.1155837243
1712226190660,1235863.1155837243
1712226190700,1235863.1155837243
1712226190740,1230796.183117412
1712226190781,1227977.7462937497
1712226190820,1186830.0536252758
1712226190860,1174904.56616233
1712226190901,1173899.8474834252
1712226190941,1169101.0463944492
1712226190982,1173899.8474834252
1712226191021,1173899.8474834252
1712226191061,1173899.8474834252
1712226191101,1173899.8474834252
1712226191144,1173899.8474834252
1712226191182,1173899.8474834252
1712226191221,1141270.338468317
1712226191261,1123074.1378253289
1712226191301,1109853.357842585
1712226191341,1109853.357842585
1712226191382,1109853.357842585
1712226191422,1109853.357842585
1712226191462,1081978.1784690823
1712226191502,1040597.6720228372
1712226191542,1001032.8709805552
1712226191583,1001032.8709805552
1712226191622,956398.8964870842
1712226191662,956398.8964870842
1712226191702,956398.8964870842
1712226191743,938887.7398862364
1712226191783,906860.8815246867
1712226191823,854290.0101181772
1712226191863,749368.5464461995
1712226191903,629462.1349407658
1712226191943,513687.3478928497
1712226191984,506082.7191082686
1712226192023,488075.6594145838
1712226192063,474982.4799385872
1712226192104,470039.3414696939
1712226192144,411859.6401500376
1712226192184,384245.4706900087
1712226192224,381946.6512607215
1712226192264,340094.7403751584
1712226192304,337009.9417629312
1712226192344,329910.81134112366
1712226192385,328933.13603891805
1712226192424,311058.4715733747
1712226192465,255989.7267111726
1712226192505,235475.73115105368
1712226192545,199973.29844068224
1712226192586,185753.31958752684
1712226192625,149855.67555694282
1712226192665,143709.14579799166
1712226192705,131968.26818720065
1712226192745,130407.47954303818
1712226192786,124983.85647490062
1712226192825,124983.85647490062
1712226192865,124983.85647490062
1712226192906,124983.85647490062
1712226192946,109650.87626590487
1712226192986,79292.89114273619
1712226193026,79292.89114273619
1712226193066,79292.89114273619
1712226193106,79292.89114273619
1712226193146,79292.89114273619
1712226193187,79292.89114273619
1712226193226,79292.89114273619
1712226193266,79292.89114273619
1712226193307,79292.89114273619
1712226193349,64417.70887355879
1712226193387,64135.93638147041
1712226193427,64135.93638147041
1712226193467,64135.93638147041
1712226193507,64135.93638147041
1712226193547,64135.93638147041
1712226193588,64135.93638147041
1712226193628,59389.71546394564
1712226193668,59389.71546394564
1712226193708,59389.71546394564
1712226193748,59389.71546394564
1712226193789,64135.93638147041
1712226193828,64417.70887355879
1712226193868,84538.69680435536
1712226193908,107460.68776959181
1712226193948,109434.86098674638
1712226193989,121128.1387401321
1712226194029,126871.45424703229
1712226194069,126871.45424703229
1712226194109,151229.6631895597
1712226194149,151229.6631895597
1712226194190,151229.6631895597
1712226194229,151229.6631895597
1712226194269,151229.6631895597
1712226194309,151229.6631895597
1712226194350,151229.6631895597
1712226194390,151229.6631895597
1712226194430,151229.6631895597
1712226194470,151229.6631895597
1712226194510,121128.1387401321
1712226194550,66960.40095668845
1712226194591,63201.27941422537
1712226194631,63201.27941422537
1712226194670,63201.27941422537
1712226194711,63201.27941422537
1712226194751,63201.27941422537
1712226194791,63201.27941422537
1712226194831,63201.27941422537
1712226194871,63201.27941422537
1712226194911,63201.27941422537
1712226194951,54167.110283120535
1712226194992,54167.110283120535
1712226195032,63201.27941422537
1712226195072,63502.535429556854
1712226195112,63675.89503156999
1712226195152,63675.89503156999
1712226195193,63502.535429556854
1712226195232,63502.535429556854
1712226195272,63502.535429556854
1712226195312,63502.535429556854
1712226195353,63502.535429556854
1712226195393,63502.535429556854
1712226195433,63502.535429556854
1712226195473,36196.26974167302
1712226195514,7384.381428959779
1712226195555,7017.545541962143
1712226195596,4526.429654610809
1712226195635,2143.4607809400186
1712226195675,2143.4607809400186
1712226195716,2143.4607809400186
1712226195756,2143.4607809400186
1712226195797,4526.429654610809
1712226195837,4526.429654610809
1712226195877,4526.429654610809
1712226195918,4526.429654610809
1712226195958,4526.429654610809
1712226195999,7017.545541962143
1712226196038,7017.545541962143
1712226196078,27356.178855245933
1712226196118,31160.91160301119
1712226196159,35377.576084350236
1712226196200,37567.34842896415
1712226196239,41276.0219953917
1712226196279,46483.182123634964
1712226196319,46483.182123634964
1712226196359,46483.182123634964
1712226196400,46483.182123634964
1712226196440,47035.87914315704
1712226196480,49545.55237888824
1712226196520,50323.07070158422
1712226196561,50323.07070158422
1712226196601,50323.07070158422
1712226196641,50323.07070158422
1712226196681,50323.07070158422
1712226196721,50323.07070158422
1712226196761,50323.07070158422
1712226196802,51204.23797639599
1712226196842,74532.2090191911
1712226196882,76040.1411503125
1712226196922,78836.07612720132
1712226196963,78836.07612720132
1712226197004,78836.07612720132
1712226197046,78836.07612720132
1712226197086,78836.07612720132
1712226197127,78836.07612720132
1712226197167,78836.07612720132
1712226197208,78836.07612720132
1712226197247,78836.07612720132
1712226197288,76040.1411503125
1712226197328,74532.2090191911
1712226197368,56368.89502451662
1712226197409,53066.331386698876
1712226197449,47579.000388859306
1712226197489,40355.75016577449
1712226197529,36318.28906135773
1712226197570,16335.5550940549
1712226197611,15533.98627561843
1712226197650,14677.592370145023
1712226197690,13460.900965051726
1712226197731,7968.763148046564
1712226197771,-2391.97394826822
1712226197813,-1047628.6628660033
1712226197853,-1114081.984028425
1712226197893,-1125996.4927516598
1712226197933,-1125996.4927516598
1712226197973,-1125996.4927516598
1712226198014,-1125996.4927516598
1712226198054,-1125996.4927516598
1712226198094,-1125996.4927516598
1712226198135,-1125996.4927516598
1712226198175,-1125996.4927516598
1712226198216,-1125996.4927516598
1712226198255,-1114081.984028425
1712226198295,-1062430.0861960757
1712226198335,-1047628.6628660033
1712226198376,-1021314.9658425478
1712226198417,-1011117.2263379516
1712226198456,-995158.2488628076
1712226198496,-911110.8062532414
1712226198536,-865474.8028509896
1712226198577,-803612.8802558803
1712226198618,-570217.1767211659
1712226198657,-547257.7222640556
1712226198697,-527932.2481708708
1712226198737,-498691.2420554962
1712226198777,-487607.0505250357
1712226198818,-469103.5141408872
1712226198857,-450690.66667967103
1712226198897,-446948.6297722794
1712226198938,-416341.95916410396
1712226198978,-376740.27209314145
1712226199019,-376201.7884756611
1712226199058,-360956.974759439
1712226199098,-354069.570813674
1712226199138,-348358.32812741864
1712226199179,-345778.60945455823
1712226199220,-329117.62287472375
1712226199259,-292161.22993757203
1712226199299,-249308.07400463521
1712226199339,-216828.31327872956
1712226199380,-177233.56255438924
1712226199421,-144407.09945795964
1712226199460,-143688.05764793092
1712226199500,-137977.13462986238
1712226199540,-135222.4305037167
1712226199581,-135052.89720807038
1712226199622,-129605.70617812965
1712226199661,-127995.03252790403
1712226199701,-119749.62873047171
1712226199741,-112060.35500043351
1712226199782,-91888.12964013172
1712226199823,-72400.26980249444
1712226199862,-52903.18874361832
1712226199902,-42164.77331464179
1712226199943,-42164.77331464179
1712226199983,-42164.77331464179
1712226200024,-40009.08362676762
1712226200064,-37811.982918927446
1712226200104,-35504.72323160805
1712226200144,-29541.687804476358
1712226200184,-29083.239535590634
1712226200225,-22061.851814343594
1712226200265,-20721.06542041246
1712226200306,-20380.085970323533
1712226200346,-18071.37161180377
1712226200387,-18071.37161180377
1712226200428,-17513.964087661356
1712226200467,-15998.452506531961
1712226200508,-14953.7555180192
1712226200548,-8468.16099742474
1712226200588,-4654.777234575711
1712226200629,4197.507396919653
1712226200669,5856.944294071756
1712226200709,6428.708309222013
1712226200749,8822.995696018916
1712226200790,11867.926323278807
1712226200832,11933.527418147773
1712226200871,13267.198635671753
1712226200912,16415.755069291685
1712226200951,16519.27856597025
1712226200990,17524.558724723756
1712226201029,28411.083265339024
1712226201068,28411.083265339024
1712226201107,32362.844482842833
1712226201146,32362.844482842833
1712226201185,32370.755262278486
1712226201224,32379.837728407234
1712226201263,35278.31682010228
1712226201302,37834.19343169592
1712226201341,39947.14326405246
1712226201380,40028.03464845847
1712226201419,40028.03464845847
1712226201458,40028.03464845847
1712226201497,40028.03464845847
1712226201536,40028.03464845847
1712226201575,39947.14326405246
1712226201614,37834.19343169592
1712226201653,35278.31682010228
1712226201692,32379.837728407234
1712226201731,31916.370100066997
1712226201770,31490.72775484156
1712226201809,24580.55397241516
1712226201848,23897.23925479874
1712226201887,16886.92369320523
1712226201926,14022.95694008004
1712226201965,13918.64720710367
1712226202004,12406.661072878167
1712226202044,9706.485724117607
1712226202084,8987.580655719154
1712226202124,7746.420440185349
1712226202164,1207.5037793461233
1712226202204,1207.5037793461233
1712226202244,1207.5037793461233
1712226202284,1207.5037793461233
1712226202324,1207.5037793461233
1712226202364,1207.5037793461233
1712226202404,1207.5037793461233
1712226202444,1207.5037793461233
1712226202484,1207.5037793461233
1712226202524,1207.5037793461233
1712226202564,1207.5037793461233
1712226202604,24678.955060190056
1712226202644,45536.299186901655
1712226202684,45608.71874055825
1712226202724,51420.697431369685
1712226202764,51420.697431369685
1712226202804,51420.697431369685
1712226202844,51420.697431369685
1712226202884,51420.697431369685
1712226202924,51420.697431369685
1712226202964,51420.697431369685
1712226203004,51581.83894030657
1712226203044,53287.932577673346
1712226203084,53287.932577673346
1712226203124,53287.932577673346
1712226203164,51581.83894030657
1712226203204,51420.697431369685
1712226203244,51116.992301825434
1712226203284,51116.992301825434
1712226203324,51116.992301825434
1712226203364,50138.75948948646
1712226203404,48524.62071010796
1712226203444,47101.170169373974
1712226203484,44753.62989676604
1712226203524,41097.48690115381
1712226203564,37641.24714261014
1712226203604,35854.844927875325
1712226203644,35854.844927875325
1712226203684,34943.95502117276
1712226203724,34409.851139597595
1712226203764,31657.509773605037
1712226203804,26516.66446900135
1712226203844,15098.41781619424
1712226203884,13448.567018649075
1712226203924,11398.470119698904
1712226203964,5455.804608783219
1712226204004,3390.504440483637
1712226204044,-2430.6149658532813
1712226204084,-2625.8123290529475
1712226204124,-25747.54239094397
1712226204164,-19096.455471801106
1712226204204,-2430.6149658532813
1712226204244,-2430.6149658532813
1712226204284,-2430.6149658532813
1712226204324,-2430.6149658532813
1712226204364,-2430.6149658532813
1712226204404,-1591.5996684161946
1712226204444,-1591.5996684161946
1712226204484,-1591.5996684161946
1712226204524,-1591.5996684161946
1712226204564,-1591.5996684161946
1712226204604,-1591.5996684161946
1712226204644,-1591.5996684161946
1712226204684,-1591.5996684161946
1712226204724,-1591.5996684161946
1712226204764,-1591.5996684161946
1712226204804,5315.587553994264
1712226204844,21275.9374288572
1712226204884,22938.295138131827
1712226204924,40108.81585180992
1712226204964,40108.81585180992
1712226205004,40108.81585180992
1712226205044,40108.81585180992
1712226205084,40108.81585180992
1712226205124,46678.992377455346
1712226205164,47028.50438916031
1712226205204,48617.96051488025
1712226205244,52881.942031031474
1712226205284,59142.97992943227
1712226205324,66644.01192258392
1712226205364,76399.05318313139
1712226205404,78059.91414422821
1712226205444,87187.21798686683
1712226205484,92364.83233584277
1712226205524,76399.05318313139
1712226205564,66644.01192258392
1712226205604,52881.942031031474
1712226205644,48617.96051488025
1712226205684,47028.50438916031
1712226205724,40108.81585180992
1712226205764,27881.352845803834
1712226205804,27881.352845803834
1712226205844,27881.352845803834
1712226205884,27881.352845803834
1712226205924,-173044.79589052033
1712226205964,-195460.65106584132
1712226206004,-195460.65106584132
1712226206044,-195460.65106584132
1712226206084,-195460.65106584132
1712226206124,-199381.76169949025
1712226206164,-204706.7704698108
1712226206204,-204706.7704698108
1712226206244,-204706.7704698108
1712226206284,-204706.7704698108
1712226206324,-204706.7704698108
1712226206364,-204706.7704698108
1712226206404,-199381.76169949025
1712226206444,-195460.65106584132
1712226206484,-195281.39310787525
1712226206524,-192810.3301513889
1712226206564,-192810.3301513889
1712226206604,-192810.3301513889
1712226206644,-192810.3301513889
1712226206684,-192810.3301513889
1712226206724,-192810.3301513889
1712226206764,-184831.28674320364
1712226206804,-183570.29689246695
1712226206844,-163492.94038159866
1712226206884,-149707.6748424936
1712226206924,-110430.98962951358
1712226206964,-100575.98462327104
1712226207004,-92271.86550050182
1712226207044,-92271.86550050182
1712226207084,-92271.86550050182
1712226207124,-92271.86550050182
1712226207164,-92271.86550050182
1712226207204,-92271.86550050182
1712226207244,-391819.7979400987
1712226207284,-485233.7253103787
1712226207324,-485233.7253103787
1712226207364,-485233.7253103787
1712226207404,-485233.7253103787
1712226207444,146158.55164343957
1712226207484,378360.3919936642
1712226207524,378360.3919936642
1712226207564,378360.3919936642
1712226207604,146158.55164343957
1712226207644,11043.878120326437
1712226207684,-141949.9456685139
1712226207724,-141949.9456685139
1712226207764,-141949.9456685139
1712226207804,-141949.9456685139
1712226207844,-141949.9456685139
1712226207884,11043.878120326437
1712226207924,146158.55164343957
1712226207964,192498.33382747928
1712226208004,461798.95087682735
1712226208044,576585.2207185961
1712226208084,618819.5815746738
1712226208124,674584.6849808558
1712226208164,742402.4433791498
1712226208204,909050.3631476164
1712226208244,999080.7330280673
1712226208284,999080.7330280673
1712226208324,999080.7330280673
1712226208364,999080.7330280673
1712226208404,999080.7330280673
1712226208444,999080.7330280673
1712226208484,999080.7330280673
1712226208524,999080.7330280673
1712226208564,999080.7330280673
1712226208604,999080.7330280673
1712226208644,999080.7330280673
1712226208684,924646.1036151787
1712226208724,864028.697340196
1712226208764,801965.2473762999
1712226208804,756067.9586065956
1712226208844,684313.402917427
1712226208884,662579.7974434034
1712226208924,621226.3281302894
1712226208964,587199.7077778373
1712226209004,572911.7994478024
1712226209044,565191.812154727
1712226209084,552566.4058538019
1712226209124,543833.4646890573
1712226209164,528142.9138588575
1712226209204,491773.6949713072
1712226209244,485519.2723167115
1712226209284,442295.46981278155
1712226209324,422567.7670228672
1712226209364,418462.34420123417
1712226209404,394203.669259008
1712226209444,374779.6619956391
1712226209484,330115.5963370176
1712226209524,322439.31393030705
1712226209564,298378.7276460873
1712226209604,298378.7276460873
1712226209644,298378.7276460873
1712226209684,275192.3762284275
1712226209724,261541.58206868125
1712226209764,241710.80205341708
1712226209804,237644.32723790174
1712226209844,220177.85642236425
1712226209884,199574.2314613443
1712226209924,151809.5180807812
1712226209964,148980.24142553937
1712226210004,148128.8661892088
1712226210044,148128.8661892088
1712226210084,148128.8661892088
1712226210124,148128.8661892088
1712226210164,148128.8661892088
1712226210204,139508.97563312855
1712226210244,118278.83076283056
1712226210284,118278.83076283056
1712226210324,118278.83076283056
1712226210364,139508.97563312855
1712226210404,148128.8661892088
1712226210444,139508.97563312855
1712226210484,139508.97563312855
1712226210524,148980.24142553937
1712226210564,243922.06843615416
1712226210604,243922.06843615416
1712226210644,243922.06843615416
1712226210684,243922.06843615416
1712226210724,458357.79537113477
1712226210764,458357.79537113477
1712226210804,458357.79537113477
1712226210844,458357.79537113477
1712226210884,458357.79537113477
1712226210924,426362.08862890676
1712226210964,-26054.70929055009
1712226211004,-476353.32113047875
1712226211044,-476353.32113047875
1712226211084,-476353.32113047875
1712226211124,-687091.2477974426
1712226211164,-728329.3043920961
1712226211204,-826043.7883950113
1712226211244,-826043.7883950113
1712226211284,-826043.7883950113
1712226211324,-826043.7883950113
1712226211364,-826043.7883950113
1712226211404,-826043.7883950113
1712226211444,-826043.7883950113
1712226211484,-826043.7883950113
1712226211524,-826043.7883950113
1712226211564,-826043.7883950113
1712226211604,-826043.7883950113
1712226211644,-773838.0895972215
1712226211684,-692108.8205021708
1712226211724,-690884.0729220686
1712226211764,-689284.0193645959
1712226211804,-637018.4043251434
1712226211844,-585550.467887904
1712226211884,-546650.5887059281
1712226211924,-506590.1381390146
1712226211964,-480410.5337412781
1712226212004,-468874.0220858613
1712226212044,-428921.83340430725
1712226212084,-425938.03034922853
1712226212124,-392831.9426885741
1712226212164,-349161.595284197
1712226212204,-342425.0402356703
1712226212244,449807.1866464969
1712226212284,1105525.4159425548
1712226212324,1105525.4159425548
1712226212364,1105525.4159425548
1712226212404,1105525.4159425548
1712226212444,1105525.4159425548
1712226212484,1105525.4159425548
1712226212524,1105525.4159425548
1712226212564,1105525.4159425548
1712226212604,1105525.4159425548
1712226212644,1105525.4159425548
1712226212684,1105525.4159425548
1712226212724,1031107.9292758331
1712226212764,956932.1253607217
1712226212804,900474.8069038293
1712226212844,826180.0776741244
1712226212884,778705.4461132903
1712226212926,724466.9234620193
1712226212966,675678.9109172365
1712226213007,628251.6356797027
1712226213046,597411.0169025697
1712226213086,582498.1520065516
1712226213127,554413.367992742
1712226213167,524475.2846683804
1712226213208,499742.62838916853
1712226213247,472142.4838612005
1712226213287,226552.61298966827
1712226213327,-560365.3384722611
1712226213367,-560365.3384722611
1712226213408,-560365.3384722611
1712226213447,-560365.3384722611
1712226213488,-560365.3384722611
1712226213528,-560365.3384722611
1712226213568,-560365.3384722611
1712226213609,-560365.3384722611
1712226213648,-560365.3384722611
1712226213688,-560365.3384722611
1712226213728,-560365.3384722611
1712226213768,-502495.4271349739
1712226213809,-461958.1567322165
1712226213848,-236101.90699254395
1712226213888,36213.50515898317
1712226213929,395256.8539119549
1712226213969,401703.4831777159
1712226214010,412792.90381687693
1712226214049,446883.0423420761
1712226214089,465493.102052412
1712226214129,465493.102052412
1712226214169,465493.102052412
1712226214210,465493.102052412
1712226214249,465493.102052412
1712226214290,465493.102052412
1712226214330,465493.102052412
1712226214370,465493.102052412
1712226214411,465493.102052412
1712226214450,446883.0423420761
1712226214490,434437.6876942795
1712226214530,414525.90854002954
1712226214570,395256.8539119549
1712226214611,370765.70588396396
1712226214651,349801.87326402636
1712226214691,336022.5253102323
1712226214731,324452.20341951214
1712226214771,305289.9993799641
1712226214812,-55714.21214650804
1712226214851,-825481.3528198753
1712226214891,-825481.3528198753
1712226214931,-825481.3528198753
1712226214971,-825481.3528198753
1712226215012,-825481.3528198753
1712226215052,-825481.3528198753
1712226215092,-825481.3528198753
1712226215132,-825481.3528198753
1712226215172,-825481.3528198753
1712226215213,-825481.3528198753
1712226215252,-825481.3528198753
1712226215292,-772613.2839367981
1712226215332,-712151.5280264039
1712226215372,-683180.4183324315
1712226215413,-634568.19758764
1712226215452,-592159.4895428745
1712226215493,-561504.3033566736
1712226215533,-524801.7593493243
1712226215573,-522830.39358868543
1712226215614,-508205.42214328656
1712226215653,-484254.8992015356
1712226215693,-448254.3426846713
1712226215733,-402105.4600377199
1712226215773,-373062.18041913444
1712226215814,398274.1987610217
1712226215853,398274.1987610217
1712226215894,398274.1987610217
1712226215934,398274.1987610217
1712226215974,398274.1987610217
1712226216015,398274.1987610217
1712226216054,398274.1987610217
1712226216094,398274.1987610217
1712226216134,398274.1987610217
1712226216174,398274.1987610217
1712226216215,398274.1987610217
1712226216255,129371.87996948231
1712226216295,129371.87996948231
1712226216335,129371.87996948231
1712226216375,65156.46815124899
1712226216416,-44536.73805868905
1712226216455,-170281.90258384123
1712226216495,-170281.90258384123
1712226216535,-170281.90258384123
1712226216575,-170281.90258384123
1712226216616,-170281.90258384123
1712226216656,-170281.90258384123
1712226216696,-44536.73805868905
1712226216736,65156.46815124899
1712226216776,129371.87996948231
1712226216817,137836.50045633968
1712226216856,266278.79798479564
1712226216896,269070.2474434171
1712226216936,609659.5448866044
1712226216977,609659.5448866044
1712226217017,609659.5448866044
1712226217057,609659.5448866044
1712226217097,609659.5448866044
1712226217137,609659.5448866044
1712226217177,609659.5448866044
1712226217218,609659.5448866044
1712226217257,609659.5448866044
1712226217297,609659.5448866044
1712226217338,609659.5448866044
1712226217378,562588.6570468582
1712226217418,545376.3109398349
1712226217458,532639.0029172231
1712226217498,449717.3715588674
1712226217538,427206.29262027796
1712226217578,416309.7866490772
1712226217619,408383.4159607133
1712226217658,400278.927579097
1712226217699,375209.89082244737
1712226217739,368478.26028798614
1712226217779,334737.78803263884
1712226217820,330619.57347329706
1712226217859,296806.7795799598
1712226217899,281045.4115604139
1712226217939,273996.1303906869
1712226217979,273996.1303906869
1712226218020,268568.5940309004
1712226218060,256599.30720516108
1712226218099,230974.6870289473
1712226218140,136951.83828950953
1712226218180,-84797.19404028356
1712226218221,-341114.4581027292
1712226218260,-341114.4581027292
1712226218300,-1046460.1064402675
1712226218340,-1046460.1064402675
1712226218380,-1046460.1064402675
1712226218421,-1046460.1064402675
1712226218460,-1046460.1064402675
1712226218500,-1046460.1064402675
1712226218540,-1046460.1064402675
1712226218580,-1046460.1064402675
1712226218621,-1046460.1064402675
1712226218661,-1046460.1064402675
1712226218701,-1046460.1064402675
1712226218741,-992905.9167824159
1712226218781,-926776.1824453482
1712226218822,-879381.0542071695
1712226218861,-799598.4111108789
1712226218901,-695340.8232832802
1712226218941,-695340.8232832802
1712226218981,-695340.8232832802
1712226219022,-695340.8232832802
1712226219061,-695340.8232832802
1712226219101,-695340.8232832802
1712226219142,-695340.8232832802
1712226219182,-695340.8232832802
1712226219223,-695340.8232832802
1712226219262,-695340.8232832802
1712226219302,-695340.8232832802
1712226219342,-654102.9799992996
1712226219382,-654102.9799992996
1712226219423,-654102.9799992996
1712226219462,-654102.9799992996
1712226219502,-654102.9799992996
1712226219542,-654102.9799992996
1712226219582,-654102.9799992996
1712226219624,-654102.9799992996
1712226219663,-654102.9799992996
1712226219703,-654102.9799992996
1712226219743,-654102.9799992996
1712226219783,-621358.7271639816
1712226219824,-441569.98269326193
1712226219863,-405762.08204807155
1712226219903,-398769.92555445153
1712226219943,-344088.29091860773
1712226219983,-303341.981977046
1712226220024,-260548.83139682235
1712226220064,-223105.2177141048
1712226220104,-207366.6140668774
1712226220144,-173037.49232976744
1712226220184,-159537.30934242066
1712226220225,-157952.92045480758
1712226220264,-148342.2807547073
1712226220304,-126196.62368210405
1712226220344,-120252.20101697836
1712226220384,-109205.406535435
1712226220425,-98454.31199997291
1712226220465,-98454.31199997291
1712226220505,-93271.91494165082
1712226220545,-92022.4215598302
1712226220585,-89215.82127015898
1712226220626,-88732.97066260502
1712226220665,-88229.6204541279
1712226220705,-77085.70424543228
1712226220745,-69938.65013669664
1712226220785,-66956.24618604872
1712226220826,-59223.322538249195
1712226220865,-44586.81991007505
1712226220905,-44504.61563557107
1712226220946,-40391.54482397577
1712226220986,-37998.03662605584
1712226221027,-36811.770475363825
1712226221066,-40391.54482397577
1712226221106,-44586.81991007505
1712226221146,-44586.81991007505
1712226221186,-44586.81991007505
1712226221227,-44586.81991007505
1712226221266,-33792.88367964467
1712226221306,-33792.88367964467
1712226221346,-31511.69493338652
1712226221386,-28743.582625877112
1712226221428,-24618.243863990996
1712226221467,-20186.608278957196
1712226221507,-11567.076365901157
1712226221547,-6891.907022133004
1712226221587,5878.631548236124
1712226221628,18536.174873537384
1712226221667,5878.631548236124
1712226221707,-6891.907022133004
1712226221747,-6891.907022133004
1712226221788,-6891.907022133004
1712226221828,-11567.076365901157
1712226221868,-12845.348496100865
1712226221908,-12845.348496100865
1712226221948,-12845.348496100865
1712226221988,-12845.348496100865
1712226222029,-12845.348496100865
1712226222068,-12845.348496100865
1712226222108,-12845.348496100865
1712226222148,-12845.348496100865
1712226222188,-18463.67070807377
1712226222229,-20879.306226333138
1712226222269,-78689.26881950162
1712226222309,-82940.0765381488
1712226222349,-94029.9822400324
1712226222389,-94029.9822400324
1712226222430,-94029.9822400324
1712226222469,-94029.9822400324
1712226222509,-94029.9822400324
1712226222549,-94029.9822400324
1712226222589,-94029.9822400324
1712226222630,-94029.9822400324
1712226222669,-94029.9822400324
1712226222710,-94029.9822400324
1712226222750,-82940.0765381488
1712226222790,583985.2253543241
1712226222830,596904.557939427
1712226222870,596904.557939427
1712226222910,596904.557939427
1712226222950,596904.557939427
1712226222990,596904.557939427
1712226223031,596904.557939427
1712226223070,596904.557939427
1712226223110,596904.557939427
1712226223151,970448.9869200373
1712226223191,1015842.4436232261
1712226223232,1015842.4436232261
1712226223271,970448.9869200373
1712226223311,964628.8721159585
1712226223351,964628.8721159585
1712226223391,888947.2270007371
1712226223432,881615.4077510023
1712226223471,845715.9725033185
1712226223511,816923.6036474481
1712226223551,746759.7219781857
1712226223592,706555.6802397203
1712226223632,653055.4968518075
1712226223672,618631.1701135375
1712226223712,618631.1701135375
1712226223752,618631.1701135375
1712226223792,618631.1701135375
1712226223833,618631.1701135375
1712226223872,618631.1701135375
1712226223912,618631.1701135375
1712226223953,618631.1701135375
1712226223993,575401.9568661684
1712226224033,526045.7291050805
1712226224073,503243.51545360684
1712226224113,481282.5262711472
1712226224153,469873.2306322986
1712226224193,429593.10422781063
1712226224234,386156.8896609526
1712226224273,380527.8360674875
1712226224314,364914.7921332754
1712226224353,362988.36865946976
1712226224394,347063.7469202145
1712226224435,321834.10114459135
1712226224474,320090.0375234806
1712226224514,278304.8111627856
1712226224554,264690.1646912424
1712226224594,243905.34957300313
1712226224635,213514.12183736358
1712226224674,212666.72513494547
1712226224714,204072.40969985677
1712226224755,164292.21133133303
1712226224795,152735.30086273793
1712226224835,146767.12855824362
1712226224875,145656.0483273985
1712226224915,138212.02127411123
1712226224956,137154.46229059994
1712226224996,131815.4002113836
1712226225037,130067.2368652639
1712226225076,120138.94084600266
1712226225116,115968.54649326578
1712226225157,113892.7942731874
1712226225197,108616.12411608733
1712226225237,105609.65177109605
1712226225277,101685.09436327312
1712226225317,93642.66069294047
1712226225357,74569.16813349351
1712226225397,34026.43882148806
1712226225438,26411.65241245879
1712226225477,685.8717522406951
1712226225518,685.8717522406951
1712226225557,685.8717522406951
1712226225598,685.8717522406951
1712226225639,685.8717522406951
1712226225678,685.8717522406951
1712226225718,685.8717522406951
1712226225758,685.8717522406951
1712226225798,685.8717522406951
1712226225839,685.8717522406951
1712226225879,-2292.5107455342077
1712226225918,-2292.5107455342077
1712226225959,4004.121109620668
1712226225999,8262.503211507108
1712226226039,11422.338581461925
1712226226079,12426.685642402153
1712226226119,14431.8294402631
1712226226159,14431.8294402631
1712226226199,14431.8294402631
1712226226240,14698.782394919544
1712226226279,14698.782394919544
1712226226320,14698.782394919544
1712226226360,14431.8294402631
1712226226400,12426.685642402153
1712226226441,12426.685642402153
1712226226480,9408.619102128781
1712226226520,8262.503211507108
1712226226560,4004.121109620668
1712226226600,-4076.717108520679
1712226226641,-9313.958752478939
1712226226680,-9313.958752478939
1712226226721,-182771.5512700146
1712226226761,-185256.034559126
1712226226801,-185256.034559126
1712226226842,-185256.034559126
1712226226881,-185256.034559126
1712226226921,-472914.50500649353
1712226226961,-551607.3363500084
1712226227001,-625244.111417532
1712226227042,-685353.0000706911
1712226227081,-685353.0000706911
1712226227121,-672906.7114719679
1712226227161,-672906.7114719679
1712226227201,-669594.289032734
1712226227242,-625244.111417532
1712226227282,-669594.289032734
1712226227322,-672906.7114719679
1712226227362,-672906.7114719679
1712226227402,-672906.7114719679
1712226227443,-672906.7114719679
1712226227482,-685353.0000706911
1712226227522,-961013.2235036362
1712226227562,-1011593.3012395105
1712226227602,-1011593.3012395105
1712226227643,-1011593.3012395105
1712226227682,-1011593.3012395105
1712226227722,-1011593.3012395105
1712226227763,-1011593.3012395105
1712226227803,-1011593.3012395105
1712226227843,-672906.7114719679
1712226227883,-669594.289032734
1712226227923,-415337.9256416019
1712226227963,-232297.82957572653
1712226228003,478586.62891223654
1712226228044,478586.62891223654
1712226228083,478586.62891223654
1712226228123,505312.4714965401
1712226228163,505312.4714965401
1712226228203,505312.4714965401
1712226228244,505312.4714965401
1712226228284,536490.900463243
1712226228323,538424.624176489
1712226228364,538424.624176489
1712226228404,538424.624176489
1712226228444,538424.624176489
1712226228484,538424.624176489
1712226228524,536490.900463243
1712226228564,505312.4714965401
1712226228604,478586.62891223654
1712226228645,464416.8572438103
1712226228684,441137.92489766935
1712226228724,344373.0654813112
1712226228764,264809.9427437107
1712226228804,-276464.0341142658
1712226228845,-280753.0911251586
1712226228885,-442855.5133090613
1712226228925,-442855.5133090613
1712226228965,-612948.1524720532
1712226229005,-802389.2459685048
1712226229045,-802389.2459685048
1712226229085,-808176.4009828749
1712226229125,-811630.6132680816
1712226229165,-818566.545197176
1712226229205,-834817.0744282559
1712226229246,-879394.2784226811
1712226229285,-924429.1430402347
1712226229325,-924429.1430402347
1712226229365,-924429.1430402347
1712226229405,-924429.1430402347
1712226229446,-924429.1430402347
1712226229486,-924429.1430402347
1712226229526,-924429.1430402347
1712226229566,-924429.1430402347
1712226229606,-924429.1430402347
1712226229647,-924429.1430402347
1712226229686,-924429.1430402347
1712226229726,-913690.3695038181
1712226229766,-913690.3695038181
1712226229806,-913690.3695038181
1712226229847,-913690.3695038181
1712226229886,-913690.3695038181
1712226229926,-860173.1999624136
1712226229967,-804873.4065716752
1712226230007,-753981.5168106465
1712226230047,-707063.5354551317
1712226230087,-662404.9993449769
1712226230127,-621376.9531749147
1712226230167,-582232.3438083949
1712226230207,-545455.0067920426
1712226230248,-512808.0036144084
1712226230287,-481775.8929932746
1712226230327,-453180.8823934145
1712226230367,-425596.31176230335
1712226230408,-399731.6206956966
1712226230448,-374310.6100998022
1712226230488,-348153.47546997835
1712226230528,-327687.8353797712
1712226230568,-308185.2297824747
1712226230608,-289530.3009858668
1712226230649,-273059.9262040745
1712226230688,-253364.21503473294
1712226230728,-240067.22439056943
1712226230768,-225010.55644185608
1712226230808,-210376.05920427508
1712226230849,-196885.5779688795
1712226230888,-182648.2458542094
1712226230929,-171064.18947305283
1712226230969,-159132.6243317693
1712226231009,-150378.43088371196
1712226231050,-142159.92466434196
1712226231089,-134055.17621690672
1712226231129,-126174.79068179458
1712226231169,-118836.36385693267
1712226231209,-112679.92069138036
1712226231250,-105153.71024004536
1712226231289,-97998.22216786351
1712226231329,-92920.67946743693
1712226231369,-86064.75880277928
1712226231410,-79704.18368121766
1712226231450,-75275.04881155564
1712226231490,-71042.9868434554
1712226231530,-66453.69823094239
1712226231570,-62144.1012085984
1712226231610,-58810.93330988639
1712226231651,-54899.29001081479
1712226231690,-51152.47662825382
1712226231730,-49250.82866460795
1712226231771,-46631.85347479931
1712226231810,-44433.51612751387
1712226231851,-41724.2314911192
1712226231891,-38996.554063902266
1712226231931,-36838.18757505735
1712226231971,-32436.159215801163
1712226232011,-32427.445251688878
1712226232052,-29021.051876473008
1712226232091,-26432.090730437834
1712226232131,-25865.263891472925
1712226232171,-23064.0060602215
1712226232212,-22773.59432891837
1712226232252,-20816.55024210853
1712226232292,-20703.37850693285
1712226232332,-19930.228597094607
1712226232372,-17620.418479195123
1712226232412,-17231.579942709366
1712226232453,-16370.791584349801
1712226232492,-16129.88683400257
1712226232532,-15697.691020812526
1712226232572,-14181.128249505759
1712226232613,-13699.492952440629
1712226232653,-13681.928586329877
1712226232693,-10537.267615609784
1712226232733,842940.8736773594
1712226232773,842940.8736773594
1712226232813,842940.8736773594
1712226232854,842940.8736773594
1712226232893,842940.8736773594
1712226232933,842940.8736773594
1712226232973,842940.8736773594
1712226233013,842940.8736773594
1712226233054,842940.8736773594
1712226233094,842940.8736773594
1712226233134,842940.8736773594
1712226233174,758861.5607739671
1712226233214,680191.3776227199
1712226233255,628577.263657891
1712226233294,530959.2412577118
1712226233334,490963.13167915004
1712226233374,454493.857569159
1712226233414,429102.6331737954
1712226233455,429102.6331737954
1712226233494,429102.6331737954
1712226233535,429102.6331737954
1712226233575,429102.6331737954
1712226233615,429102.6331737954
1712226233656,404285.41844163183
1712226233695,399956.57155080396
1712226233735,399956.57155080396
1712226233775,399956.57155080396
1712226233815,399956.57155080396
1712226233856,399956.57155080396
1712226233895,399956.57155080396
1712226233936,486711.2405465848
1712226233976,621952.1859947969
1712226234016,1227784.3423650404
1712226234057,1227784.3423650404
1712226234096,1227784.3423650404
1712226234136,1227784.3423650404
1712226234176,1227784.3423650404
1712226234216,1227784.3423650404
1712226234257,1227784.3423650404
1712226234297,1227784.3423650404
1712226234337,1227784.3423650404
1712226234377,1163038.0660174033
1712226234417,648904.9022937496
1712226234458,348326.9098380124
1712226234497,345753.4159624553
1712226234537,-599500.5396662345
1712226234577,-599500.5396662345
1712226234617,-599500.5396662345
1712226234658,-599500.5396662345
1712226234697,-599500.5396662345
1712226234738,-599500.5396662345
1712226234778,-599500.5396662345
1712226234818,-599500.5396662345
1712226234859,-599500.5396662345
1712226234898,-599500.5396662345
1712226234938,-599500.5396662345
1712226234978,-568417.3448650516
1712226235018,-528637.742325562
1712226235059,-498855.0500783492
1712226235099,-454535.19345825724
1712226235139,-435728.37287433585
1712226235179,-389579.35402833484
1712226235219,-365520.25141902594
1712226235260,-338311.734768264
1712226235299,-323808.97621020116
1712226235339,-286906.98627048684
1712226235379,-242666.65200083982
1712226235419,-219422.01543869497
1712226235460,-178654.9954683166
1712226235500,998557.8622704158
1712226235540,998557.8622704158
1712226235580,998557.8622704158
1712226235620,998557.8622704158
1712226235661,998557.8622704158
1712226235700,998557.8622704158
1712226235740,998557.8622704158
1712226235780,998557.8622704158
1712226235820,998557.8622704158
1712226235861,998557.8622704158
1712226235901,998557.8622704158
1712226235941,941594.9298726036
1712226235981,880266.2225763006
1712226236021,812375.6471546381
1712226236062,760054.5253553567
1712226236101,710481.6504691336
1712226236141,675459.8925285847
1712226236181,629354.4480354763
1712226236221,577713.5729727196
1712226236262,549586.9225954809
1712226236301,533075.9962149626
1712226236341,497723.7123109526
1712226236381,460974.7526450078
1712226236421,408395.5354932393
1712226236462,387981.3285899325
1712226236501,370290.2608804838
1712226236541,-166083.94744154718
1712226236582,-934107.8191700089
1712226236622,-934107.8191700089
1712226236662,-934107.8191700089
1712226236702,-934107.8191700089
1712226236742,-934107.8191700089
1712226236782,-934107.8191700089
1712226236822,-934107.8191700089
1712226236863,-934107.8191700089
1712226236902,-934107.8191700089
1712226236942,-934107.8191700089
1712226236978,-934107.8191700089
1712226237018,-825636.1454374734
1712226237059,-753820.9632646404
1712226237099,-752832.3098512478
1712226237139,-720453.788450418
1712226237179,-683917.9173942176
1712226237219,-661665.989502064
1712226237259,-638585.0663813334
1712226237299,-628013.2694391734
1712226237339,-589103.7162642172
1712226237379,-585332.0159793356
1712226237419,-530334.8344143936
1712226237460,-501725.3619906381
1712226237499,-481713.9961151369
1712226237539,-478134.07916608546
1712226237579,-457323.25448715454
1712226237619,-457323.25448715454
1712226237660,-457323.25448715454
1712226237700,-457323.25448715454
1712226237740,-457323.25448715454
1712226237780,-457323.25448715454
1712226237820,-457323.25448715454
1712226237861,-440082.4505849811
1712226237900,-427219.4149574614
1712226237940,-395212.9826856218
1712226237980,-374919.559875716
1712226238020,-356721.55037471186
1712226238061,-346608.60397737706
1712226238100,-318727.62081639003
1712226238140,-284491.38946503913
1712226238180,-264820.712638143
1712226238221,-234879.5370198423
1712226238261,-207338.8766826596
1712226238301,-185545.26883365726
1712226238341,-173930.02840869036
1712226238381,-166076.5313339834
1712226238421,-136981.2244182527
1712226238462,-128042.62556396145
1712226238501,-127301.01035127044
1712226238541,-126297.2860352844
1712226238581,-119916.63639614591
1712226238621,-110303.93749659043
1712226238662,-105074.36493749078
1712226238701,-100403.98298083153
1712226238742,-96045.95882546436
1712226238781,-95848.60157581884
1712226238822,-92189.79869954102
1712226238862,-57082.8639597171
1712226238902,-45641.16877595661
1712226238942,-43607.874821960926
1712226238982,-11362.205635625403
1712226239022,2594.2336759355385
1712226239063,19020.33805286046
1712226239102,23349.050032668747
1712226239142,553408.9321776466
1712226239182,627569.3357257205
1712226239222,687993.3464623382
1712226239263,726036.2097556014
1712226239302,979119.8204711475
1712226239343,979119.8204711475
1712226239382,979119.8204711475
1712226239423,979119.8204711475
1712226239464,979119.8204711475
1712226239503,979119.8204711475
1712226239543,979119.8204711475
1712226239583,979119.8204711475
1712226239623,979119.8204711475
1712226239664,979119.8204711475
1712226239703,979119.8204711475
1712226239743,-487387.914394618
1712226239783,-487387.914394618
1712226239823,-487387.914394618
1712226239864,-487387.914394618
1712226239903,-577628.2426462346
1712226239944,-605852.3016564152
1712226239984,-605852.3016564152
1712226240024,-605852.3016564152
1712226240065,-605852.3016564152
1712226240104,-605852.3016564152
1712226240144,-605852.3016564152
1712226240184,-592538.2121171253
1712226240224,-577628.2426462346
1712226240265,-576815.8010516572
1712226240304,-568200.7147546425
1712226240344,-532268.5149854827
1712226240384,-503410.1758629489
1712226240425,-487387.914394618
1712226240465,-486661.7739824541
1712226240505,-433283.9994435273
1712226240545,-405501.9824451208
1712226240585,-383894.6504876958
1712226240625,-383894.6504876958
1712226240666,-383894.6504876958
1712226240705,-376940.82729591057
1712226240745,-337720.2894923673
1712226240785,-307964.00009819306
1712226240825,-284604.3740229653
1712226240866,-264880.7864920553
1712226240906,-257146.42407623958
1712226240946,-173136.02108863695
1712226240986,-152025.73100421997
1712226241026,-147024.51207076898
1712226241067,-135379.15926900087
1712226241106,-126533.32209213171
1712226241146,-110503.62076183315
1712226241186,-101600.74148084596
1712226241226,-100966.28075559763
1712226241267,-96895.91877334844
1712226241306,-85726.0802723635
1712226241346,-56745.7846591468
1712226241387,581371.5268536331
1712226241427,1000519.6322840014
1712226241467,1000519.6322840014
1712226241507,1000519.6322840014
1712226241547,1000519.6322840014
1712226241587,1000519.6322840014
1712226241627,1000519.6322840014
1712226241668,1000519.6322840014
1712226241707,1000519.6322840014
1712226241747,1000519.6322840014
1712226241787,1000519.6322840014
1712226241827,1000519.6322840014
1712226241869,931127.4370053671
1712226241908,857831.9627470402
1712226241948,290696.05055375677
1712226241988,-873240.6210600273
1712226242028,-925302.1499334364
1712226242069,-925302.1499334364
1712226242108,-925302.1499334364
1712226242148,-925302.1499334364
1712226242188,-925302.1499334364
1712226242229,-925302.1499334364
1712226242269,-925302.1499334364
1712226242309,-925302.1499334364
1712226242349,-925302.1499334364
1712226242389,-925302.1499334364
1712226242429,-925302.1499334364
1712226242470,-875366.4446465475
1712226242509,-826847.8536408455
1712226242549,-800072.7289225282
1712226242589,-762481.5178812025
1712226242629,-722394.8627304779
1712226242670,-654537.9629544066
1712226242710,-582834.1975606354
1712226242750,-527612.9395784196
1712226242790,-482552.17269062763
1712226242830,-437979.2121890974
1712226242871,-396372.1343377824
1712226242910,-357694.48375427886
1712226242950,-318589.9344123169
1712226242990,-285987.11502039805
1712226243030,-268311.27777197445
1712226243072,-250480.00808329438
1712226243111,-225018.9771194742
1712226243151,-197261.20177350426
1712226243191,-178106.78874365985
1712226243231,-166363.64631245704
1712226243272,-145475.33630055585
1712226243311,-128014.77751935995
1712226243351,-115798.26353179105
1712226243391,-98900.36789841251
1712226243431,-84977.31374928658
1712226243472,-75524.82169890567
1712226243511,-65539.61900554411
1712226243552,-62718.01650326257
1712226243591,-62642.504513920285
1712226243632,-61112.05614472693
1712226243673,-59610.74763824418
1712226243712,-59204.624660563655
1712226243752,-57201.001469613984
1712226243792,-57159.30861586216
1712226243832,-56568.41970981588
1712226243873,-52295.20429290272
1712226243912,-50071.64835673431
1712226243952,-48963.480518714525
1712226243993,-46584.5129740159
1712226244036,-46584.5129740159
1712226244074,-46584.5129740159
1712226244113,-45562.79745384981
1712226244153,-45236.85568058537
1712226244193,-45170.05003461242
1712226244233,-34823.28892106796
1712226244274,-29825.370422207052
1712226244313,-19824.17262180522
1712226244354,79997.18492563907
1712226244394,171314.51613765373
1712226244434,439296.3484903448
1712226244475,660225.5009346937
1712226244514,892771.5483364407
1712226244554,909352.2791259259
1712226244594,1091358.0751850612
1712226244634,1161502.2402853193
1712226244675,1161502.2402853193
1712226244715,1161502.2402853193
1712226244755,1161502.2402853193
1712226244795,1161502.2402853193
1712226244835,1161502.2402853193
1712226244876,1161502.2402853193
1712226244915,1161502.2402853193
1712226244955,1161502.2402853193
1712226244996,1161502.2402853193
1712226245036,1161502.2402853193
1712226245077,1077237.5857967064
1712226245116,1038129.3335469761
1712226245156,978995.218985315
1712226245196,923697.5615483765
1712226245236,-922718.3313211994
1712226245277,-922718.3313211994
1712226245316,-922718.3313211994
1712226245357,-922718.3313211994
1712226245397,-922718.3313211994
1712226245437,-922718.3313211994
1712226245478,-922718.3313211994
1712226245517,-922718.3313211994
1712226245557,-922718.3313211994
1712226245597,-922718.3313211994
1712226245637,-922718.3313211994
1712226245678,-865368.1577101722
1712226245717,-803545.9359222855
1712226245757,-757618.8064870518
1712226245797,-714245.348247285
1712226245837,-671575.4600171167
1712226245878,-640947.1761054993
1712226245918,-605689.3224739796
1712226245958,-552100.7540855967
1712226245998,-530543.6276172232
1712226246038,-495842.2133557433
1712226246079,-459881.39128306275
1712226246118,-427386.09321774985
1712226246158,-395463.79740793374
1712226246198,-382717.8075451844
1712226246241,-351452.8802286638
1712226246279,-333980.06121407123
1712226246319,-300966.8531451719
1712226246359,-275386.25243869517
1712226246399,-261968.32124746917
1712226246439,-241272.41668319074
1712226246480,-224001.34022664698
1712226246519,-206312.85203541373
1712226246559,-193092.2851762534
1712226246599,-179700.92680538702
1712226246639,-174628.16122491425
1712226246680,-166110.5864075157
1712226246719,-149654.4021108239
1712226246759,-139885.31623250805
1712226246800,-131166.52061094553
1712226246840,-121282.8645900893
1712226246881,-110259.74942762824
1712226246920,-98549.23527302803
1712226246960,-86043.40831524692
1712226247000,-78535.03945448436
1712226247040,-75131.27953153104
1712226247081,-68468.00646132836
1712226247120,-57045.11203767592
1712226247160,-46867.882340498036
1712226247200,-45899.28010527929
1712226247241,-33225.36762069422
1712226247282,-30510.739004044095
1712226247321,-28884.853206229163
1712226247361,-28030.29360371013
1712226247401,-25369.939148996724
1712226247441,-21508.68906469131
1712226247482,-16612.457943052985
1712226247521,-13021.556984464172
1712226247561,-12342.121431628242
1712226247601,-4496.342041139491
1712226247642,-4496.342041139491
1712226247682,-4496.342041139491
1712226247722,-4496.342041139491
1712226247762,-4496.342041139491
1712226247802,-4496.342041139491
1712226247842,-4496.342041139491
1712226247883,-4496.342041139491
1712226247922,-4496.342041139491
1712226247962,-4496.342041139491
1712226248002,-4496.342041139491
1712226248042,-4496.342041139491
1712226248083,-4496.342041139491
1712226248123,-3335.175976266386
1712226248163,-1801.4628464090638
1712226248203,861.6423205551691
1712226248243,936.1234991580714
1712226248284,2085.4352695667185
1712226248323,4423.347633521305
1712226248363,4423.347633521305
1712226248403,4423.347633521305
1712226248446,4634.921905652154
1712226248484,4884.570759542985
1712226248524,5539.252668341855
1712226248564,5936.4412191146985
1712226248604,7348.818173523061
1712226248644,8684.488496483304
1712226248685,9731.360870327568
1712226248724,9775.538852497004
1712226248764,11876.641841425328
1712226248804,13298.028799160384
1712226248845,14565.527217068942
1712226248885,16424.654369910015
1712226248925,16424.654369910015
1712226248965,16424.654369910015
1712226249063,16424.654369910015
1712226249103,16424.654369910015
1712226249144,16424.654369910015
1712226249183,16424.654369910015
1712226249223,16424.654369910015
1712226249263,16424.654369910015
1712226249303,16424.654369910015
1712226249344,19567.693562013796
1712226249384,23378.892899658065
1712226249424,23378.892899658065
1712226249464,23378.892899658065
1712226249504,23378.892899658065
1712226249545,23378.892899658065
1712226249584,23378.892899658065
1712226249624,23378.892899658065
1712226249664,23378.892899658065
1712226249704,23378.892899658065
1712226249745,38171.911196621135
1712226249784,49528.6923690571
1712226249825,55891.405889343005
1712226249865,70842.42604893423
1712226249905,71006.3784294189
1712226249946,75684.8854559355
1712226249985,77047.31601548311
1712226250025,84322.12010992877
1712226250065,85538.50216745911
1712226250105,85538.50216745911
1712226250146,85538.50216745911
1712226250185,85538.50216745911
1712226250226,85538.50216745911
1712226250266,85538.50216745911
1712226250306,85538.50216745911
1712226250347,84322.12010992877
1712226250386,77047.31601548311
1712226250426,75684.8854559355
1712226250466,71006.3784294189
1712226250506,44794.84884432214
1712226250547,9081.948248826666
1712226250587,-2900.5005560261197
1712226250627,-6931.764748175163
1712226250667,-13616.227940199431
1712226250707,-13616.227940199431
1712226250748,-13616.227940199431
1712226250787,-13616.227940199431
1712226250827,-13616.227940199431
1712226250867,-13616.227940199431
1712226250907,-13616.227940199431
1712226250948,-13616.227940199431
1712226250987,-10283.39069348434
1712226251027,-10283.39069348434
1712226251068,-10283.39069348434
1712226251108,-10283.39069348434
1712226251148,-10283.39069348434
1712226251188,-10283.39069348434
1712226251228,-10283.39069348434
1712226251268,-10283.39069348434
1712226251308,-10283.39069348434
1712226251349,-10283.39069348434
1712226251388,6548.347264174139
1712226251429,7841.676947382744
1712226251469,10463.900484721642
1712226251509,25946.968459901167
1712226251550,27387.160034217406
1712226251589,27387.160034217406
1712226251629,27387.160034217406
1712226251669,35940.64986925712
1712226251709,40254.7946964039
1712226251750,45797.23133508582
1712226251790,55048.10892718332
1712226251829,55048.10892718332
1712226251870,67333.31731301034
1712226251910,68226.32063759817
1712226251951,91304.22025216278
1712226251990,91304.22025216278
1712226252030,91304.22025216278
1712226252070,91304.22025216278
1712226252110,91304.22025216278
1712226252153,91304.22025216278
1712226252193,91304.22025216278
1712226252233,91304.22025216278
1712226252273,68226.32063759817
1712226252314,67333.31731301034
1712226252355,58562.62703300407
1712226252394,58562.62703300407
1712226252434,49375.92807478923
1712226252475,38556.94172267895
1712226252515,36142.754335374106
1712226252556,35078.940865367185
1712226252595,33195.29390058643
1712226252635,16457.196263468126
1712226252676,15875.672446914949
1712226252716,14221.42788802809
1712226252757,11951.992018170888
1712226252796,9299.020934114233
1712226252836,7995.569223139901
1712226252877,5204.848176030675
1712226252917,-1935.9725593118928
1712226252957,-7986.79836581694
1712226252997,-9706.271884252317
1712226253037,-12217.46753670089
1712226253077,-12378.79988418473
1712226253117,-12967.209662776906
1712226253158,-13494.045296234079
1712226253198,-29141.6286640428
1712226253238,-30878.929583213292
1712226253278,-31240.81766592292
1712226253318,-34875.025403211126
1712226253359,-37361.63604053366
1712226253398,-40226.083872647956
1712226253439,-43525.298801535275
1712226253479,-43525.298801535275
1712226253519,-43525.298801535275
1712226253560,-43525.298801535275
1712226253599,-43583.18810201553
1712226253639,-43583.18810201553
1712226253680,-43583.18810201553
1712226253720,-43583.18810201553
1712226253761,-43583.18810201553
1712226253800,-43583.18810201553
1712226253841,-40226.083872647956
1712226253881,-37419.612263691844
1712226253921,-37361.63604053366
1712226253962,-34260.56373316748
1712226254001,-33384.51003069477
1712226254042,-27427.195674647577
1712226254082,115106.10448034294
1712226254122,209870.21776562743
1712226254164,209870.21776562743
1712226254203,1240297.5700166672
1712226254243,1240297.5700166672
1712226254283,1240297.5700166672
1712226254324,1240297.5700166672
1712226254365,1240297.5700166672
1712226254404,1240297.5700166672
1712226254444,1240297.5700166672
1712226254484,1240297.5700166672
1712226254525,1240297.5700166672
1712226254566,1174394.2147563891
1712226254605,209870.21776562743
1712226254646,-43102.46800935455
1712226254686,-659675.4369152058
1712226254726,-659675.4369152058
1712226254767,-669063.2223908389
1712226254807,-689774.9025764698
1712226254847,-689774.9025764698
1712226254888,-689774.9025764698
1712226254928,-689774.9025764698
1712226254969,-689774.9025764698
1712226255008,-689774.9025764698
1712226255049,-689774.9025764698
1712226255089,-689774.9025764698
1712226255129,-669063.2223908389
1712226255170,-659675.4369152058
1712226255209,-643563.7451749416
1712226255250,-641243.8369929795
1712226255290,-591172.7548427591
1712226255330,-573538.2097152141
1712226255371,-548204.9591353033
1712226255411,-512130.21916410467
1712226255451,-454507.73709894856
1712226255491,-449678.8324432159
1712226255532,-401965.9290246265
1712226255573,-359630.23052363563
1712226255612,-346041.15186492726
1712226255652,-329106.8171928094
1712226255692,-326625.9796570013
1712226255733,-303874.1212840001
1712226255774,-303089.69726527296
1712226255813,-287014.07795222057
1712226255854,-265641.03071829956
1712226255894,-258618.66669386835
1712226255934,-250450.21322201425
1712226255975,-247854.98727338435
1712226256015,-217257.6916438453
1712226256055,-201190.51895378344
1712226256095,-188091.40341769299
1712226256135,-183073.89994705655
1712226256176,-163282.01600974798
1712226256215,-146478.5014817398
1712226256256,-146406.45861387393
1712226256296,-132268.69410203816
1712226256336,-126304.50115734944
1712226256377,-126119.04607735085
1712226256416,-124765.81304716622
1712226256456,-124256.07851706562
1712226256497,-97606.63896239968
1712226256537,-93367.27248920803
1712226256577,-83280.16852475214
1712226256617,-81306.403949033
1712226256657,-80574.22242072597
1712226256697,-78121.29851724464
1712226256738,-77390.50229109218
1712226256778,-76739.02434424497
1712226256818,-64340.950349052204
1712226256858,-63707.041090489365
1712226256898,-62603.081268856535
1712226256938,-58927.13702198281
1712226256979,-54937.428827435244
1712226257019,-51960.134099794086
1712226257059,-49101.46053999546
1712226257099,-43165.92281827284
1712226257139,-42181.11142384377
1712226257180,-41682.8825757748
1712226257220,-41304.47239924525
1712226257260,-40440.239745634375
1712226257300,-40238.715581139084
1712226257340,-39410.439493438695
1712226257381,-37588.32127624238
1712226257421,-36532.460849686526
1712226257463,-36532.460849686526
1712226257503,-36315.21284519066
1712226257543,-34303.09447590448
1712226257584,-32738.213866486214
1712226257624,-30119.55783486273
1712226257664,-30060.01696131914
1712226257704,-28080.13177652657
1712226257745,-28002.454629926942
1712226257786,-27718.4073043284
1712226257825,-27614.99335957598
1712226257865,-27327.16115959827
1712226257906,-24054.243867954705
1712226257946,-12290.982277150732
1712226257987,-3549.519907971844
1712226258026,-1917.2684869549703
1712226258067,-855.9034834434278
1712226258107,121.13133368082345
1712226258147,3026.0361950888764
1712226258188,4700.146343130153
1712226258228,4934.503218996571
1712226258268,4984.043659327785
1712226258308,6496.727041585837
1712226258348,8320.367782476824
1712226258389,13115.954899940873
1712226258429,15197.255961570423
1712226258469,15408.409802414477
1712226258510,16593.895480935695
1712226258551,18796.44166459632
1712226258592,18796.44166459632
1712226258631,18796.44166459632
1712226258672,18796.44166459632
1712226258712,18796.44166459632
1712226258752,18796.44166459632
1712226258793,18796.44166459632
1712226258832,18796.44166459632
1712226258873,18308.200176239014
1712226258913,16593.895480935695
1712226258953,15408.409802414477
1712226258994,10840.170833365992
1712226259034,10840.170833365992
1712226259074,10840.170833365992
1712226259114,10840.170833365992
1712226259155,12681.610189403873
1712226259196,12681.610189403873
1712226259235,12681.610189403873
1712226259276,12681.610189403873
1712226259316,12681.610189403873
1712226259356,12681.610189403873
1712226259397,12681.610189403873
1712226259436,12681.610189403873
1712226259476,12681.610189403873
1712226259517,12681.610189403873
1712226259557,12681.610189403873
1712226259598,12681.610189403873
1712226259637,12681.610189403873
1712226259677,12681.610189403873
1712226259717,12681.610189403873
1712226259757,12681.610189403873
1712226259798,12681.610189403873
1712226259837,12681.610189403873
1712226259878,13270.463509605266
1712226259918,13270.463509605266
1712226259958,12063.672565971036
1712226259999,10514.096184872556
1712226260038,10514.096184872556
1712226260078,10514.096184872556
1712226260119,10514.096184872556
1712226260159,10514.096184872556
1712226260200,10514.096184872556
1712226260239,10514.096184872556
1712226260279,10514.096184872556
1712226260319,12063.672565971036
1712226260360,14560.86952307215
1712226260401,14593.956150579732
1712226260440,17832.219511426985
1712226260480,27129.162627986632
1712226260520,590556.4585393216
1712226260561,622314.5541343524
1712226260602,997661.2774712546
1712226260641,1208856.5753954174
1712226260681,1234395.6472911653
1712226260722,1279362.9126752238
1712226260762,1279362.9126752238
1712226260803,1279362.9126752238
1712226260843,1279362.9126752238
1712226260883,1279362.9126752238
1712226260923,1279362.9126752238
1712226260964,1279362.9126752238
1712226261005,1234395.6472911653
1712226261044,1208856.5753954174
1712226261085,1199260.8676574524
1712226261124,1119380.8451936045
1712226261163,1119380.8451936045
1712226261202,1119380.8451936045
1712226261241,1052559.4658734924
1712226261280,1001197.7032806631
1712226261319,941050.1975708324
1712226261358,869607.2262329813
1712226261397,817661.2154850219
1712226261436,75105.26430628542
1712226261475,-772973.2562902123
1712226261514,-813267.5325047416
1712226261553,-813267.5325047416
1712226261592,-813267.5325047416
1712226261631,-813267.5325047416
1712226261670,-813267.5325047416
1712226261709,-813267.5325047416
1712226261748,-813267.5325047416
1712226261787,-813267.5325047416
1712226261826,-813267.5325047416
1712226261865,-813267.5325047416
1712226261904,-813267.5325047416
1712226261943,-775990.2905257493
1712226261982,-689163.3506450593
1712226262021,-616470.5158575112
1712226262060,-581082.5532897622
1712226262099,-571757.1689697756
1712226262138,-557426.5606121821
1712226262177,-527786.6028821408
1712226262216,-499641.3478548024
1712226262255,-499576.83267158736
1712226262294,-496614.43200082565
1712226262334,-456881.5751969004
1712226262374,-355401.7431203574
1712226262414,-351351.6801770949
1712226262454,-335432.94028145727
1712226262494,-322447.7289270521
1712226262534,-303434.96126630856
1712226262574,-297125.53085243655
1712226262614,-290558.96474359557
1712226262654,-256872.23932904983
1712226262694,-200387.48070818838
1712226262734,-193398.53418256668
1712226262774,-193398.53418256668
1712226262814,-193398.53418256668
1712226262854,-193398.53418256668
1712226262894,-200387.48070818838
1712226262934,-200656.6624611253
1712226262974,-205120.20708674286
1712226263014,-205120.20708674286
1712226263054,-200656.6624611253
1712226263094,-200387.48070818838
1712226263134,-193398.53418256668
1712226263174,-188389.50623536017
1712226263214,-154666.37322618067
1712226263254,-133160.47770575993
1712226263294,-133160.47770575993
1712226263334,-133160.47770575993
1712226263374,-133160.47770575993
1712226263414,-133160.47770575993
1712226263454,-133160.47770575993
1712226263494,-123866.69739551027
1712226263534,-123866.69739551027
1712226263574,-123866.69739551027
1712226263614,-120976.20208469871
1712226263654,-106917.47316883481
1712226263694,-106917.47316883481
1712226263734,-106917.47316883481
1712226263774,-106917.47316883481
1712226263814,-106917.47316883481
1712226263854,-106917.47316883481
1712226263894,-106917.47316883481
1712226263934,-106917.47316883481
1712226263974,-123866.69739551027
1712226264014,-355027.9090813957
1712226264054,-729327.1979958788
1712226264094,-789769.2298137369
1712226264134,-805050.514693894
1712226264174,-805050.514693894
1712226264214,-805050.514693894
1712226264254,-805050.514693894
1712226264294,-805050.514693894
1712226264334,-805050.514693894
1712226264374,-805050.514693894
1712226264414,-805050.514693894
1712226264454,-805050.514693894
1712226264494,-805050.514693894
1712226264534,-789769.2298137369
1712226264574,-437257.4200953769
1712226264614,-436201.4117989801
1712226264654,-216867.00423469022
1712226264694,-117520.92447770434
1712226264734,24198.35414139228
1712226264774,499839.1114099384
1712226264814,1337010.2760536019
1712226264854,1337010.2760536019
1712226264894,1337010.2760536019
1712226264934,1337010.2760536019
1712226264974,1337010.2760536019
1712226265014,1337010.2760536019
1712226265054,1337010.2760536019
1712226265094,1337010.2760536019
1712226265134,1337010.2760536019
1712226265174,1337010.2760536019
1712226265214,1337010.2760536019
1712226265254,1270897.2444590218
1712226265294,1189528.3418807182
1712226265334,1139301.7744886018
1712226265374,1077803.402536422
1712226265414,971470.4150719335
1712226265454,910375.005909963
1712226265494,840155.3335457984
1712226265534,780052.441570051
1712226265574,746843.0760458312
1712226265614,688226.2469842779
1712226265654,664949.3248890331
1712226265694,640918.543954568
1712226265734,601567.6180708921
1712226265774,590626.6199840112
1712226265814,539349.0907117212
1712226265854,454971.9658382535
1712226265894,427608.40657131467
1712226265934,407854.57546619046
1712226265974,400489.8286665017
1712226266014,391216.5035242699
1712226266054,377126.70962497126
1712226266094,318161.75874223094
1712226266134,285888.6945823245
1712226266174,277559.6028252868
1712226266214,270197.61940143723
1712226266254,260479.4444982377
1712226266294,220783.9442314445
1712226266334,211509.68304631254
1712226266374,-1172871.177897594
1712226266414,-1172871.177897594
1712226266454,-1172871.177897594
1712226266494,-1172871.177897594
1712226266534,-1172871.177897594
1712226266574,-1172871.177897594
1712226266614,-1172871.177897594
1712226266654,-1172871.177897594
1712226266694,-1172871.177897594
1712226266734,-1172871.177897594
1712226266774,-1172871.177897594
1712226266814,-1072048.3141454374
1712226266854,-1016056.593417733
1712226266894,-944847.6687327721
1712226266934,-859194.5458338931
1712226266974,-793711.4675708241
1712226267014,-729827.7090739319
1712226267054,-682587.3635011148
1712226267094,-632433.0789520922
1712226267134,-585740.547730634
1712226267174,-558758.7556159594
1712226267214,-535298.9119194467
1712226267254,-504630.37049239315
1712226267294,-494258.8564836909
1712226267334,-474196.33134176536
1712226267374,-436880.6169889977
1712226267414,-403152.5337039563
1712226267454,-372961.78487736965
1712226267494,-349531.00879015913
1712226267534,-332619.90735838516
1712226267574,-299854.3672812104
1712226267614,-277585.32252073917
1712226267654,-254590.97036503372
1712226267694,-238932.2409031638
1712226267734,-225393.32652017055
1712226267774,-213565.52103311382
1712226267814,-194836.6896787046
1712226267854,-176449.59402595717
1712226267894,-164263.18939486519
1712226267934,-150149.38156101108
1712226267974,-142437.8493756475
1712226268014,-137339.39399040933
1712226268054,-132342.63196384022
1712226268094,-130488.07958134962
1712226268134,-126435.27395683131
1712226268174,-94197.54477501428
1712226268214,-65845.65034800116
1712226268254,-48619.10331422184
1712226268294,-34242.918773966376
1712226268334,-30107.419118857244
1712226268374,-24381.050101335626
1712226268414,-17106.771246646065
1712226268454,-12054.406478887191
1712226268494,-8633.73418629542
1712226268534,-7238.976503085811
1712226268574,-4850.197695856681
1712226268614,-4379.89629152487
1712226268654,-1243.346564894775
1712226268694,-704.6703852550127
1712226268734,1309.587685180828
1712226268774,6823.833922656253
1712226268814,8419.329178252723
1712226268854,10217.284655243624
1712226268894,11115.000430117361
1712226268934,17214.094103532843
1712226268974,18688.73730481509
1712226269014,19080.780947918072
1712226269054,22615.925968542695
1712226269094,25534.932228964288
1712226269134,30833.874634129927
1712226269174,30833.874634129927
1712226269214,30833.874634129927
1712226269254,30833.874634129927
1712226269294,30833.874634129927
1712226269334,30833.874634129927
1712226269374,30833.874634129927
1712226269414,30833.874634129927
1712226269454,30833.874634129927
1712226269494,30833.874634129927
1712226269534,24550.047895219875
1712226269574,22615.925968542695
1712226269614,21528.06002469221
1712226269654,19899.76240791846
1712226269694,18183.59225385217
1712226269734,16236.548523934558
1712226269774,15176.7447756459
1712226269814,14325.6379604158
1712226269854,11535.071183567634
1712226269894,9968.826255375054
1712226269934,2329.5370801100507
1712226269974,-13277.039993359474
1712226270014,-21391.37833795743
1712226270054,-23196.413651114795
1712226270094,-26973.81254227832
1712226270134,-131461.35078753345
1712226270174,-136792.25197064038
1712226270214,-138849.58597569657
1712226270254,-139610.450401532
1712226270294,-139610.450401532
1712226270334,-139610.450401532
1712226270374,-139610.450401532
1712226270414,-139610.450401532
1712226270454,-139610.450401532
1712226270494,-139610.450401532
1712226270534,-139610.450401532
1712226270574,-139610.450401532
1712226270614,-138849.58597569657
1712226270654,-131461.35078753345
1712226270694,-118015.28403150663
1712226270734,-107875.27636767924
1712226270774,-103939.16693167808
1712226270814,-86728.68200300075
1712226270854,-74573.15490323165
1712226270894,-58608.42683935864
1712226270934,-57960.935826372355
1712226270974,-45438.15935563948
1712226271014,-38560.3327036968
1712226271054,-32783.29375800956
1712226271094,-27757.198039843235
1712226271134,-27757.198039843235
1712226271174,-10233.714590206277
1712226271214,-10233.714590206277
1712226271254,-10233.714590206277
1712226271294,-3427.9583107358776
1712226271334,1436.0326022342779
1712226271374,3191.354042767547
1712226271414,3637.385585331591
1712226271454,3637.385585331591
1712226271494,3637.385585331591
1712226271534,3637.385585331591
1712226271574,3637.385585331591
1712226271614,3637.385585331591
1712226271654,4562.873985404847
1712226271694,4562.873985404847
1712226271734,4562.873985404847
1712226271774,4562.873985404847
1712226271814,4562.873985404847
1712226271854,3637.385585331591
1712226271894,3590.873566049384
1712226271934,1436.0326022342779
1712226271974,1436.0326022342779
1712226272014,1436.0326022342779
1712226272054,1436.0326022342779
1712226272094,1436.0326022342779
1712226272134,3590.873566049384
1712226272174,3590.873566049384
1712226272214,3590.873566049384
1712226272254,3590.873566049384
1712226272294,3590.873566049384
1712226272334,3590.873566049384
1712226272374,3590.873566049384
1712226272414,3590.873566049384
1712226272454,3590.873566049384
1712226272494,3590.873566049384
1712226272534,32889.99236222892
1712226272574,41553.268268129556
1712226272614,45624.37571515981
1712226272654,45624.37571515981
1712226272694,45624.37571515981
1712226272734,45624.37571515981
1712226272774,45624.37571515981
1712226272814,46713.04515189491
1712226272854,46739.02389320335
1712226272894,52146.52179830521
1712226272934,65176.57886076905
1712226272974,66547.41864092182
1712226273014,74804.50943585136
1712226273054,74816.51981805661
1712226273091,84429.18185502896
1712226273131,84429.18185502896
1712226273173,84429.18185502896
1712226273212,84429.18185502896
1712226273252,84429.18185502896
1712226273292,90277.53622081876
1712226273332,121993.5046843756
1712226273373,152032.75783339282
1712226273412,178762.80941767758
1712226273452,178762.80941767758
1712226273492,178762.80941767758
1712226273533,178762.80941767758
1712226273573,178762.80941767758
1712226273613,178762.80941767758
1712226273653,178762.80941767758
1712226273693,178762.80941767758
1712226273733,178762.80941767758
1712226273774,178762.80941767758
1712226273813,178762.80941767758
1712226273854,126078.76393168955
1712226273894,86567.32666167524
1712226273934,18023.14520526468
1712226273974,8597.702123722527
1712226274014,5144.754098717589
1712226274054,4377.394507520832
1712226274094,4377.394507520832
1712226274134,4377.394507520832
1712226274175,4377.394507520832
1712226274214,-2205.7732905158773
1712226274254,-3929.0087520536035
1712226274294,-6418.021132340655
1712226274334,-8143.587262027897
1712226274375,-10713.881399985403
1712226274414,-11562.005995289888
1712226274455,-19490.51269178046
1712226274495,-26427.051926854998
1712226274535,-26427.051926854998
1712226274575,-26427.051926854998
1712226274615,-26427.051926854998
1712226274655,-31877.483738183975
1712226274695,-46765.64224087959
1712226274735,-46765.64224087959
1712226274776,-46765.64224087959
1712226274815,-46765.64224087959
1712226274855,-46765.64224087959
1712226274895,-46765.64224087959
1712226274935,-46765.64224087959
1712226274976,-46765.64224087959
1712226275016,-46765.64224087959
1712226275056,-46765.64224087959
1712226275096,-46765.64224087959
1712226275136,-13624.967629399383
1712226275177,15758.566489944234
1712226275216,42886.37471710751
1712226275256,42895.74184688227
1712226275296,45515.80312019074
1712226275336,46888.02253462118
1712226275377,46888.02253462118
1712226275416,46888.02253462118
1712226275457,46888.02253462118
1712226275497,46888.02253462118
1712226275537,46888.02253462118
1712226275578,46888.02253462118
1712226275617,46888.02253462118
1712226275657,45515.80312019074
1712226275697,42895.74184688227
1712226275737,42886.37471710751
1712226275778,39398.915508280974
1712226275818,36776.5965032957
1712226275857,30502.530088565312
1712226275898,26458.247542712837
1712226275938,24272.662624647375
1712226275978,24069.512302271323
1712226276018,22052.58518815809
1712226276058,19116.199985810556
1712226276098,17680.229472617153
1712226276138,15920.761542042717
1712226276179,13666.501189460512
1712226276218,12253.561541126575
1712226276258,11264.52746759518
1712226276299,8040.341783820884
1712226276339,6130.098382515833
1712226276379,5081.588343651034
1712226276419,3714.94119673362
1712226276459,2330.8285664301366
1712226276499,291.0290844554547
1712226276539,-2363.6267205041368
1712226276580,-4695.656213028356
1712226276619,-4695.656213028356
1712226276659,-4695.656213028356
1712226276700,-4695.656213028356
1712226276740,-4695.656213028356
1712226276780,-4695.656213028356
1712226276820,-5255.392558426596
1712226276860,-5311.173460901249
1712226276900,-5863.9165456746705
1712226276940,-6632.84923860617
1712226276981,-6845.872531073401
1712226277020,-6903.340059008449
1712226277060,-7409.915469545405
1712226277100,-8553.622818428092
1712226277141,-8661.13397780573
1712226277181,-8661.13397780573
1712226277221,-8661.13397780573
1712226277261,-8661.13397780573
1712226277301,-8661.13397780573
1712226277341,-8661.13397780573
1712226277382,-8661.13397780573
1712226277421,-8661.13397780573
1712226277461,-8661.13397780573
1712226277502,-8661.13397780573
1712226277542,-8661.13397780573
1712226277582,-8661.13397780573
1712226277622,-8661.13397780573
1712226277662,-8661.13397780573
1712226277702,-7213.597103041131
1712226277742,-7208.066238760017
1712226277783,-7208.066238760017
1712226277822,-7208.066238760017
1712226277862,-6782.72631103755
1712226277902,-6477.907795615494
1712226277942,-6299.465518840589
1712226277983,-6299.465518840589
1712226278022,-6293.113415197004
1712226278063,-5849.146368091926
1712226278103,-5684.812610810855
1712226278143,-5191.672032858478
1712226278183,-5124.063550195424
1712226278223,-3737.019125031773
1712226278263,-3737.019125031773
1712226278303,-3737.019125031773
1712226278343,-3737.019125031773
1712226278384,-3737.019125031773
1712226278423,-3737.019125031773
1712226278463,-3737.019125031773
1712226278503,-2637.662486195797
1712226278544,-2637.662486195797
1712226278585,-2637.662486195797
1712226278624,-2300.043999839574
1712226278664,-2206.7394715971313
1712226278704,-1840.112720369827
1712226278744,-1568.1008448924404
1712226278785,-1285.7533083441667
1712226278824,-1018.8013332809787
1712226278864,-582.8095066880342
1712226278904,-213.91059116483666
1712226278945,-117.68123994255438
1712226278985,321.17103929584846
1712226279025,1258.8301291035023
1712226279065,1347.7298667384312
1712226279105,1516.9442010829225
1712226279145,1605.5930421929806
1712226279186,1605.5930421929806
1712226279225,3641.4908728152514
1712226279265,4952.612195698079
1712226279305,5301.777999206679
1712226279345,5954.428098660894
1712226279386,6849.713117413688
1712226279426,9332.34520459408
1712226279466,10612.381205346435
1712226279506,10855.445051133167
1712226279546,11054.21723166015
1712226279587,11054.21723166015
1712226279626,11309.765157626243
1712226279666,11507.511699368712
1712226279706,11507.511699368712
1712226279746,11507.511699368712
1712226279787,11507.511699368712
1712226279827,11507.511699368712
1712226279867,11507.511699368712
1712226279907,11507.511699368712
1712226279947,11309.765157626243
1712226279988,11122.176674811868
1712226280027,11054.21723166015
1712226280067,10855.445051133167
1712226280107,10821.215026887134
1712226280148,10727.626940589165
1712226280188,10620.875625726301
1712226280228,9701.569688357413
1712226280268,9461.705844426528
1712226280308,9308.540846204152
1712226280348,8884.15462439484
1712226280389,8704.716304123634
1712226280428,8105.102405995596
1712226280468,7990.130840657279
1712226280509,7970.0066528138705
1712226280548,7970.0066528138705
1712226280589,7970.0066528138705
1712226280629,7970.0066528138705
1712226280669,7970.0066528138705
1712226280709,7970.0066528138705
1712226280749,7970.0066528138705
1712226280790,7970.0066528138705
1712226280829,7970.0066528138705
1712226280870,7970.0066528138705
1712226280910,7970.0066528138705
1712226280950,11070.040204590885
1712226280990,12215.162355417851
1712226281030,12215.162355417851
1712226281070,12215.162355417851
1712226281110,13052.30864518648
1712226281150,13152.420568209374
1712226281191,13156.28303757892
1712226281230,13317.034163513687
1712226281270,13317.034163513687
1712226281310,13317.034163513687
1712226281351,13317.034163513687
1712226281391,13317.034163513687
1712226281431,13500.5992473308
1712226281471,13500.5992473308
1712226281511,13503.098339072894
1712226281551,14012.546356409322
1712226281592,14012.546356409322
1712226281631,14012.546356409322
1712226281671,14208.580077945953
1712226281712,13317.034163513687
1712226281752,13052.30864518648
1712226281792,12891.297534894664
1712226281832,12736.502496041823
1712226281872,12736.502496041823
1712226281912,12736.502496041823
1712226281952,12014.566266174428
1712226281993,11653.97602116107
1712226282032,11327.141967909876
1712226282073,11134.498586597154
1712226282113,11134.498586597154
1712226282153,11327.141967909876
1712226282194,11327.141967909876
1712226282233,11134.498586597154
1712226282273,10755.01655927999
1712226282313,10755.01655927999
1712226282353,10755.01655927999
1712226282394,10755.01655927999
1712226282433,10755.01655927999
1712226282473,10755.01655927999
1712226282513,10755.01655927999
1712226282554,10755.01655927999
1712226282594,10836.017725820187
1712226282634,10836.017725820187
1712226282674,11118.888425274985
1712226282714,11118.888425274985
1712226282754,11118.888425274985
1712226282795,11118.888425274985
1712226282834,11471.961950423196
1712226282874,11713.41716515529
1712226282914,12009.348226854578
1712226282954,12009.348226854578
1712226282995,12009.348226854578
1712226283035,12463.687544505578
1712226283074,12582.11660153512
1712226283115,12823.982662558556
1712226283155,13212.186815587804
1712226283195,13212.186815587804
1712226283235,12823.982662558556
1712226283275,12823.982662558556
1712226283315,13212.186815587804
1712226283355,13212.186815587804
1712226283396,13212.186815587804
1712226283435,13212.186815587804
1712226283475,13212.186815587804
1712226283515,13212.186815587804
1712226283555,13212.186815587804
1712226283596,13212.186815587804
1712226283636,11737.256388004636
1712226283676,11507.757486477261
1712226283716,9883.766489160713
1712226283756,9628.768453881377
1712226283797,8254.320726524573
1712226283836,4950.599443137646
1712226283876,2861.6111516237725
1712226283916,2849.396720754914
1712226283956,2849.396720754914
1712226283997,2849.396720754914
1712226284036,2849.396720754914
1712226284076,2849.396720754914
1712226284117,2849.396720754914
1712226284157,2849.396720754914
1712226284198,2849.396720754914
1712226284237,2849.396720754914
1712226284277,2812.5867162081413
1712226284317,2812.5867162081413
1712226284357,2812.5867162081413
1712226284398,2812.5867162081413
1712226284437,2849.396720754914
1712226284477,2849.396720754914
1712226284517,2849.396720754914
1712226284558,2861.6111516237725
1712226284598,2870.4470490440726
1712226284638,3024.4171571985353
1712226284678,3024.4171571985353
1712226284718,3096.745732285548
1712226284758,3444.9370466503315
1712226284799,3444.9370466503315
1712226284838,3444.9370466503315
1712226284878,3444.9370466503315
1712226284918,3444.9370466503315
1712226284959,3444.9370466503315
1712226284999,3444.9370466503315
1712226285039,3444.9370466503315
1712226285079,3096.745732285548
1712226285117,3096.745732285548
1712226285157,3096.745732285548
1712226285198,3096.745732285548
1712226285237,3096.745732285548
1712226285277,3096.745732285548
1712226285317,3096.745732285548
1712226285357,3096.745732285548
1712226285398,3096.745732285548
1712226285438,3051.5661416323856
1712226285478,2534.429510863265
1712226285518,2534.429510863265
1712226285558,2534.429510863265
1712226285599,2534.429510863265
1712226285638,2534.429510863265
1712226285678,2534.429510863265
1712226285718,2534.429510863265
1712226285758,2534.429510863265
1712226285799,2534.429510863265
1712226285839,2534.429510863265
1712226285879,2534.429510863265
1712226285919,2534.429510863265
1712226285959,2716.3729466928635
1712226286000,2716.3729466928635
1712226286039,2716.3729466928635
1712226286079,2716.3729466928635
1712226286119,2716.3729466928635
1712226286159,2716.3729466928635
1712226286200,2716.3729466928635
1712226286239,2716.3729466928635
1712226286280,2716.3729466928635
1712226286320,2836.302488346817
1712226286360,2937.6493701401632
1712226286401,2980.2756233238615
1712226286440,3453.7046945230104
1712226286480,3453.7046945230104
1712226286520,3453.7046945230104
1712226286560,3453.7046945230104
1712226286601,3453.7046945230104
1712226286641,3453.7046945230104
1712226286681,3453.7046945230104
1712226286721,3453.7046945230104
1712226286761,3453.7046945230104
1712226286802,3453.7046945230104
1712226286841,4283.420439803507
1712226286881,4654.524119477486
1712226286921,4777.898932019714
1712226286961,4777.898932019714
1712226287002,4879.961420490406
1712226287041,4911.576794010587
1712226287082,5086.413164220285
1712226287122,5282.975262662629
1712226287162,5282.975262662629
1712226287202,5402.045630479697
1712226287242,5441.94279578235
1712226287282,5640.1761327602435
1712226287322,6098.2468333132565
1712226287362,6196.876400735462
1712226287403,6271.145340202842
1712226287442,6327.136713843327
1712226287483,6808.8660956311505
1712226287523,6808.8660956311505
1712226287563,6808.8660956311505
1712226287604,6808.8660956311505
1712226287643,6808.8660956311505
1712226287683,6808.8660956311505
1712226287723,6808.8660956311505
1712226287763,7327.814327336149
1712226287804,8047.016509291483
1712226287844,8047.016509291483
1712226287884,8047.016509291483
1712226287924,8047.016509291483
1712226287964,8047.016509291483
1712226288005,8047.016509291483
1712226288044,8047.016509291483
1712226288084,8047.016509291483
1712226288124,8047.016509291483
1712226288164,8047.016509291483
1712226288205,8047.016509291483
1712226288244,7992.63766388176
1712226288284,7924.824353882112
1712226288325,7827.80996246147
1712226288365,7750.028159652138
1712226288406,7658.744074568152
1712226288445,7658.744074568152
1712226288485,7658.744074568152
1712226288525,7658.744074568152
1712226288565,7658.744074568152
1712226288606,7658.744074568152
1712226288645,7658.744074568152
1712226288686,7658.744074568152
1712226288726,7658.744074568152
1712226288766,7750.028159652138
1712226288807,7827.80996246147
1712226288846,7827.80996246147
1712226288886,7827.80996246147
1712226288926,7827.80996246147
1712226288966,7827.80996246147
1712226289007,7827.80996246147
1712226289047,7827.80996246147
1712226289087,7576.755933192791
1712226289127,7425.154027738841
1712226289167,7425.154027738841
1712226289208,7425.154027738841
1712226289247,7279.380633278051
1712226289287,6921.867399710929
1712226289327,6785.571329629747
1712226289367,6785.571329629747
1712226289408,6785.571329629747
1712226289448,6785.571329629747
1712226289488,6785.571329629747
1712226289528,6785.571329629747
1712226289568,6785.571329629747
1712226289609,6785.571329629747
1712226289648,6785.571329629747
1712226289688,6785.571329629747
1712226289728,6906.811698219739
1712226289769,6906.811698219739
1712226289809,7081.53927976219
1712226289849,7081.53927976219
1712226289889,7081.53927976219
1712226289929,7081.53927976219
1712226289969,7081.53927976219
1712226290010,7081.53927976219
1712226290049,7081.53927976219
1712226290089,7081.53927976219
1712226290130,7081.53927976219
1712226290170,7081.53927976219
1712226290210,7081.53927976219
1712226290250,6836.430452039
1712226290290,6581.904555858113
1712226290330,6541.822142753517
1712226290370,6541.822142753517
1712226290411,6541.822142753517
1712226290451,6541.822142753517
1712226290491,6541.822142753517
1712226290531,6541.822142753517
1712226290571,6541.822142753517
1712226290612,6541.822142753517
1712226290651,6541.822142753517
1712226290691,6581.904555858113
1712226290731,6836.430452039
1712226290771,6837.185042610392
1712226290812,6837.185042610392
1712226290851,6837.185042610392
1712226290891,6837.185042610392
1712226290931,6837.185042610392
1712226290972,6837.185042610392
1712226291012,6837.185042610392
1712226291052,6837.185042610392
1712226291092,6837.185042610392
1712226291132,6837.185042610392
1712226291172,6837.185042610392
1712226291213,5320.246589292539
1712226291252,4061.9355771045666
1712226291292,3186.2454414244276
1712226291332,3176.8399186441675
1712226291372,2642.0814952033106
1712226291413,2258.8059477000497
1712226291453,2227.5547377360053
1712226291493,1637.7788451830857
1712226291533,1495.6674341857433
1712226291573,1495.6674341857433
1712226291613,1495.6674341857433
1712226291653,1495.6674341857433
1712226291693,1495.6674341857433
1712226291733,1495.6674341857433
1712226291773,1461.0125964484178
1712226291814,1447.6099243834615
1712226291853,1385.6038980691228
1712226291893,1377.949402809143
1712226291934,1343.3286383384839
1712226291974,1231.4268317101523
1712226292014,1231.4268317101523
1712226292054,1122.4979230626486
1712226292094,1120.225121788215
1712226292134,1120.225121788215
1712226292174,1022.2604803342838
1712226292215,-683.8097189008258
1712226292254,-2523.2151104970835
1712226292294,-3471.9224357954226
1712226292334,-3491.8842166841496
1712226292374,-4225.0019640713
1712226292415,-4485.720053995494
1712226292455,-4547.9037710996345
1712226292495,-4703.94801708078
1712226292535,-5044.952705768868
1712226292575,-5044.952705768868
1712226292616,-5044.952705768868
1712226292655,-5044.952705768868
1712226292695,-5044.952705768868
1712226292735,-5150.680770823732
1712226292776,-5227.7830394436605
1712226292816,-5277.6252310848795
1712226292856,-5473.72181502264
1712226292896,-5528.1128455461
1712226292936,-5630.521167153027
1712226292976,-5630.521167153027
1712226293017,-5630.521167153027
1712226293056,-5944.074858358363
1712226293096,-6311.877220266964
1712226293136,-6311.877220266964
1712226293176,-8147.531909258803
1712226293217,-8380.131818177644
1712226293257,-8615.294080767082
1712226293296,-8668.314982922282
1712226293337,-8688.69671237981
1712226293377,-8688.69671237981
1712226293417,-8688.69671237981
1712226293457,-8688.69671237981
1712226293497,-8688.69671237981
1712226293537,-8688.69671237981
1712226293577,-8688.69671237981
1712226293618,-8688.69671237981
1712226293657,-8688.69671237981
1712226293698,-8668.314982922282
1712226293738,-8615.294080767082
1712226293778,-8140.208526363596
1712226293819,-7340.754350215662
1712226293858,-6784.784133159323
1712226293898,-6784.784133159323
1712226293938,-6784.784133159323
1712226293978,-6784.784133159323
1712226294019,-6784.784133159323
1712226294058,-6784.784133159323
1712226294099,-6784.784133159323
1712226294139,-6784.784133159323
1712226294179,-6784.784133159323
1712226294220,-6784.784133159323
1712226294259,-6784.784133159323
1712226294299,-7917.480376587715
1712226294339,-8430.30210119905
1712226294379,-8430.30210119905
1712226294420,-8430.30210119905
1712226294460,-8430.30210119905
1712226294499,-8430.30210119905
1712226294540,-8430.30210119905
1712226294580,-8430.30210119905
1712226294620,-8430.30210119905
1712226294660,-8430.30210119905
1712226294700,-8430.30210119905
1712226294740,-8430.30210119905
1712226294780,-8158.09282865026
1712226294821,-7718.824951240094
1712226294860,-7694.966027182527
1712226294900,-7694.966027182527
1712226294941,-7694.966027182527
1712226294981,-7694.966027182527
1712226295022,-7694.966027182527
1712226295061,-7694.966027182527
1712226295101,-7694.966027182527
1712226295141,-7694.966027182527
1712226295182,-7694.966027182527
1712226295222,-7694.966027182527
1712226295262,-7694.966027182527
1712226295302,-8190.7987052765675
1712226295342,-8190.7987052765675
1712226295382,-8190.7987052765675
1712226295423,-8190.7987052765675
1712226295462,-8190.7987052765675
1712226295502,-8190.7987052765675
1712226295542,-8190.7987052765675
1712226295582,-8190.7987052765675
1712226295623,-8190.7987052765675
1712226295663,-8190.7987052765675
1712226295703,-8190.7987052765675
1712226295743,-7799.71884352644
1712226295783,-7499.924666734412
1712226295824,-7199.092266673222
1712226295863,-6453.595891583711
1712226295903,-6287.081747826422
1712226295943,-5737.654188564746
1712226295984,-5212.858719495591
1712226296024,-5212.858719495591
1712226296064,-5212.858719495591
1712226296104,-5212.858719495591
1712226296144,-5212.858719495591
1712226296184,-5212.858719495591
1712226296225,-5212.858719495591
1712226296264,-5212.858719495591
1712226296304,-5066.605455640703
1712226296345,-4858.9719846553635
1712226296385,-4796.660009117331
1712226296425,-4513.126062658383
1712226296465,-4513.126062658383
1712226296505,-4513.126062658383
1712226296545,-4513.126062658383
1712226296585,-4513.126062658383
1712226296626,-4513.126062658383
1712226296665,-4513.126062658383
1712226296706,-4513.126062658383
1712226296746,-4513.126062658383
1712226296786,-4303.840241611237
1712226296826,-3960.0828378871083
1712226296866,-3280.0777622149326
1712226296906,-3154.517356335884
1712226296946,-2699.6260577463545
1712226296986,-2456.7332438572776
1712226297027,-1215.235609995667
1712226297067,-147.59894956438802
1712226297107,270.71160608390346
1712226297150,270.71160608390346
1712226297190,270.71160608390346
1712226297231,270.71160608390346
1712226297270,270.71160608390346
1712226297310,270.71160608390346
1712226297351,270.71160608390346
1712226297391,270.71160608390346
1712226297431,270.71160608390346
1712226297471,270.71160608390346
1712226297511,270.71160608390346
1712226297551,141.9250443414785
1712226297591,-206.6442812588066
1712226297632,-840.9220353965648
1712226297671,-925.5489221233875
1712226297712,-925.5489221233875
1712226297752,-925.5489221233875
1712226297792,-925.5489221233875
1712226297833,-925.5489221233875
1712226297872,-925.5489221233875
1712226297912,-925.5489221233875
1712226297953,-925.5489221233875
1712226297992,-925.5489221233875
1712226298033,-1000.9168067318387
1712226298073,-1000.9168067318387
1712226298113,-1000.9168067318387
1712226298153,-1000.9168067318387
1712226298193,-1103.0598601053935
1712226298234,-2017.7800097782165
1712226298273,-2710.917645133799
1712226298313,-3108.264868150465
1712226298353,-6592.465838349657
1712226298393,-7244.67364281835
1712226298434,-7244.67364281835
1712226298474,-11036.31715338258
1712226298514,-11036.31715338258
1712226298554,-11036.31715338258
1712226298594,-11036.31715338258
1712226298634,-12974.129420407815
1712226298674,-18538.476581697818
1712226298714,-18816.999577993527
1712226298754,-18816.999577993527
1712226298794,-18816.999577993527
1712226298835,-18816.999577993527
1712226298874,-18816.999577993527
1712226298915,-18538.476581697818
1712226298954,-12974.129420407815
1712226298995,-11036.31715338258
1712226299036,-7495.776320348727
1712226299075,-7323.45263680513
1712226299115,-7323.45263680513
1712226299155,-7323.45263680513
1712226299195,-7323.45263680513
1712226299236,-7323.45263680513
1712226299275,-7323.45263680513
1712226299315,-7323.45263680513
1712226299355,-7495.776320348727
1712226299395,-18538.476581697818
1712226299436,-18816.999577993527
1712226299476,-18816.999577993527
1712226299516,-19452.123790822458
1712226299556,-33864.19419489289
1712226299596,-33864.19419489289
1712226299637,-33864.19419489289
1712226299676,-33864.19419489289
1712226299716,-33864.19419489289
1712226299756,-33864.19419489289
1712226299796,-33864.19419489289
1712226299837,-33864.19419489289
1712226299876,-33864.19419489289
1712226299916,-33864.19419489289
1712226299956,-33864.19419489289
1712226299997,-14331.796756412135
1712226300037,3999.8156390725635
1712226300077,31843.588301945012
1712226300117,44222.103214432485
1712226300157,44291.789236368146
1712226300197,44291.789236368146
1712226300238,44291.789236368146
1712226300277,44291.789236368146
1712226300317,44291.789236368146
1712226300357,44291.789236368146
1712226300397,47955.95098898513
1712226300438,50395.638126042206
1712226300478,51462.093926388305
1712226300518,51586.89488548506
1712226300558,55657.8759798822
1712226300598,51586.89488548506
1712226300639,56884.06774051045
1712226300678,57904.049743388314
1712226300718,60210.82095702295
1712226300758,60210.82095702295
1712226300798,60210.82095702295
1712226300839,60210.82095702295
1712226300879,60210.82095702295
1712226300919,60210.82095702295
1712226300959,60210.82095702295
1712226300999,60210.82095702295
1712226301040,60210.82095702295
1712226301079,60210.82095702295
1712226301119,60210.82095702295
1712226301159,60210.82095702295
1712226301199,60210.82095702295
1712226301240,46340.47982369317
1712226301280,44034.9548957916
1712226301320,20381.720277622808
1712226301360,-9936.493573076325
1712226301400,-33731.12745202775
1712226301441,-39269.22323401505
1712226301480,-39863.08513803966
1712226301520,-42715.5147065483
1712226301560,-42715.5147065483
1712226301600,-42715.5147065483
1712226301641,-42715.5147065483
1712226301681,-42715.5147065483
1712226301721,-42715.5147065483
1712226301761,-42715.5147065483
1712226301801,-42715.5147065483
1712226301841,-42715.5147065483
1712226301881,-39863.08513803966
1712226301921,-39269.22323401505
1712226301961,-31676.161694664042
1712226302001,-19491.28094390384
1712226302042,-14940.302269181237
1712226302081,-13306.458457823377
1712226302122,-13100.707803822123
1712226302162,-2561.3377305702306
1712226302202,-1326.5337766692974
1712226302242,1508.1994936252013
1712226302282,1593.5188224744052
1712226302322,3597.486372766085
1712226302362,4839.687438226538
1712226302402,8361.949934598524
1712226302443,8361.949934598524
1712226302482,8361.949934598524
1712226302523,8361.949934598524
1712226302563,8361.949934598524
1712226302603,8361.949934598524
1712226302644,8361.949934598524
1712226302683,8361.949934598524
1712226302723,8361.949934598524
1712226302763,8361.949934598524
1712226302803,3597.486372766085
1712226302844,1503.542688156478
1712226302883,-4421.2582321066875
1712226302923,-4421.2582321066875
1712226302963,-4421.2582321066875
1712226303004,-4421.2582321066875
1712226303044,-4421.2582321066875
1712226303084,-4421.2582321066875
1712226303124,-8341.327136324253
1712226303164,-10591.07616673573
1712226303204,-10591.07616673573
1712226303245,-10591.07616673573
1712226303284,-14588.128185627284
1712226303324,-18827.332698540762
1712226303365,-20566.67422517971
1712226303405,-18827.332698540762
1712226303445,-16132.72473169677
1712226303485,-16132.72473169677
1712226303525,-16132.72473169677
1712226303565,-15856.687135791639
1712226303605,-15856.687135791639
1712226303646,-15856.687135791639
1712226303685,-15856.687135791639
1712226303726,-16132.72473169677
1712226303766,-16132.72473169677
1712226303806,-16132.72473169677
1712226303847,-17842.14423372154
1712226303886,-18827.332698540762
1712226303926,-19143.703547810204
1712226303966,-20506.13344642194
1712226304006,-20506.13344642194
1712226304047,-20741.245467274915
1712226304087,-21090.17677198327
1712226304126,-24098.08863057359
1712226304167,-24098.08863057359
1712226304210,-25159.72043769993
1712226304248,-27867.500050916802
1712226304287,-28801.22570354631
1712226304327,-29715.40942963399
1712226304367,-29715.40942963399
1712226304407,-29715.40942963399
1712226304448,-29715.40942963399
1712226304487,-29715.40942963399
1712226304528,-29715.40942963399
1712226304568,-29715.40942963399
1712226304608,-29715.40942963399
1712226304649,-29715.40942963399
1712226304688,-29715.40942963399
1712226304728,-28801.22570354631
1712226304768,-16093.680098597426
1712226304808,-15787.404753376264
1712226304849,-15787.404753376264
1712226304889,-15787.404753376264
1712226304929,-15787.404753376264
1712226304969,-15787.404753376264
1712226305009,-15787.404753376264
1712226305050,-15787.404753376264
1712226305089,-15787.404753376264
1712226305129,-15787.404753376264
1712226305170,-15787.404753376264
1712226305210,-15787.404753376264
1712226305250,-18974.930213686544
1712226305290,-18974.930213686544
1712226305330,-18974.930213686544
1712226305370,-18974.930213686544
1712226305410,-18974.930213686544
1712226305451,-18974.930213686544
1712226305490,-18974.930213686544
1712226305531,-18974.930213686544
1712226305571,-18974.930213686544
1712226305611,-18974.930213686544
1712226305652,-18974.930213686544
1712226305691,-18974.930213686544
1712226305731,-18974.930213686544
1712226305771,-18786.720440957695
1712226305811,-18173.176386989653
1712226305852,-18103.27310379455
1712226305892,-17923.737289168406
1712226305932,-17614.652957212646
1712226305972,-17216.492610706482
1712226306012,-16886.68162045302
1712226306053,-16668.136867069406
1712226306092,-16444.71418799972
1712226306132,-15907.570024571382
1712226306173,-15500.023981968407
1712226306213,-14918.239480776247
1712226306253,-14918.239480776247
1712226306293,-14918.239480776247
1712226306333,-14918.239480776247
1712226306373,-14918.239480776247
1712226306416,-14918.239480776247
1712226306454,-13977.593378637219
1712226306493,-12916.945845431415
1712226306533,-12064.13649372803
1712226306573,-11175.338344082935
1712226306614,-10208.83943622373
1712226306654,-10208.83943622373
1712226306693,-10208.83943622373
1712226306734,-10208.83943622373
1712226306774,-10208.83943622373
1712226306814,-10097.102677049581
1712226306855,-10097.102677049581
1712226306894,-10097.102677049581
1712226306934,-9874.766026056372
1712226306974,-9743.568584409775
1712226307014,-8638.43975217361
1712226307055,-8293.83986634342
1712226307094,-8217.130766939372
1712226307134,-7041.20347581571
1712226307174,-6963.8114133155905
1712226307215,-6963.8114133155905
1712226307255,-6963.8114133155905
1712226307295,-6963.8114133155905
1712226307335,-6963.8114133155905
1712226307375,-6963.8114133155905
1712226307415,-6887.317127045477
1712226307456,-5866.724872020772
1712226307495,-4883.914944865741
1712226307535,-4152.805233839434
1712226307575,-3513.7286075127777
1712226307615,-3513.7286075127777
1712226307656,-3513.7286075127777
1712226307696,-3513.7286075127777
1712226307736,-3291.339710464934
1712226307776,-3291.339710464934
1712226307816,-3291.339710464934
1712226307857,-2961.469030963257
1712226307896,-2841.0926632578485
1712226307936,-2458.170284707332
1712226307976,-1902.0121134249493
1712226308016,-1459.2569771925919
1712226308057,-1286.9363579505589
1712226308097,-1170.7696024929173
1712226308137,-861.2593830595724
1712226308177,-861.2593830595724
1712226308217,-861.2593830595724
1712226308257,-861.2593830595724
1712226308297,-861.2593830595724
1712226308337,-861.2593830595724
1712226308377,-115.32845364557579
1712226308417,624.3312662802637
1712226308458,1240.1298904088326
1712226308497,1244.484949915437
1712226308538,4127.648759892676
1712226308578,4303.693071877118
1712226308620,4764.700365516823
1712226308659,4817.426936805714
1712226308698,4817.426936805714
1712226308738,4827.109679358546
1712226308778,4859.398770623375
1712226308818,5344.638973365305
1712226308859,5458.528845233377
1712226308898,5804.649278440978
1712226308938,5940.962230720092
1712226308978,6091.9952070242725
1712226309019,6270.779170530848
1712226309059,6646.00588914426
1712226309099,7128.572419052711
1712226309139,7175.164722241228
1712226309180,7175.164722241228
1712226309220,7175.164722241228
1712226309261,7175.164722241228
1712226309300,7175.164722241228
1712226309341,8096.880033155903
1712226309381,8227.618823926896
1712226309421,8227.618823926896
1712226309461,8227.618823926896
1712226309501,8227.618823926896
1712226309541,8227.618823926896
1712226309581,8227.618823926896
1712226309621,8227.618823926896
1712226309662,8227.618823926896
1712226309701,8227.618823926896
1712226309742,8227.618823926896
1712226309782,8096.880033155903
1712226309822,7907.681096946821
1712226309863,6249.881324041169
1712226309902,6001.104755543871
1712226309942,6001.104755543871
1712226309982,6001.104755543871
1712226310022,6001.104755543871
1712226310063,6001.104755543871
1712226310103,6001.104755543871
1712226310143,6001.104755543871
1712226310183,6001.104755543871
1712226310223,6001.104755543871
1712226310264,6001.104755543871
1712226310303,6001.104755543871
1712226310343,6692.363820471801
1712226310383,6692.363820471801
1712226310423,6692.363820471801
1712226310464,6692.363820471801
1712226310504,6692.363820471801
1712226310544,6692.363820471801
1712226310584,6692.363820471801
1712226310624,6692.363820471801
1712226310665,6692.363820471801
1712226310704,6692.363820471801
1712226310744,6692.363820471801
1712226310784,5676.800306534627
1712226310825,5676.800306534627
1712226310865,5676.800306534627
1712226310905,5676.800306534627
1712226310945,5676.800306534627
1712226310985,5676.800306534627
1712226311025,5676.800306534627
1712226311066,5676.800306534627
1712226311105,5676.800306534627
1712226311145,5676.800306534627
1712226311185,5676.800306534627
1712226311225,6486.627606099006
1712226311266,6619.867074125679
1712226311306,6987.227462165058
1712226311346,6987.227462165058
1712226311386,6987.227462165058
1712226311426,6987.227462165058
1712226311467,6987.227462165058
1712226311506,6987.227462165058
1712226311546,6987.227462165058
1712226311586,6987.227462165058
1712226311626,6987.227462165058
1712226311667,6987.227462165058
1712226311707,6987.227462165058
1712226311747,6653.13106388133
1712226311787,6653.13106388133
1712226311827,6653.13106388133
1712226311868,6653.13106388133
1712226311907,6653.13106388133
1712226311947,6653.13106388133
1712226311987,6653.13106388133
1712226312027,6588.876967815915
1712226312068,6552.596683664015
1712226312107,6455.116615993204
1712226312148,6269.413288497366
1712226312188,6192.329734401777
1712226312228,6066.630302057136
1712226312269,5865.92454236187
1712226312308,5786.954234967241
1712226312348,5786.954234967241
1712226312388,5786.954234967241
1712226312428,5044.08558866079
1712226312469,4333.773487618659
1712226312509,2730.2877769097686
1712226312549,1927.3400508719496
1712226312589,1844.6281831485685
1712226312629,1844.6281831485685
1712226312670,1844.6281831485685
1712226312709,1844.6281831485685
1712226312749,1844.6281831485685
1712226312789,1844.6281831485685
1712226312830,1844.6281831485685
1712226312870,1844.6281831485685
1712226312910,1844.6281831485685
1712226312950,1844.6281831485685
1712226312990,1844.6281831485685
1712226313030,1844.6281831485685
1712226313071,1826.4502371933777
1712226313110,1826.4502371933777
1712226313150,1826.4502371933777
1712226313191,1826.4502371933777
1712226313231,1826.4502371933777
1712226313271,1826.4502371933777
1712226313311,1713.2460516532883
1712226313351,1713.2460516532883
1712226313391,1713.2460516532883
1712226313431,1634.2817206215113
1712226313472,350.45196431223303
1712226313511,184.494856194593
1712226313551,172.9318661086727
1712226313592,172.9318661086727
1712226313632,172.9318661086727
1712226313673,172.9318661086727
1712226313712,172.9318661086727
1712226313752,172.9318661086727
1712226313792,172.9318661086727
1712226313832,172.9318661086727
1712226313873,172.9318661086727
1712226313913,172.9318661086727
1712226313953,172.9318661086727
1712226313993,172.9318661086727
1712226314033,172.9318661086727
1712226314074,172.9318661086727
1712226314113,172.9318661086727
1712226314153,172.9318661086727
1712226314193,172.9318661086727
1712226314233,172.9318661086727
1712226314274,147.79876180621795
1712226314314,97.99772327300161
1712226314353,-1520.9669459215365
1712226314394,-1520.9669459215365
1712226314434,-1520.9669459215365
1712226314474,-1520.9669459215365
1712226314514,-1520.9669459215365
1712226314554,-1520.9669459215365
1712226314594,-1520.9669459215365
1712226314634,-1520.9669459215365
1712226314675,-1520.9669459215365
1712226314714,-1520.9669459215365
1712226314754,-1520.9669459215365
1712226314794,-1204.0136124799028
1712226314834,-672.9322236734442
1712226314875,-101.75149121833965
1712226314915,-101.75149121833965
1712226314954,-101.75149121833965
1712226314995,-101.75149121833965
1712226315035,-101.75149121833965
1712226315075,-101.75149121833965
1712226315115,-101.75149121833965
1712226315155,-101.75149121833965
1712226315195,-101.75149121833965
1712226315235,-101.75149121833965
1712226315276,-101.75149121833965
1712226315315,-961.2583007742651
1712226315355,-1360.5835040763486
1712226315396,-1360.5835040763486
1712226315435,-1360.5835040763486
1712226315476,-1360.5835040763486
1712226315516,-1360.5835040763486
1712226315556,-1360.5835040763486
1712226315596,-1360.5835040763486
1712226315636,-1360.5835040763486
1712226315677,-1360.5835040763486
1712226315716,-1360.5835040763486
1712226315756,-1360.5835040763486
1712226315796,-962.0626529254951
1712226315836,-344.27788827125914
1712226315877,-344.27788827125914
1712226315917,-344.27788827125914
1712226315957,-344.27788827125914
1712226315997,-344.27788827125914
1712226316037,-344.27788827125914
1712226316078,-344.27788827125914
1712226316117,-344.27788827125914
1712226316157,-344.27788827125914
1712226316197,-344.27788827125914
1712226316237,-344.27788827125914
1712226316278,-1709.3230537185445
1712226316317,-2436.1181542179547
1712226316357,-2507.5254996074364
1712226316397,-2507.5254996074364
1712226316438,-2507.5254996074364
1712226316478,-2507.5254996074364
1712226316518,-2507.5254996074364
1712226316558,-2507.5254996074364
1712226316598,-2507.5254996074364
1712226316638,-2507.5254996074364
1712226316679,-2507.5254996074364
1712226316718,-2507.5254996074364
1712226316758,-2436.1181542179547
1712226316798,-2507.5254996074364
1712226316838,-2507.5254996074364
1712226316879,-2507.5254996074364
1712226316918,-2507.5254996074364
1712226316959,-2507.5254996074364
1712226316999,-2507.5254996074364
1712226317039,-2507.5254996074364
1712226317080,-2507.5254996074364
1712226317119,-2507.5254996074364
1712226317159,-2443.0525637052488
1712226317199,-1941.0431639866438
1712226317239,-1941.0431639866438
1712226317280,-1941.0431639866438
1712226317319,-1941.0431639866438
1712226317359,-1941.0431639866438
1712226317399,-1941.0431639866438
1712226317440,-1941.0431639866438
1712226317480,-1941.0431639866438
1712226317520,-1941.0431639866438
1712226317560,-1941.0431639866438
1712226317600,-1941.0431639866438
1712226317640,-1708.533230027184
1712226317681,-1041.2372487382963
1712226317720,-142.09801358892582
1712226317760,-142.09801358892582
1712226317800,-142.09801358892582
1712226317840,-142.09801358892582
1712226317881,-142.09801358892582
1712226317921,-142.09801358892582
1712226317961,-142.09801358892582
1712226318001,-142.09801358892582
1712226318041,-142.09801358892582
1712226318082,-142.09801358892582
1712226318121,-142.09801358892582
1712226318161,-993.324297813233
1712226318201,-993.324297813233
1712226318241,-993.324297813233
1712226318282,-993.324297813233
1712226318321,-993.324297813233
1712226318361,-993.324297813233
1712226318402,-993.324297813233
1712226318442,-993.324297813233
1712226318482,-993.324297813233
1712226318522,-993.324297813233
1712226318562,-993.324297813233
1712226318602,-486.49878749623895
1712226318642,-244.67119090841152
1712226318683,-169.2713099126704
1712226318722,86.70771031128243
1712226318763,86.70771031128243
1712226318802,86.70771031128243
1712226318843,86.70771031128243
1712226318884,86.70771031128243
1712226318923,86.70771031128243
1712226318963,86.70771031128243
1712226319003,86.70771031128243
1712226319043,86.70771031128243
1712226319084,-169.2713099126704
1712226319123,-244.67119090841152
1712226319163,-991.3562462027185
1712226319203,-991.3562462027185
1712226319243,-1039.8086927444674
1712226319284,-1119.3252783496864
1712226319323,-1119.3252783496864
1712226319364,-1119.3252783496864
1712226319404,-1119.3252783496864
1712226319444,-1119.3252783496864
1712226319485,-1119.3252783496864
1712226319524,-1119.3252783496864
1712226319564,-1119.3252783496864
1712226319604,-1039.8086927444674
1712226319644,-991.3562462027185
1712226319685,-935.6828425866552
1712226319724,-56.20081242895685
1712226319764,475.81229946389794
1712226319804,475.81229946389794
1712226319845,475.81229946389794
1712226319885,475.81229946389794
1712226319925,475.81229946389794
1712226319965,475.81229946389794
1712226320005,475.81229946389794
1712226320045,475.81229946389794
1712226320086,475.81229946389794
1712226320125,475.81229946389794
1712226320165,475.81229946389794
1712226320205,475.81229946389794
1712226320245,475.81229946389794
1712226320286,475.81229946389794
1712226320325,475.81229946389794
1712226320365,475.81229946389794
1712226320406,475.81229946389794
1712226320446,475.81229946389794
1712226320486,475.81229946389794
1712226320526,475.81229946389794
1712226320566,475.81229946389794
1712226320606,576.8331899489276
1712226320646,980.0219677882269
1712226320687,980.0219677882269
1712226320726,980.0219677882269
1712226320766,980.0219677882269
1712226320807,980.0219677882269
1712226320847,980.0219677882269
1712226320887,980.0219677882269
1712226320927,980.0219677882269
1712226320967,980.0219677882269
1712226321007,980.0219677882269
1712226321047,980.0219677882269
1712226321088,685.7766231666319
1712226321127,685.7766231666319
1712226321168,685.7766231666319
1712226321207,685.7766231666319
1712226321248,685.7766231666319
1712226321288,685.7766231666319
1712226321328,685.7766231666319
1712226321368,685.7766231666319
1712226321408,685.7766231666319
1712226321448,685.7766231666319
1712226321489,685.7766231666319
1712226321528,930.0140899685211
1712226321568,970.2052105506882
1712226321608,970.2052105506882
1712226321649,970.2052105506882
1712226321689,970.2052105506882
1712226321729,970.2052105506882
1712226321769,970.2052105506882
1712226321809,970.2052105506882
1712226321849,970.2052105506882
1712226321890,970.2052105506882
1712226321929,970.2052105506882
1712226321969,970.2052105506882
1712226322009,327.59971224493347
1712226322049,-1033.669554658467
1712226322090,-1042.1204156416934
1712226322130,-1362.2835776330903
1712226322170,-2421.026912377216
1712226322210,-2441.192688395502
1712226322250,-2472.7366212652996
1712226322291,-2472.7366212652996
1712226322330,-2472.7366212652996
1712226322370,-2472.7366212652996
1712226322410,-2472.7366212652996
1712226322450,-2472.7366212652996
1712226322491,-2472.7366212652996
1712226322530,-2472.7366212652996
1712226322570,-2673.8032325471286
1712226322611,-2884.1588997822255
1712226322651,-2884.1588997822255
1712226322691,-2907.1516341366805
1712226322731,-2932.6993345278315
1712226322771,-2932.6993345278315
1712226322811,-2932.6993345278315
1712226322851,-2932.6993345278315
1712226322892,-2932.6993345278315
1712226322931,-2932.6993345278315
1712226322972,-4004.948648665333
1712226323012,-4844.339909216622
1712226323052,-4844.339909216622
1712226323093,-4844.339909216622
1712226323132,-4844.339909216622
1712226323172,-4844.339909216622
1712226323212,-4844.339909216622
1712226323252,-4844.339909216622
1712226323293,-4844.339909216622
1712226323333,-4844.339909216622
1712226323372,-4844.339909216622
1712226323412,-4844.339909216622
1712226323453,-4220.16393847554
1712226323493,-4220.16393847554
1712226323532,-4220.16393847554
1712226323573,-4220.16393847554
1712226323613,-4220.16393847554
1712226323653,-4220.16393847554
1712226323694,-4220.16393847554
1712226323733,-4220.16393847554
1712226323773,-4220.16393847554
1712226323813,-4220.16393847554
1712226323853,-4220.16393847554
1712226323894,-5050.535091991071
1712226323933,-5264.838041511131
1712226323973,-5264.838041511131
1712226324013,-5264.838041511131
1712226324054,-5264.838041511131
1712226324094,-5264.838041511131
1712226324134,-5264.838041511131
1712226324174,-5264.838041511131
1712226324214,-5264.838041511131
1712226324254,-5264.838041511131
1712226324295,-5264.838041511131
1712226324334,-5264.838041511131
1712226324374,-4551.620775335003
1712226324414,-4551.620775335003
1712226324454,-4551.620775335003
1712226324495,-4551.620775335003
1712226324535,-4551.620775335003
1712226324575,-4551.620775335003
1712226324615,-4551.620775335003
1712226324655,-4551.620775335003
1712226324695,-4551.620775335003
1712226324735,-4551.620775335003
1712226324775,-4551.620775335003
1712226324815,-5232.689407149795
1712226324855,-6831.596002883045
1712226324896,-7396.753269516397
1712226324935,-7396.753269516397
1712226324975,-7396.753269516397
1712226325016,-7396.753269516397
1712226325056,-7512.295459454181
1712226325096,-7512.295459454181
1712226325136,-7512.295459454181
1712226325176,-7512.295459454181
1712226325216,-7512.295459454181
1712226325256,-7512.295459454181
1712226325297,-7512.295459454181
1712226325336,-7512.295459454181
1712226325377,-7336.671331435442
1712226325416,-7301.173010411905
1712226325457,-6887.833847947884
1712226325497,-6887.833847947884
1712226325537,-6887.833847947884
1712226325577,-6821.706543442793
1712226325617,-6821.706543442793
1712226325657,-6821.706543442793
1712226325698,-6821.706543442793
1712226325737,-6821.706543442793
1712226325777,-6821.706543442793
1712226325817,-6821.706543442793
1712226325858,-6887.432704466395
1712226325898,-6887.432704466395
1712226325938,-6887.432704466395
1712226325978,-6887.432704466395
1712226326018,-6887.432704466395
1712226326058,-6887.432704466395
1712226326099,-6887.432704466395
1712226326138,-6887.432704466395
1712226326178,-5749.836603648728
1712226326218,-5749.836603648728
1712226326258,-5749.836603648728
1712226326299,-5749.836603648728
1712226326338,-1680.6080644831527
1712226326378,4249.313899710774
1712226326419,5487.217444229871
1712226326459,18779.169578820467
1712226326499,49965.97316398495
1712226326539,56272.054097649874
1712226326579,58928.693733690074
1712226326619,58928.693733690074
1712226326659,58928.693733690074
1712226326700,58928.693733690074
1712226326739,58928.693733690074
1712226326779,58928.693733690074
1712226326820,58928.693733690074
1712226326860,58928.693733690074
1712226326900,58928.693733690074
1712226326940,59226.63220623648
1712226326980,58928.693733690074
1712226327020,58065.418154781684
1712226327060,57962.84747521393
1712226327101,57962.84747521393
1712226327140,57618.46918724524
1712226327181,56896.73027565773
1712226327221,56347.48619868141
1712226327261,56177.90916087548
1712226327302,55708.127688257024
1712226327341,54334.671756754164
1712226327381,53800.00072953501
1712226327421,53266.04987254413
1712226327461,50888.56748351897
1712226327502,49270.77338551218
1712226327542,49270.77338551218
1712226327582,48709.29286752525
1712226327622,48709.29286752525
1712226327662,48709.29286752525
1712226327703,48709.29286752525
1712226327742,45970.253369566984
1712226327782,39333.02953196876
1712226327822,38346.93572719209
1712226327862,38227.056390404
1712226327903,38227.056390404
1712226327943,34499.477019272745
1712226327983,32523.503980461042
1712226328023,32523.503980461042
1712226328063,32523.503980461042
1712226328104,32523.503980461042
1712226328143,32523.503980461042
1712226328183,32523.503980461042
1712226328223,32523.503980461042
1712226328263,32523.503980461042
1712226328304,32523.503980461042
1712226328344,28266.253910934553
1712226328384,20007.821224281564
1712226328424,3820.181417184416
1712226328464,-8702.9305124206
1712226328505,-8702.9305124206
1712226328544,-8702.9305124206
1712226328584,-8702.9305124206
1712226328624,-8702.9305124206
1712226328665,-8702.9305124206
1712226328705,-8702.9305124206
1712226328745,-8702.9305124206
1712226328785,-11345.916495681275
1712226328825,-15317.778601270635
1712226328865,-24197.61245090328
1712226328906,-26436.409196837805
1712226328945,-26436.409196837805
1712226328985,-26436.409196837805
1712226329025,-26436.409196837805
1712226329066,-26436.409196837805
1712226329106,-26436.409196837805
1712226329146,-24889.65083381487
1712226329186,-24889.65083381487
1712226329226,-24197.61245090328
1712226329266,-23371.204138376284
1712226329307,-23371.204138376284
1712226329346,-23371.204138376284
1712226329386,-23371.204138376284
1712226329426,-23371.204138376284
1712226329467,-23371.204138376284
1712226329507,-23371.204138376284
1712226329547,-23371.204138376284
1712226329587,-23371.204138376284
1712226329627,-23371.204138376284
1712226329667,-23371.204138376284
1712226329708,-23371.204138376284
1712226329747,-23371.204138376284
1712226329787,-23371.204138376284
1712226329828,-22772.24351775041
1712226329868,-22167.460062230937
1712226329908,-20566.732818828663
1712226329948,-20566.732818828663
1712226329988,-20566.732818828663
1712226330028,-20566.732818828663
1712226330068,-20566.732818828663
1712226330109,-20566.732818828663
1712226330149,-22167.460062230937
1712226330189,-23868.224551758263
1712226330229,-25602.492146377917
1712226330269,-27048.068941994105
1712226330310,-27383.218330864795
1712226330349,-27933.033221144928
1712226330389,-28594.069062216673
1712226330429,-32205.57549000671
1712226330469,-34584.28437726898
1712226330510,-39934.52056635427
1712226330550,-42514.043873075396
1712226330590,-46138.416489336174
1712226330630,-46138.416489336174
1712226330670,-46138.416489336174
1712226330711,-46138.416489336174
1712226330750,-46138.416489336174
1712226330790,-46138.416489336174
1712226330830,-46138.416489336174
1712226330871,-46138.416489336174
1712226330911,-46138.416489336174
1712226330951,-46138.416489336174
1712226330991,-46138.416489336174
1712226331031,-44769.632343922975
1712226331071,-44093.050932352664
1712226331112,-38562.8841379995
1712226331151,-33237.504630380776
1712226331191,-19229.606924958993
1712226331231,-3362.3874253565446
1712226331272,3527.9457074850798
1712226331312,5980.375997315161
1712226331352,8614.144733944442
1712226331392,11653.470864718314
1712226331432,14573.396030699369
1712226331472,18892.322333833203
1712226331513,19751.17575783818
1712226331552,24838.346569719957
1712226331592,27699.624811817193
1712226331632,27699.624811817193
1712226331672,27699.624811817193
1712226331713,27699.624811817193
1712226331752,27699.624811817193
1712226331792,27699.624811817193
1712226331832,27699.624811817193
1712226331873,27699.624811817193
1712226331913,27699.624811817193
1712226331953,27699.624811817193
1712226331993,27699.624811817193
1712226332033,23857.171570168342
1712226332073,23857.171570168342
1712226332114,23857.171570168342
1712226332153,23857.171570168342
1712226332193,23857.171570168342
1712226332233,23857.171570168342
1712226332273,23857.171570168342
1712226332314,23857.171570168342
1712226332354,23857.171570168342
1712226332394,23857.171570168342
1712226332434,23857.171570168342
1712226332474,26791.785410258453
1712226332514,27840.075592109468
1712226332554,28366.705807424616
1712226332594,29394.12024446251
1712226332634,31371.28977569565
1712226332674,31674.42656184896
1712226332715,32520.411082575796
1712226332754,33716.303871033946
1712226332794,34488.04877122305
1712226332835,34488.04877122305
1712226332875,34488.04877122305
1712226332915,34488.04877122305
1712226332955,34488.04877122305
1712226332995,34488.04877122305
1712226333035,34488.04877122305
1712226333075,34488.04877122305
1712226333116,34488.04877122305
1712226333155,34488.04877122305
1712226333195,34488.04877122305
1712226333232,33947.63941082754
1712226333272,32889.71730607422
1712226333313,32428.740173437167
1712226333353,31356.69491243735
1712226333393,31349.134326609317
1712226333433,31320.670431081206
1712226333473,30614.39993786253
1712226333514,30505.142642729916
1712226333553,29595.545108857565
1712226333593,29576.214903129265
1712226333633,29039.50524046272
1712226333673,28910.013973161578
1712226333714,28650.52019883273
1712226333753,28413.402941208333
1712226333794,28211.89934230596
1712226333834,27975.102744999807
1712226333874,25772.82012345479
1712226333915,24018.87756664306
1712226333954,23820.830874874722
1712226333994,23758.776373245288
1712226334034,23704.187236760976
1712226334074,23273.002335476223
1712226334115,22921.873397703515
1712226334154,22921.28708896949
1712226334194,22182.271703661652
1712226334234,20885.110411026515
1712226334274,20640.36653505778
1712226334315,18659.35079185292
1712226334355,17205.48393518175
1712226334395,15180.527703951113
1712226334435,13631.675051788334
1712226334475,13349.189565085107
1712226334516,11718.569139339728
1712226334555,9838.640573610319
1712226334595,8475.56711508939
1712226334635,8044.836585940793
1712226334675,6519.755688634235
1712226334716,2541.7191256005317
1712226334756,486.6731897573918
1712226334796,105.39903113804758
1712226334836,-1065.5471227015369
1712226334876,-1687.0671078129672
1712226334916,-1915.802507251734
1712226334956,-1934.7205622741021
1712226334996,-2036.4235020829365
1712226335036,-3117.095679302234
1712226335076,-4706.471837582067
1712226335117,-5250.369866228662
1712226335156,-6761.690664009657
1712226335196,-6896.7786448711995
1712226335237,-7143.478713791352
1712226335277,-7893.946973511018
1712226335317,-8498.993120256579
1712226335357,-9166.635918223998
1712226335397,-13188.341497641057
1712226335437,-15021.120787680848
1712226335477,-18634.668678154703
1712226335518,-22091.09187661321
1712226335557,-34713.410886571975
1712226335598,-56408.07753296429
1712226335637,-79287.17816369538
1712226335678,-79287.17816369538
1712226335718,-79287.17816369538
1712226335758,-79287.17816369538
1712226335798,-79287.17816369538
1712226335838,-79287.17816369538
1712226335878,-79287.17816369538
1712226335919,-79287.17816369538
1712226335958,-79287.17816369538
1712226335998,-79287.17816369538
