Timestamp,Cleaned PPG
1710811991585,0.0
1710811991626,0.0
1710811991667,0.0
1710811991706,0.0
1710811991746,0.0
1710811991786,0.0
1710811991826,0.0
1710811991867,0.0
1710811991906,0.0
1710811991947,0.0
1710811991987,0.0
1710811992027,0.0
1710811992068,0.0
1710811992107,0.0
1710811992147,0.0
1710811992187,0.0
1710811992228,0.0
1710811992269,0.0
1710811992308,0.0
1710811992348,0.0
1710811992388,0.0
1710811992428,0.0
1710811992469,0.0
1710811992508,0.0
1710811992548,0.0
1710811992589,0.0
1710811992629,0.0
1710811992670,0.0
1710811992709,0.0
1710811992752,0.0
1710811992789,0.0
1710811992829,0.0
1710811992871,1164588.0560676032
1710811992910,1164588.0560676032
1710811992950,1164588.0560676032
1710811992990,1164588.0560676032
1710811993030,1164588.0560676032
1710811993071,1164588.0560676032
1710811993110,1164588.0560676032
1710811993150,1164588.0560676032
1710811993191,1164588.0560676032
1710811993231,1164588.0560676032
1710811993272,1164588.0560676032
1710811993311,1097132.26509805
1710811993351,1027415.627063266
1710811993391,961398.0823041378
1710811993431,901962.1826340845
1710811993472,842700.3456307445
1710811993511,787028.0583702135
1710811993552,738446.9611400128
1710811993592,688082.8498657104
1710811993632,640089.1855790059
1710811993673,592590.5649761371
1710811993712,540204.5816447856
1710811993752,486628.87100276677
1710811993792,431411.96611223
1710811993832,381121.22535937815
1710811993874,338938.27335702674
1710811993913,305374.1248651047
1710811993953,274801.770053932
1710811993993,248467.7499665334
1710811994033,223946.9471115081
1710811994074,205570.6876411806
1710811994113,189359.4256016647
1710811994154,175538.78814002266
1710811994194,161504.79723921884
1710811994234,146533.23812626326
1710811994275,130306.51812582929
1710811994314,114831.6659621424
1710811994354,95102.23610106716
1710811994395,71971.46426304942
1710811994435,47940.00822903239
1710811994475,23648.380042769713
1710811994515,-1218.0461866138503
1710811994555,-17251.40122535266
1710811994595,-19427.38347216742
1710811994635,-20370.941562476335
1710811994676,-20370.941562476335
1710811994716,-20370.941562476335
1710811994756,-20370.941562476335
1710811994796,-20370.941562476335
1710811994836,-20370.941562476335
1710811994877,-20370.941562476335
1710811994916,-20370.941562476335
1710811994959,-20370.941562476335
1710811994996,-20370.941562476335
1710811995036,-19427.38347216742
1710811995077,-13309.163008042844
1710811995116,-13309.163008042844
1710811995156,-13309.163008042844
1710811995197,-13309.163008042844
1710811995237,-13309.163008042844
1710811995277,-13309.163008042844
1710811995317,-13309.163008042844
1710811995357,-13309.163008042844
1710811995397,-13309.163008042844
1710811995437,-13309.163008042844
1710811995478,-13309.163008042844
1710811995517,-15315.272596742958
1710811995557,-16743.450319611
1710811995598,-19996.24544582027
1710811995638,-23959.584930923767
1710811995678,-29693.87355342647
1710811995718,-38336.516949105775
1710811995758,-38336.516949105775
1710811995798,-38336.516949105775
1710811995838,-38336.516949105775
1710811995879,-38336.516949105775
1710811995918,-38336.516949105775
1710811995958,-38336.516949105775
1710811995999,-39215.37483353866
1710811996039,-42232.66562944441
1710811996080,-42612.04186834954
1710811996119,-43806.96597205801
1710811996159,-43806.96597205801
1710811996199,-43806.96597205801
1710811996239,-43806.96597205801
1710811996280,-43806.96597205801
1710811996320,-43806.96597205801
1710811996359,-43806.96597205801
1710811996400,-43806.96597205801
1710811996440,-43806.96597205801
1710811996480,-43806.96597205801
1710811996520,-43806.96597205801
1710811996560,-44310.50444654771
1710811996600,-45053.6851799814
1710811996640,-45084.05698075378
1710811996681,-45104.86214267672
1710811996720,-45618.116853463696
1710811996760,-47440.076998508535
1710811996800,-47440.076998508535
1710811996840,-47440.076998508535
1710811996881,-47440.076998508535
1710811996921,-47440.076998508535
1710811996961,-47440.076998508535
1710811997001,-47440.076998508535
1710811997041,-47440.076998508535
1710811997082,-47292.21584819164
1710811997121,-47224.580322106835
1710811997161,-47032.99980963487
1710811997201,-46226.66691141273
1710811997242,-45618.116853463696
1710811997282,-45104.86214267672
1710811997322,-43570.49978403561
1710811997362,-43440.0168519665
1710811997402,-41749.11561669549
1710811997442,-39945.027042860165
1710811997483,-39583.74549583392
1710811997523,-39296.909999267664
1710811997562,-38964.38753589522
1710811997603,-37697.84271954233
1710811997643,-37139.271766549675
1710811997683,-36990.73789891647
1710811997723,-36312.5615767492
1710811997763,-35694.14193813503
1710811997803,-35092.71302710124
1710811997843,-33921.78948668367
1710811997884,-33751.236120295944
1710811997923,-33249.70672613848
1710811997963,-32896.27329805796
1710811998004,-32896.27329805796
1710811998044,-31538.71978461137
1710811998084,-28823.802748675924
1710811998124,-25347.953678535996
1710811998164,-24325.647581117693
1710811998204,-23649.706606775522
1710811998244,-22202.52808142081
1710811998285,-22053.438884294825
1710811998324,-21542.426867013797
1710811998365,-19646.134661463555
1710811998404,-18278.36310595111
1710811998445,-17362.93887696066
1710811998486,-17259.743562492542
1710811998525,-16715.833711388987
1710811998565,-16597.85130436765
1710811998605,-16546.957131052157
1710811998645,-15320.463099403773
1710811998686,-14508.631317167543
1710811998725,-11504.298271405045
1710811998765,-8856.361026605591
1710811998806,-8323.594812783413
1710811998846,-8033.457621558569
1710811998887,-7302.691406026483
1710811998926,-5700.088438561186
1710811998966,-5561.940543109085
1710811999006,-5263.631723179948
1710811999046,-3619.2566308900714
1710811999087,-2979.842337153852
1710811999127,-2424.8591546209063
1710811999167,-1492.9144814438187
1710811999207,-1339.9820163256954
1710811999247,-790.9957400041167
1710811999288,-790.9957400041167
1710811999327,-1339.9820163256954
1710811999367,-1492.9144814438187
1710811999407,-1991.7661046800204
1710811999448,-1339.9820163256954
1710811999488,-379.7941807585303
1710811999528,16.273642082698643
1710811999568,686.3268161516171
1710811999608,772.1696841847152
1710811999648,1145.9864332401194
1710811999689,1274.7961528953165
1710811999728,1276.8018246085849
1710811999768,1688.9583002151921
1710811999809,1946.7604963912163
1710811999849,2037.3938862155192
1710811999890,2037.3938862155192
1710811999929,1688.9583002151921
1710811999969,1608.3062840092462
1710812000009,1276.8018246085849
1710812000049,1145.9864332401194
1710812000090,772.1696841847152
1710812000130,772.1696841847152
1710812000170,942.129513295833
1710812000210,1145.9864332401194
1710812000250,1169.6263776021078
1710812000291,1224.7453027539887
1710812000330,1276.8018246085849
1710812000370,1608.3062840092462
1710812000411,2037.3938862155192
1710812000451,2388.352476933971
1710812000491,3137.6841460654978
1710812000531,4183.068396342685
1710812000571,4183.068396342685
1710812000611,4183.068396342685
1710812000651,2912.1037924559787
1710812000692,2429.912730677286
1710812000731,2429.912730677286
1710812000772,2912.1037924559787
1710812000812,3609.417086558882
1710812000852,4183.068396342685
1710812000893,4966.652032909682
1710812000932,5248.119938577525
1710812000972,5845.6043061725795
1710812001012,5901.6980634192005
1710812001052,6366.415918513667
1710812001093,6964.26649595215
1710812001133,7184.646715728566
1710812001173,7564.471686251927
1710812001213,8661.400953050703
1710812001253,9008.679904426914
1710812001294,9660.375516939443
1710812001333,9660.375516939443
1710812001373,9660.375516939443
1710812001413,9665.865471181925
1710812001454,11006.150266931392
1710812001494,11756.791877353098
1710812001534,12503.763139566407
1710812001574,12718.997085807845
1710812001614,13472.13343427889
1710812001654,14198.307270874735
1710812001695,14701.657842261717
1710812001734,15307.285647873767
1710812001774,15702.76457980345
1710812001815,16817.188333099475
1710812001855,16922.760185259627
1710812001896,17382.56467411574
1710812001935,17658.223118410213
1710812001975,17658.223118410213
1710812002015,17658.223118410213
1710812002055,17382.56467411574
1710812002096,16817.188333099475
1710812002136,16817.188333099475
1710812002176,16817.188333099475
1710812002216,16817.188333099475
1710812002256,16817.188333099475
1710812002297,16817.188333099475
1710812002336,16817.188333099475
1710812002376,16365.874452523887
1710812002416,13763.409735148307
1710812002456,12450.130099244416
1710812002497,11892.766005284619
1710812002537,9210.608498894377
1710812002577,9210.608498894377
1710812002617,9210.608498894377
1710812002657,9210.608498894377
1710812002698,9210.608498894377
1710812002737,9210.608498894377
1710812002777,9210.608498894377
1710812002817,9210.608498894377
1710812002857,9210.608498894377
1710812002898,9210.608498894377
1710812002938,9210.608498894377
1710812002978,15710.348426398356
1710812003018,27686.73633021186
1710812003058,39692.706665040925
1710812003099,51794.139417997794
1710812003138,61307.37709893938
1710812003178,68235.86249229475
1710812003218,73023.75080634328
1710812003258,76531.93820358743
1710812003299,76531.93820358743
1710812003338,76531.93820358743
1710812003378,76531.93820358743
1710812003419,76531.93820358743
1710812003459,77342.89599006018
1710812003499,78564.01540351007
1710812003539,78665.6505714315
1710812003579,79645.40579383867
1710812003615,79809.22861471004
1710812003655,79919.7706604593
1710812003696,80860.14678076841
1710812003735,81090.52926256461
1710812003776,81165.73808356887
1710812003816,81165.73808356887
1710812003856,81090.52926256461
1710812003897,81090.52926256461
1710812003936,80860.14678076841
1710812003976,78564.01540351007
1710812004016,76531.93820358743
1710812004056,76517.09376833239
1710812004097,74937.90081126615
1710812004137,74151.25961788837
1710812004177,74151.25961788837
1710812004217,73266.14678563131
1710812004257,71812.7084905738
1710812004298,66548.88325239951
1710812004337,62183.09974043118
1710812004377,55805.10911852261
1710812004417,50169.63704354968
1710812004457,45503.13338294346
1710812004498,41813.555520303315
1710812004537,41813.555520303315
1710812004577,41813.555520303315
1710812004618,41813.555520303315
1710812004658,41813.555520303315
1710812004699,41813.555520303315
1710812004738,41813.555520303315
1710812004778,41813.555520303315
1710812004818,41813.555520303315
1710812004858,41813.555520303315
1710812004899,41813.555520303315
1710812004938,44240.09366839053
1710812004979,48861.486060031224
1710812005019,48861.486060031224
1710812005059,48861.486060031224
1710812005100,48861.486060031224
1710812005139,48861.486060031224
1710812005179,48861.486060031224
1710812005219,48861.486060031224
1710812005259,48861.486060031224
1710812005300,48861.486060031224
1710812005340,48861.486060031224
1710812005380,48861.486060031224
1710812005420,45461.80132193933
1710812005460,29825.252926816233
1710812005501,16335.391201801365
1710812005540,5818.324881019769
1710812005580,-2969.912255232921
1710812005620,-8262.395156764891
1710812005660,-13394.02197536407
1710812005701,-17502.757571143098
1710812005741,-20341.72180201835
1710812005781,-22625.690309536643
1710812005821,-24132.524972002953
1710812005861,-24503.559587642783
1710812005902,-25010.36500734184
1710812005941,-25385.358023104258
1710812005981,-25405.063854073873
1710812006021,-25840.885751421098
1710812006061,-28109.6290522262
1710812006102,-29713.05542900483
1710812006142,-31176.270640884526
1710812006182,-31922.344600729644
1710812006222,-33351.17717577377
1710812006262,-37097.848573366646
1710812006303,-39758.1368601704
1710812006342,-42706.700847103726
1710812006382,-42706.700847103726
1710812006422,-42706.700847103726
1710812006462,-42706.700847103726
1710812006503,-42706.700847103726
1710812006543,-42706.700847103726
1710812006583,-42706.700847103726
1710812006623,-42706.700847103726
1710812006663,-42706.700847103726
1710812006704,-42706.700847103726
1710812006743,-42706.700847103726
1710812006783,-31436.55143984221
1710812006823,-27218.69632509211
1710812006864,-26360.520064983284
1710812006904,-26360.520064983284
1710812006944,-26360.520064983284
1710812006984,-26360.520064983284
1710812007024,-26360.520064983284
1710812007064,-26360.520064983284
1710812007105,-26360.520064983284
1710812007145,-26360.520064983284
1710812007184,-26360.520064983284
1710812007225,-26360.520064983284
1710812007265,-27218.69632509211
1710812007306,-27330.281682357425
1710812007345,-28498.375341452658
1710812007385,-29557.873272023862
1710812007425,-30483.686590346042
1710812007466,-30987.314992973115
1710812007506,-31014.841347779147
1710812007546,-31157.724444042193
1710812007586,-31722.785971035715
1710812007626,-31824.284087544307
1710812007666,-32379.859749019146
1710812007707,-34704.65054472303
1710812007746,-34704.65054472303
1710812007786,-34704.65054472303
1710812007827,-34704.65054472303
1710812007867,-34704.65054472303
1710812007908,-34704.65054472303
1710812007947,-34704.65054472303
1710812007987,-34704.65054472303
1710812008027,-34704.65054472303
1710812008067,-34704.65054472303
1710812008108,-34704.65054472303
1710812008148,-32479.179111693054
1710812008188,-29923.162409575423
1710812008228,-27936.09260145179
1710812008268,-26784.53098479379
1710812008309,-26404.2472222317
1710812008348,-26227.95404583169
1710812008388,-26087.422109805513
1710812008429,-26087.422109805513
1710812008469,-26087.422109805513
1710812008510,-26087.422109805513
1710812008549,-26087.422109805513
1710812008589,-26087.422109805513
1710812008629,-26087.422109805513
1710812008669,-26087.422109805513
1710812008710,-26087.422109805513
1710812008750,-26227.95404583169
1710812008790,-26404.2472222317
1710812008830,-37727.31881680875
1710812008870,-37727.31881680875
1710812008911,-37727.31881680875
1710812008950,-37727.31881680875
1710812008990,-37727.31881680875
1710812009031,-37727.31881680875
1710812009071,-37727.31881680875
1710812009112,-37727.31881680875
1710812009151,-37727.31881680875
1710812009191,-37727.31881680875
1710812009231,-37727.31881680875
1710812009271,-11373.051063782535
1710812009312,17655.664263987448
1710812009352,55081.91897772043
1710812009392,83121.60646126629
1710812009432,102870.13751527388
1710812009472,117874.96577440901
1710812009513,136669.14353551855
1710812009552,151573.19978868123
1710812009592,151573.19978868123
1710812009632,151573.19978868123
1710812009672,151573.19978868123
1710812009713,151573.19978868123
1710812009752,151573.19978868123
1710812009793,151573.19978868123
1710812009833,151573.19978868123
1710812009873,151573.19978868123
1710812009914,151573.19978868123
1710812009953,151573.19978868123
1710812009993,138630.7267756299
1710812010033,122758.2457837984
1710812010073,122117.29341875855
1710812010114,120203.0146802431
1710812010153,118080.39991026744
1710812010193,111868.84916581307
1710812010234,108763.6889349909
1710812010274,105808.18265794334
1710812010314,103497.41380506614
1710812010354,99969.51474344404
1710812010394,85783.21518575912
1710812010434,63104.436300982255
1710812010474,48556.05308416253
1710812010515,32055.40384981199
1710812010554,4637.45626812079
1710812010594,1146.8573027658276
1710812010635,808.8401251006871
1710812010674,-9017.579001865117
1710812010715,-10463.946254690178
1710812010755,-11019.296300962102
1710812010795,-12793.035022228025
1710812010835,-16811.19750060793
1710812010875,-16811.19750060793
1710812010916,-18388.343633353943
1710812010955,-22202.506468688603
1710812010995,-23008.734969631303
1710812011035,-23008.734969631303
1710812011075,-22202.506468688603
1710812011116,-18388.343633353943
1710812011156,-16811.19750060793
1710812011196,-16606.21081080241
1710812011236,-16606.21081080241
1710812011276,-16606.21081080241
1710812011317,-16606.21081080241
1710812011356,-16606.21081080241
1710812011396,-16606.21081080241
1710812011436,-12688.3886647264
1710812011477,7327.249007369392
1710812011517,33879.713653906714
1710812011557,33879.713653906714
1710812011597,33879.713653906714
1710812011637,33879.713653906714
1710812011677,33879.713653906714
1710812011718,33879.713653906714
1710812011757,33879.713653906714
1710812011797,33879.713653906714
1710812011837,33879.713653906714
1710812011878,33879.713653906714
1710812011918,33879.713653906714
1710812011958,16044.909588701325
1710812011998,-12168.103992142715
1710812012038,-20849.209615274565
1710812012078,-21700.344171680277
1710812012119,-21700.344171680277
1710812012158,-21700.344171680277
1710812012198,-21700.344171680277
1710812012238,-21700.344171680277
1710812012279,-21700.344171680277
1710812012320,-21700.344171680277
1710812012359,-21700.344171680277
1710812012399,-21700.344171680277
1710812012439,-21700.344171680277
1710812012479,-20849.209615274565
1710812012520,-4975.508654922014
1710812012560,17234.444637840614
1710812012599,20971.460677579744
1710812012640,36786.74385811761
1710812012680,37324.93205172126
1710812012720,50961.855424714275
1710812012760,60149.773750706576
1710812012800,60768.111121436814
1710812012840,65826.83696131804
1710812012880,66209.45075706625
1710812012921,66209.45075706625
1710812012960,66209.45075706625
1710812013000,66209.45075706625
1710812013041,66209.45075706625
1710812013081,65826.83696131804
1710812013122,62720.199079259066
1710812013161,62720.199079259066
1710812013201,65775.1756703551
1710812013241,65775.1756703551
1710812013281,65826.83696131804
1710812013322,66209.45075706625
1710812013361,66209.45075706625
1710812013402,66209.45075706625
1710812013442,65826.83696131804
1710812013482,65775.1756703551
1710812013523,62720.199079259066
1710812013562,61096.465492568444
1710812013602,60946.73630892346
1710812013642,59539.84380473383
1710812013682,58504.74076330103
1710812013723,56006.99207895668
1710812013763,52210.47944170609
1710812013803,52210.47944170609
1710812013843,52210.47944170609
1710812013883,43575.18706206372
1710812013924,39623.3826493097
1710812013963,39541.9160139428
1710812014003,32965.684269187506
1710812014044,28618.27921897522
1710812014084,28404.19399539428
1710812014125,21245.459409442265
1710812014164,21245.459409442265
1710812014204,21245.459409442265
1710812014244,21245.459409442265
1710812014284,21245.459409442265
1710812014325,21245.459409442265
1710812014365,20190.87821945129
1710812014405,15224.41073465813
1710812014445,11082.022485554218
1710812014485,9545.83737759851
1710812014526,9169.867531327065
1710812014565,7325.513704038225
1710812014605,9169.867531327065
1710812014645,9545.83737759851
1710812014686,11082.022485554218
1710812014727,13763.93221205892
1710812014766,13763.93221205892
1710812014806,13763.93221205892
1710812014846,15046.897720035166
1710812014886,15046.897720035166
1710812014927,15046.897720035166
1710812014967,15046.897720035166
1710812015007,15046.897720035166
1710812015047,15046.897720035166
1710812015087,15046.897720035166
1710812015128,14919.708873257972
1710812015167,13763.93221205892
1710812015207,13757.30284977518
1710812015247,13757.30284977518
1710812015287,13757.30284977518
1710812015328,13757.30284977518
1710812015368,13757.30284977518
1710812015408,13757.30284977518
1710812015448,12414.761958462186
1710812015488,12098.600935339928
1710812015529,11792.108757621143
1710812015568,11391.651231246535
1710812015608,10832.94660619786
1710812015653,10534.579470502213
1710812015693,10243.705125641078
1710812015733,8531.972511682194
1710812015773,7447.825917270035
1710812015813,7447.825917270035
1710812015853,6874.251932406332
1710812015893,6211.860892630648
1710812015934,5902.243570405059
1710812015974,5394.374187006615
1710812016014,4063.5581385307014
1710812016054,4063.5581385307014
1710812016094,4063.5581385307014
1710812016135,4063.5581385307014
1710812016175,4063.5581385307014
1710812016215,3495.8140168087557
1710812016255,2815.6465174797922
1710812016295,2709.1136243920773
1710812016336,2524.835758131463
1710812016375,2524.835758131463
1710812016416,2524.835758131463
1710812016456,2524.835758131463
1710812016496,2524.835758131463
1710812016537,418.2891133488156
1710812016576,-337.58893560338765
1710812016616,-2511.7188451793045
1710812016656,-5677.164827958681
1710812016696,-5677.164827958681
1710812016737,-5677.164827958681
1710812016776,-5677.164827958681
1710812016816,-5677.164827958681
1710812016856,-5677.164827958681
1710812016897,-5677.164827958681
1710812016937,-5677.164827958681
1710812016977,-5677.164827958681
1710812017017,-5677.164827958681
1710812017057,-5677.164827958681
1710812017097,-5660.455792366527
1710812017138,-3380.254950866103
1710812017177,-1362.1543572838418
1710812017217,378.3217242239043
1710812017258,7736.015144833364
1710812017298,8121.597338593565
1710812017338,8348.461463942192
1710812017378,8656.793741055764
1710812017418,9949.21599082835
1710812017458,10560.930496846326
1710812017498,12831.022758932784
1710812017539,13765.390608883929
1710812017578,14602.88647104241
1710812017619,16482.035778185353
1710812017659,17462.663378971163
1710812017699,17653.862776520662
1710812017740,17835.170643277466
1710812017779,17835.170643277466
1710812017819,17835.170643277466
1710812017859,17835.170643277466
1710812017899,17835.170643277466
1710812017940,17835.170643277466
1710812017979,17653.862776520662
1710812018019,17653.862776520662
1710812018059,17653.862776520662
1710812018100,17653.862776520662
1710812018140,17653.862776520662
1710812018180,16383.4987003454
1710812018220,15706.003480235115
1710812018260,14517.487820577808
1710812018300,13500.883341812994
1710812018341,12857.04429680435
1710812018380,10746.402698930819
1710812018420,7188.487486045808
1710812018461,7173.701017623767
1710812018501,7173.701017623767
1710812018541,7173.701017623767
1710812018581,7173.701017623767
1710812018621,7173.701017623767
1710812018661,7173.701017623767
1710812018701,7188.487486045808
1710812018742,12857.04429680435
1710812018781,12857.04429680435
1710812018821,12857.04429680435
1710812018861,13500.883341812994
1710812018902,18937.886688398663
1710812018943,23224.34808984259
1710812018982,30547.730046664365
1710812019022,40443.4840111183
1710812019062,43929.633690741844
1710812019102,48185.265807447024
1710812019143,55162.108519231435
1710812019182,62949.86595603544
1710812019222,72983.79145345371
1710812019263,91192.70008898899
1710812019303,93689.91404016875
1710812019343,93689.91404016875
1710812019383,93689.91404016875
1710812019423,93689.91404016875
1710812019463,93689.91404016875
1710812019503,93689.91404016875
1710812019544,93689.91404016875
1710812019583,93689.91404016875
1710812019623,93689.91404016875
1710812019664,93689.91404016875
1710812019704,93689.91404016875
1710812019745,79052.53357911669
1710812019784,75873.27751332428
1710812019824,75018.66300157923
1710812019864,67431.79059465788
1710812019904,59282.28085046029
1710812019945,52074.0218912391
1710812019984,41492.15644867066
1710812020025,37563.27683642786
1710812020065,31082.166679995134
1710812020105,28103.95854408201
1710812020146,27600.72518895194
1710812020185,25903.953645721078
1710812020225,23211.11935827043
1710812020265,21628.439414495602
1710812020305,21288.09017918445
1710812020346,18326.844031720422
1710812020386,-24789.50871105073
1710812020426,-38469.53933757916
1710812020466,-50277.25668550609
1710812020506,-67179.49088534992
1710812020547,-90994.4333799826
1710812020586,-94196.63965092786
1710812020626,-94196.63965092786
1710812020666,-94196.63965092786
1710812020707,-94196.63965092786
1710812020747,-94196.63965092786
1710812020787,-94196.63965092786
1710812020827,-94196.63965092786
1710812020867,-94196.63965092786
1710812020907,-94196.63965092786
1710812020948,-94196.63965092786
1710812020987,-94196.63965092786
1710812021027,-86020.60578450095
1710812021067,-79980.78623814322
1710812021108,-79889.19262325484
1710812021148,-79889.19262325484
1710812021188,-79889.19262325484
1710812021228,-79889.19262325484
1710812021268,-75995.14977444801
1710812021308,-75836.96857112693
1710812021349,-72040.42444929527
1710812021388,-69888.12245185394
1710812021429,-67315.23585182102
1710812021469,-65306.77385497093
1710812021509,-63936.30381282838
1710812021550,-63452.67059167754
1710812021589,-62676.40333877038
1710812021629,-62579.094444090966
1710812021669,-53955.55770350504
1710812021710,-53955.55770350504
1710812021750,-53955.55770350504
1710812021790,-53955.55770350504
1710812021830,-53955.55770350504
1710812021870,-53955.55770350504
1710812021910,-53955.55770350504
1710812021951,-53955.55770350504
1710812021990,-53955.55770350504
1710812022030,-53955.55770350504
1710812022071,-53955.55770350504
1710812022111,-62996.740133349784
1710812022152,-62996.740133349784
1710812022191,-62996.740133349784
1710812022231,-62996.740133349784
1710812022271,-62996.740133349784
1710812022312,-62996.740133349784
1710812022352,-63800.004853796214
1710812022392,-63919.73870491865
1710812022432,-64034.39953706507
1710812022472,-66683.34350027842
1710812022512,-66697.27088247961
1710812022553,-66697.27088247961
1710812022593,-66683.34350027842
1710812022633,-66668.80071481201
1710812022673,-66472.30930282455
1710812022713,-65449.782760277856
1710812022754,-64877.17601796193
1710812022794,-64034.39953706507
1710812022834,-63919.73870491865
1710812022874,-63800.004853796214
1710812022914,-62965.89803849929
1710812022955,-61686.226565250894
1710812022994,-61107.34233616525
1710812023034,-61107.34233616525
1710812023074,-61107.34233616525
1710812023115,-61107.34233616525
1710812023156,-61107.34233616525
1710812023195,-60312.05696245353
1710812023235,-60159.2654878397
1710812023275,-59326.875954180025
1710812023315,-58911.18638949469
1710812023356,-58810.774191043805
1710812023395,-57001.28931561345
1710812023435,-56787.52214866923
1710812023476,-55931.179027178325
1710812023516,-55819.012138798134
1710812023556,-55424.920455276035
1710812023596,-54664.857246245956
1710812023636,-54489.2793670916
1710812023676,-53583.313445188105
1710812023716,-51468.364641263615
1710812023757,-49506.67192880483
1710812023796,-46224.355036753695
1710812023836,-44715.10385680059
1710812023877,-44352.240320144454
1710812023916,-44018.115977807436
1710812023957,-43868.80327765038
1710812023997,-42072.95875125914
1710812024037,-41863.537653885316
1710812024077,-41588.66791436309
1710812024117,-39667.040722967125
1710812024158,-39536.97430495918
1710812024197,-39083.05433021253
1710812024237,-38119.88151987153
1710812024277,-37377.21115560131
1710812024317,-37072.493305947166
1710812024358,-36195.50077755004
1710812024398,-35099.78528253501
1710812024438,-32492.500784876524
1710812024478,-32240.858300026273
1710812024518,-32217.108105655527
1710812024559,-30980.660580320982
1710812024598,-30887.878499962622
1710812024638,-30881.587866502814
1710812024678,-28805.817797727417
1710812024718,-28647.855377730913
1710812024759,-27754.705108794384
1710812024799,-26081.084425754845
1710812024839,-25978.21489809174
1710812024879,-24964.74865700002
1710812024919,-24813.16744529782
1710812024960,-24334.812300222227
1710812024999,-23364.241967138136
1710812025039,-21404.071931200102
1710812025079,-21104.14361223881
1710812025119,-19205.277211177396
1710812025160,-18273.248505535536
1710812025200,-18082.14492515335
1710812025240,-17864.288910709787
1710812025280,-17061.939401334617
1710812025320,-16816.301221401663
1710812025361,-16264.459828901803
1710812025400,-16144.115195889724
1710812025440,-14907.747530926252
1710812025480,-14789.023248063168
1710812025520,-14583.763756709173
1710812025561,-14352.108988803346
1710812025601,-14213.416316725314
1710812025641,-12714.953669358278
1710812025681,-11910.569329292513
1710812025721,-11910.569329292513
1710812025762,-11910.569329292513
1710812025801,-11788.54272908438
1710812025841,-10256.277117566206
1710812025881,-9993.189311067108
1710812025922,-9696.095688035013
1710812025962,-9632.258970259223
1710812026002,-8606.04966206383
1710812026042,-8305.179501025472
1710812026082,-7933.552357676439
1710812026122,-7334.059674649965
1710812026163,-6971.3328390815295
1710812026202,-6597.573076766683
1710812026242,-5657.718332237098
1710812026283,-5468.557432107395
1710812026323,-4848.256523736287
1710812026363,-4757.818850276293
1710812026403,-4406.556974787265
1710812026443,-4406.556974787265
1710812026483,-4406.556974787265
1710812026523,-4406.556974787265
1710812026564,-4406.556974787265
1710812026603,-3078.548316684086
1710812026644,-1612.8154519209638
1710812026684,12.40698708826676
1710812026724,181.2070212212857
1710812026765,352.5147219095379
1710812026804,398.46686736820266
1710812026844,1022.649914986454
1710812026884,1023.5385764855891
1710812026924,1327.3249409862328
1710812026965,1346.712689273525
1710812027005,2137.8917905951384
1710812027044,2395.2819287506863
1710812027085,2408.229959559394
1710812027125,3263.5275196339935
1710812027166,3342.867896950338
1710812027205,3900.5455751749687
1710812027245,3900.5455751749687
1710812027285,3900.5455751749687
1710812027325,3900.5455751749687
1710812027366,3900.5455751749687
1710812027406,4798.77392033115
1710812027446,6056.695849742973
1710812027486,6952.057524853386
1710812027526,8449.802810424473
1710812027567,8618.799801878398
1710812027606,8680.948335571215
1710812027646,9004.40223654965
1710812027686,9727.815916748485
1710812027726,9766.792625566944
1710812027766,9773.883190636057
1710812027806,10274.281513633672
1710812027846,10319.436158578377
1710812027886,10357.132759339642
1710812027926,10413.283248504624
1710812027967,10644.427877554903
1710812028006,10702.316253834171
1710812028047,11022.565076317871
1710812028087,11022.565076317871
1710812028127,11022.565076317871
1710812028168,11022.565076317871
1710812028207,11022.565076317871
1710812028247,11964.285669374513
1710812028287,12499.720262729097
1710812028328,12721.651018331992
1710812028368,13133.26067053061
1710812028408,13209.831983041251
1710812028448,13259.873465849552
1710812028488,13266.502428246662
1710812028528,13365.076812306419
1710812028569,13938.364825930912
1710812028608,14080.135088572279
1710812028648,14323.991093914025
1710812028689,14365.668146350654
1710812028729,14449.200991511345
1710812028769,14807.841172420885
1710812028809,15065.299250210635
1710812028849,15124.73558650259
1710812028889,15758.58837264427
1710812028929,15877.932084223256
1710812028970,15877.932084223256
1710812029010,15877.932084223256
1710812029050,15877.932084223256
1710812029090,16007.06334875431
1710812029130,16409.290876145475
1710812029171,17093.38940295996
1710812029210,17564.23142704321
1710812029251,17574.892448103055
1710812029291,17696.263966341736
1710812029331,17766.475277820602
1710812029372,17825.700810901355
1710812029411,17855.437444730196
1710812029451,17855.437444730196
1710812029492,17867.749745520297
1710812029532,17893.292350270553
1710812029573,17893.748542854795
1710812029612,17933.440879249945
1710812029652,18309.291269390844
1710812029692,18393.69005352864
1710812029732,18393.69005352864
1710812029773,18393.69005352864
1710812029813,18393.69005352864
1710812029853,18310.6881229328
1710812029893,18309.291269390844
1710812029933,18309.291269390844
1710812029974,18309.291269390844
1710812030013,18309.291269390844
1710812030053,18309.291269390844
1710812030094,17933.440879249945
1710812030134,17893.292350270553
1710812030175,17893.292350270553
1710812030214,17867.749745520297
1710812030254,17564.494878630154
1710812030294,17536.842658986337
1710812030334,16995.956827784423
1710812030375,16978.109093596693
1710812030414,16914.499473034404
1710812030454,16914.499473034404
1710812030495,16914.499473034404
1710812030535,16914.499473034404
1710812030575,16914.499473034404
1710812030615,16914.499473034404
1710812030655,16914.499473034404
1710812030695,16914.499473034404
1710812030735,16875.81250860449
1710812030776,16875.81250860449
1710812030815,16875.81250860449
1710812030855,16875.81250860449
1710812030895,16875.81250860449
1710812030935,16808.670578186167
1710812030976,16808.670578186167
1710812031016,16808.670578186167
1710812031056,16778.992282418534
1710812031096,16602.004481679294
1710812031136,16158.693023412954
1710812031177,15962.298087586183
1710812031216,15858.8237836943
1710812031256,15286.585501393303
1710812031296,15269.891681668116
1710812031336,15247.006483229343
1710812031377,15247.006483229343
1710812031416,15247.006483229343
1710812031457,15247.006483229343
1710812031497,15247.006483229343
1710812031537,15247.006483229343
1710812031578,15247.006483229343
1710812031617,15269.891681668116
1710812031657,15286.585501393303
1710812031697,15858.8237836943
1710812031737,15858.8237836943
1710812031778,21677.819757387042
1710812031818,21677.819757387042
1710812031857,21677.819757387042
1710812031898,21677.819757387042
1710812031938,22230.20348439552
1710812031978,28863.311564666685
1710812032018,28944.47442656057
1710812032058,28996.336933004437
1710812032098,29246.794639989967
1710812032138,32444.32365941
1710812032179,33879.629324215
1710812032218,33985.128957033856
1710812032258,36567.60908354912
1710812032299,36962.258167551365
1710812032339,42567.33943878184
1710812032379,44895.613070507534
1710812032419,45039.22597338166
1710812032459,45039.22597338166
1710812032499,45039.22597338166
1710812032539,45039.22597338166
1710812032580,45039.22597338166
1710812032619,45039.22597338166
1710812032660,45039.22597338166
1710812032700,45039.22597338166
1710812032740,45039.22597338166
1710812032781,45039.22597338166
1710812032820,45039.22597338166
1710812032860,37725.55512127234
1710812032900,35615.96428786148
1710812032940,35235.81638042955
1710812032981,31833.346053464105
1710812033020,28240.340745972935
1710812033060,28109.910505912732
1710812033101,28109.910505912732
1710812033141,28109.910505912732
1710812033181,28109.910505912732
1710812033221,28109.910505912732
1710812033261,28109.910505912732
1710812033301,28109.910505912732
1710812033341,28109.910505912732
1710812033382,28109.910505912732
1710812033421,20058.069578669034
1710812033462,16331.4548032952
1710812033502,20058.069578669034
1710812033542,28109.910505912732
1710812033583,31859.534355355427
1710812033622,42495.80008758861
1710812033662,44034.493202151265
1710812033702,48042.36089303042
1710812033742,53037.78654051735
1710812033783,53037.78654051735
1710812033822,53037.78654051735
1710812033863,53037.78654051735
1710812033903,53037.78654051735
1710812033943,53037.78654051735
1710812033984,48042.36089303042
1710812034023,44034.493202151265
1710812034063,31859.534355355427
1710812034103,29577.05907806428
1710812034143,20058.069578669034
1710812034184,16331.4548032952
1710812034224,3453.540095651988
1710812034264,-41882.36429634411
1710812034304,-41882.36429634411
1710812034344,-41882.36429634411
1710812034385,-41882.36429634411
1710812034424,-41882.36429634411
1710812034464,-41882.36429634411
1710812034504,-41882.36429634411
1710812034544,-41882.36429634411
1710812034585,-41882.36429634411
1710812034625,-41882.36429634411
1710812034665,-41882.36429634411
1710812034705,-35613.67012808239
1710812034745,-30586.084080453496
1710812034786,-27523.661495352164
1710812034825,-21646.579022082966
1710812034865,-21646.579022082966
1710812034905,-19916.851885198615
1710812034945,-19916.851885198615
1710812034986,-19726.734289088286
1710812035026,-19726.734289088286
1710812035066,-19726.734289088286
1710812035106,-18786.285540551413
1710812035146,-15027.379302054178
1710812035187,-13917.115719785215
1710812035226,-10557.247379808454
1710812035266,-3624.501404446317
1710812035306,-1265.970003634924
1710812035346,2262.194901363924
1710812035387,10503.23505068617
1710812035427,13198.578407517169
1710812035467,22993.886901045218
1710812035507,23808.114508334547
1710812035547,22993.886901045218
1710812035588,20427.51741376007
1710812035627,20427.51741376007
1710812035667,20427.51741376007
1710812035708,20427.51741376007
1710812035748,20427.51741376007
1710812035789,20427.51741376007
1710812035828,20427.51741376007
1710812035868,20427.51741376007
1710812035908,20427.51741376007
1710812035948,20427.51741376007
1710812035989,19032.88168906793
1710812036029,18918.98198511079
1710812036069,18918.98198511079
1710812036109,18918.98198511079
1710812036149,18918.98198511079
1710812036190,18918.98198511079
1710812036229,18559.24084222736
1710812036269,17786.488224495435
1710812036309,17632.532806771807
1710812036350,17575.592264479492
1710812036391,16970.26988981664
1710812036430,16939.75287214713
1710812036470,16939.75287214713
1710812036510,16939.75287214713
1710812036550,16939.75287214713
1710812036591,16939.75287214713
1710812036631,16939.75287214713
1710812036671,16939.75287214713
1710812036711,16562.39191077277
1710812036751,15478.356333869044
1710812036792,15407.218343893997
1710812036831,14803.189932705835
1710812036871,14529.822476886678
1710812036911,14072.451664184919
1710812036952,13369.746584442211
1710812036993,11912.18120891531
1710812037032,6002.401555676013
1710812037072,-499.91899066697806
1710812037112,-2795.5885134814307
1710812037152,-2795.5885134814307
1710812037193,-2795.5885134814307
1710812037233,-2795.5885134814307
1710812037273,-2912.871746824123
1710812037313,-2999.671736781951
1710812037353,-3009.4646452642046
1710812037394,-3353.083558382932
1710812037433,-3470.2645490774885
1710812037474,-4056.5258929082192
1710812037514,-4217.987698433921
1710812037554,-4321.449836749118
1710812037595,-4321.449836749118
1710812037634,-4321.449836749118
1710812037674,-6315.153774172533
1710812037714,-10511.69751564879
1710812037754,-10996.867328066146
1710812037795,-10996.867328066146
1710812037834,-10996.867328066146
1710812037874,-10996.867328066146
1710812037914,-10996.867328066146
1710812037955,-10996.867328066146
1710812037995,-12128.31960842479
1710812038035,-12355.356885988265
1710812038075,-13099.54552903492
1710812038115,-13262.851636788808
1710812038155,-13556.047642220743
1710812038196,-13556.047642220743
1710812038235,-13099.54552903492
1710812038275,-12485.195277152117
1710812038316,-12355.356885988265
1710812038356,-12128.31960842479
1710812038396,-11157.051066564862
1710812038436,-10996.867328066146
1710812038476,-10455.428767807316
1710812038516,-10351.281636516564
1710812038556,-9827.924407132203
1710812038597,-9433.357652974548
1710812038636,-9314.852863111068
1710812038677,-9314.852863111068
1710812038717,-9433.357652974548
1710812038757,-10351.281636516564
1710812038798,-10455.428767807316
1710812038837,-10455.428767807316
1710812038877,-10455.428767807316
1710812038917,-10455.428767807316
1710812038957,-10455.428767807316
1710812038998,-10455.428767807316
1710812039037,-10455.428767807316
1710812039077,-10351.281636516564
1710812039118,-9314.852863111068
1710812039158,-9285.755030112807
1710812039198,-7866.177652331069
1710812039238,-7866.177652331069
1710812039278,-7866.177652331069
1710812039318,-7866.177652331069
1710812039358,-9285.755030112807
1710812039399,-10266.881856061518
1710812039438,-10483.87012024736
1710812039478,-10805.833456787048
1710812039519,-10835.946805689251
1710812039559,-10805.833456787048
1710812039600,-10483.87012024736
1710812039639,-10266.881856061518
1710812039679,-9926.576834160136
1710812039719,-9285.755030112807
1710812039760,-9237.607389528537
1710812039800,-8463.644979568664
1710812039840,-8085.666785491863
1710812039880,-7834.362603512593
1710812039920,-7597.50843043183
1710812039960,-6782.693059873767
1710812040001,-6782.693059873767
1710812040040,-6782.693059873767
1710812040080,-7834.362603512593
1710812040121,-8085.666785491863
1710812040161,-8463.644979568664
1710812040201,-8463.644979568664
1710812040241,-8463.644979568664
1710812040281,-8463.644979568664
1710812040321,-8463.644979568664
1710812040361,-8463.644979568664
1710812040402,-8115.935718767345
1710812040441,-8085.666785491863
1710812040482,-7834.362603512593
1710812040522,-7550.546070768964
1710812040562,-6812.053902612068
1710812040603,-6812.053902612068
1710812040642,-6812.053902612068
1710812040682,-6812.053902612068
1710812040722,-6812.053902612068
1710812040762,-7086.301254175603
1710812040803,-7550.546070768964
1710812040843,-8115.935718767345
1710812040883,-8115.935718767345
1710812040923,-7924.817918173503
1710812040963,-7550.546070768964
1710812041004,-7243.567194254138
1710812041043,-7086.301254175603
1710812041083,-6812.053902612068
1710812041123,-5653.149870848749
1710812041163,-5579.744794331491
1710812041204,-5179.231470080791
1710812041244,-4884.2052313042805
1710812041284,-4631.397423211951
1710812041324,-4538.722138546174
1710812041364,-4314.202451359713
1710812041405,-4022.998215896776
1710812041444,-4022.998215896776
1710812041484,-4314.202451359713
1710812041524,-4538.722138546174
1710812041565,-4631.397423211951
1710812041605,-4631.397423211951
1710812041645,-4631.397423211951
1710812041685,-4631.397423211951
1710812041725,-4631.397423211951
1710812041765,-4314.202451359713
1710812041806,-4273.957719228696
1710812041845,-4022.998215896776
1710812041886,-3719.257570794085
1710812041926,-3608.0327530868817
1710812041966,-3257.801026994828
1710812042007,-2253.3106869030744
1710812042046,-2152.2335675056092
1710812042086,-2152.2335675056092
1710812042126,-2418.5429416066036
1710812042167,-3257.801026994828
1710812042207,-3608.0327530868817
1710812042247,-4273.957719228696
1710812042287,-5126.625957636861
1710812042327,-4940.824805719312
1710812042367,-4273.957719228696
1710812042408,-3983.316042184597
1710812042447,-3657.051754219923
1710812042487,-3608.0327530868817
1710812042528,-3482.5605524862185
1710812042568,-3332.439783550799
1710812042609,-2418.5429416066036
1710812042648,-2216.398575459607
1710812042688,-2216.398575459607
1710812042728,-2216.398575459607
1710812042769,-2216.398575459607
1710812042809,-2216.398575459607
1710812042849,-2418.5429416066036
1710812042889,-2679.4387216563337
1710812042929,-3332.439783550799
1710812042969,-3482.5605524862185
1710812043010,-3482.5605524862185
1710812043049,-3482.5605524862185
1710812043090,-3482.5605524862185
1710812043130,-3482.5605524862185
1710812043170,-3482.5605524862185
1710812043211,-3482.5605524862185
1710812043250,-3482.5605524862185
1710812043290,-4396.68694148073
1710812043330,-5441.547902658116
1710812043371,-6647.316362930462
1710812043411,-8452.96359598497
1710812043451,-8998.513015839271
1710812043491,-13430.727491755038
1710812043531,-18805.47896034387
1710812043571,-26217.664710752433
1710812043612,-27843.840781970648
1710812043651,-35304.432523162104
1710812043692,-58597.48557617678
1710812043732,-68519.56982719572
1710812043772,-68519.56982719572
1710812043813,-68519.56982719572
1710812043852,-68519.56982719572
1710812043892,-68519.56982719572
1710812043932,-68519.56982719572
1710812043973,-68519.56982719572
1710812044013,-68519.56982719572
1710812044053,-68519.56982719572
1710812044093,-68519.56982719572
1710812044133,-68519.56982719572
1710812044173,-44577.89471684303
1710812044214,-22328.83238216862
1710812044253,-1571.512565949466
1710812044293,12297.571545959916
1710812044334,25341.7712344483
1710812044374,35665.02713533724
1710812044414,51115.6940038926
1710812044454,60513.361278724624
1710812044494,73297.43444025796
1710812044534,84548.22996229632
1710812044574,93646.02263041423
1710812044615,98140.37965933
1710812044654,104596.47599306982
1710812044694,108051.00638540043
1710812044735,108382.31884733983
1710812044775,111159.75974909845
1710812044816,115028.20103806257
1710812044855,120055.49623139529
1710812044895,120568.00150601333
1710812044935,123565.16399005521
1710812044975,141575.18911471101
1710812045016,148252.89486616105
1710812045055,165398.00417810772
1710812045095,173915.90151823778
1710812045136,173915.90151823778
1710812045176,173915.90151823778
1710812045216,173915.90151823778
1710812045256,173915.90151823778
1710812045296,173915.90151823778
1710812045336,173915.90151823778
1710812045376,173915.90151823778
1710812045417,173915.90151823778
1710812045456,173915.90151823778
1710812045496,173915.90151823778
1710812045537,130457.9279096243
1710812045576,68211.51494524
1710812045617,11467.349804063793
1710812045657,-31762.47793738963
1710812045697,-58048.49793888023
1710812045737,-66150.38013223931
1710812045777,-66903.33571876772
1710812045818,-69478.51590615371
1710812045857,-74166.49638841394
1710812045897,-75342.97925192583
1710812045937,-77376.2883635778
1710812045978,-77547.20605843235
1710812046018,-79714.73800062481
1710812046058,-80883.49932955019
1710812046098,-83951.76916722301
1710812046138,-84349.77840387635
1710812046178,-85565.88600825053
1710812046219,-88258.03773823567
1710812046258,-90531.18826423027
1710812046298,-93686.2385889776
1710812046338,-93824.75726778805
1710812046379,-98985.70452581951
1710812046419,-102861.50811648555
1710812046459,-102861.50811648555
1710812046499,-102861.50811648555
1710812046539,-102861.50811648555
1710812046579,-102861.50811648555
1710812046620,-102861.50811648555
1710812046659,-102861.50811648555
1710812046699,-102861.50811648555
1710812046739,-102861.50811648555
1710812046779,-98985.70452581951
1710812046820,-96583.23956937063
1710812046860,-93686.2385889776
1710812046900,-67319.57226931793
1710812046940,-60692.76952571771
1710812046980,-59982.29686430725
1710812047021,-57856.638035021955
1710812047060,-53249.68212170806
1710812047100,-47454.36364116985
1710812047140,-46336.29731790349
1710812047180,-45854.574159070384
1710812047221,-45144.18508441211
1710812047261,-41809.58178518433
1710812047301,-40236.8006001343
1710812047341,-40236.8006001343
1710812047381,-40236.8006001343
1710812047422,-41809.58178518433
1710812047461,-45144.18508441211
1710812047501,-46127.63366573886
1710812047542,-46336.29731790349
1710812047582,-47454.36364116985
1710812047623,-47754.201306214556
1710812047662,-47754.201306214556
1710812047702,-47754.201306214556
1710812047742,-47754.201306214556
1710812047782,-46403.03331112163
1710812047823,-46403.03331112163
1710812047862,-46403.03331112163
1710812047905,-46403.03331112163
1710812047943,-46403.03331112163
1710812047983,-46403.03331112163
1710812048024,-46403.03331112163
1710812048063,-46403.03331112163
1710812048103,-46403.03331112163
1710812048143,-46403.03331112163
1710812048183,-46403.03331112163
1710812048224,-43935.512349474244
1710812048264,-41266.35341297719
1710812048304,-39636.160805720836
1710812048344,-39509.8036782993
1710812048384,-39183.797379236436
1710812048425,-38227.2036717087
1710812048464,-38091.77901737392
1710812048504,-37612.06468987232
1710812048545,-37264.31009260728
1710812048584,-36888.47591786203
1710812048625,-36359.50537096476
1710812048665,-35609.68711349089
1710812048705,-34088.736854022834
1710812048745,-31840.985059910454
1710812048785,-30048.47435811977
1710812048826,-29002.03657873976
1710812048865,-28641.586004032753
1710812048905,-28002.84889540728
1710812048945,-27763.241727711167
1710812048986,-27155.0330280161
1710812049027,-26650.31815698184
1710812049066,-25954.07557707932
1710812049106,-25280.767957912292
1710812049146,-24860.029913413804
1710812049186,-24830.910024790093
1710812049227,-23584.84641980147
1710812049267,-21885.570626144297
1710812049307,-21719.269814932253
1710812049347,-21185.1937844723
1710812049387,-19794.165624716785
1710812049428,-19794.165624716785
1710812049467,-19794.165624716785
1710812049507,-19794.165624716785
1710812049547,-18595.314933632035
1710812049588,-16493.45536052296
1710812049628,-14485.934350692667
1710812049668,-14118.246515757404
1710812049708,-13829.475775678875
1710812049748,-13183.256052559242
1710812049788,-12376.761576646939
1710812049829,-12313.163227172336
1710812049869,-11438.237261201255
1710812049909,-10615.208398590563
1710812049949,-10409.955192807596
1710812049989,-10165.418948689708
1710812050030,-9095.679603268392
1710812050069,-8907.446475827135
1710812050112,-8325.01670691371
1710812050149,-7440.71542539401
1710812050189,-7440.71542539401
1710812050230,-7440.71542539401
1710812050270,-6718.118575674947
1710812050310,-5104.723397717811
1710812050350,-2901.540642164182
1710812050390,-2245.7198737089057
1710812050431,-1788.934039265383
1710812050471,-1479.6541563705541
1710812050511,-222.8836747277528
1710812050551,262.33490421343595
1710812050591,262.33490421343595
1710812050632,318.9292979061138
1710812050671,353.92833810066804
1710812050711,532.6954660916235
1710812050751,953.2393324244767
1710812050792,1125.6901457605418
1710812050832,1284.4240579693578
1710812050872,3155.130178968888
1710812050912,3155.130178968888
1710812050952,3155.130178968888
1710812050992,3155.130178968888
1710812051033,3155.130178968888
1710812051073,3200.2265115124173
1710812051113,3862.55555703328
1710812051153,4241.908294226974
1710812051193,4241.908294226974
1710812051234,4241.908294226974
1710812051273,4241.908294226974
1710812051313,4241.908294226974
1710812051353,4241.908294226974
1710812051393,4241.908294226974
1710812051434,4518.4312814543955
1710812051473,4527.170977870235
1710812051513,4657.467054986395
1710812051554,4657.467054986395
1710812051593,4657.467054986395
1710812051634,4527.170977870235
1710812051674,4518.4312814543955
1710812051714,4174.296953751473
1710812051754,3862.55555703328
1710812051794,3320.960611515213
1710812051835,3307.270644364413
1710812051874,3203.6249605636112
1710812051914,3203.6249605636112
1710812051954,2696.0956697457004
1710812051994,2366.110195121728
1710812052035,2157.4543526656926
1710812052075,1622.969164611306
1710812052115,780.2858473733068
1710812052155,780.2858473733068
1710812052195,780.2858473733068
1710812052236,780.2858473733068
1710812052275,780.2858473733068
1710812052315,780.2858473733068
1710812052355,780.2858473733068
1710812052396,780.2858473733068
1710812052436,413.6461539599113
1710812052476,-311.602425343357
1710812052516,-311.602425343357
1710812052556,-311.602425343357
1710812052596,-311.602425343357
1710812052637,-193.1186454205308
1710812052676,-58.76402666512877
1710812052716,-58.76402666512877
1710812052756,-56.13065842259675
1710812052796,101.12427517375909
1710812052837,413.6461539599113
1710812052877,413.6461539599113
1710812052917,413.6461539599113
1710812052957,1130.1095316826832
1710812052997,1130.1095316826832
1710812053038,1130.1095316826832
1710812053077,1130.1095316826832
1710812053117,1130.1095316826832
1710812053157,1130.1095316826832
1710812053197,101.12427517375909
1710812053238,-56.13065842259675
1710812053278,-56.13065842259675
1710812053318,-56.13065842259675
1710812053358,-56.13065842259675
1710812053398,-56.13065842259675
1710812053439,-56.13065842259675
1710812053478,-56.13065842259675
1710812053518,-56.13065842259675
1710812053558,-56.13065842259675
1710812053598,-856.0304409461096
1710812053639,-856.0304409461096
1710812053679,-856.0304409461096
1710812053719,-856.0304409461096
1710812053759,-856.0304409461096
1710812053799,-856.0304409461096
1710812053840,-856.0304409461096
1710812053879,-856.0304409461096
1710812053919,-1157.9111144798808
1710812053959,-2355.518124437891
1710812053999,-2365.2322407788597
1710812054040,-2678.590047837468
1710812054080,-2803.8187829111703
1710812054120,-2803.8187829111703
1710812054160,-2803.8187829111703
1710812054200,-2365.2322407788597
1710812054241,-1810.3445898066275
1710812054280,-1786.7193606439978
1710812054320,-1157.9111144798808
1710812054360,-1148.8842395048123
1710812054400,-305.80182479834184
1710812054441,358.5379241015762
1710812054481,367.351952848956
1710812054521,367.351952848956
1710812054561,367.351952848956
1710812054601,367.351952848956
1710812054642,367.351952848956
1710812054681,367.351952848956
1710812054721,-138.99423866299912
1710812054761,-138.99423866299912
1710812054802,-138.99423866299912
1710812054842,130.4376359716989
1710812054882,130.4376359716989
1710812054922,130.4376359716989
1710812054962,130.4376359716989
1710812055002,404.8773410168942
1710812055043,785.756263686344
1710812055082,1033.2096293084323
1710812055122,1821.4875845108181
1710812055162,2085.204688566737
1710812055202,2605.476716723293
1710812055243,2605.476716723293
1710812055283,2605.476716723293
1710812055323,2605.476716723293
1710812055363,2605.476716723293
1710812055403,2605.476716723293
1710812055444,2605.476716723293
1710812055483,2605.476716723293
1710812055524,2605.476716723293
1710812055564,2605.476716723293
1710812055604,2605.476716723293
1710812055645,2605.476716723293
1710812055684,2605.476716723293
1710812055724,2605.476716723293
1710812055764,2605.476716723293
1710812055804,2605.476716723293
1710812055845,2605.476716723293
1710812055885,3074.298967297189
1710812055925,3850.393456899561
1710812055965,4517.846000696532
1710812056005,4517.846000696532
1710812056046,4517.846000696532
1710812056085,4517.846000696532
1710812056125,4517.846000696532
1710812056165,4517.846000696532
1710812056205,4082.6841431790963
1710812056246,3074.298967297189
1710812056286,1657.8309262036346
1710812056326,1549.4777322034352
1710812056366,1549.4777322034352
1710812056406,1549.4777322034352
1710812056447,1549.4777322034352
1710812056486,1549.4777322034352
1710812056526,1549.4777322034352
1710812056567,1549.4777322034352
1710812056607,1080.4338133714627
1710812056648,1657.8309262036346
1710812056687,2149.3658047835343
1710812056727,2149.3658047835343
1710812056767,2149.3658047835343
1710812056807,2149.3658047835343
1710812056848,2149.3658047835343
1710812056888,2149.3658047835343
1710812056928,2149.3658047835343
1710812056968,2149.3658047835343
1710812057008,2149.3658047835343
1710812057049,2149.3658047835343
1710812057088,4914.807051946642
1710812057128,8479.900281714275
1710812057168,8479.900281714275
1710812057209,8918.618530515814
1710812057249,9188.952808032278
1710812057289,9608.874362482922
1710812057329,9608.874362482922
1710812057369,9608.874362482922
1710812057409,9608.874362482922
1710812057450,9608.874362482922
1710812057489,10133.251932730898
1710812057530,10421.029004856478
1710812057570,10793.839664756786
1710812057610,10793.839664756786
1710812057651,10421.029004856478
1710812057690,9608.874362482922
1710812057730,9608.874362482922
1710812057770,9608.874362482922
1710812057811,9448.625897664111
1710812057851,9416.164207132533
1710812057891,9188.952808032278
1710812057931,8918.618530515814
1710812057971,8680.684591829311
1710812058011,8680.684591829311
1710812058052,8680.684591829311
1710812058092,8680.684591829311
1710812058132,8680.684591829311
1710812058172,9416.164207132533
1710812058212,9448.625897664111
1710812058253,9874.995721202577
1710812058292,10793.839664756786
1710812058332,10793.839664756786
1710812058372,10793.839664756786
1710812058412,12202.864434496965
1710812058453,16508.78416281077
1710812058493,16508.78416281077
1710812058533,16508.78416281077
1710812058573,18783.840544030536
1710812058613,19912.84003467858
1710812058654,20645.254460654687
1710812058693,24317.9662933934
1710812058733,24317.9662933934
1710812058773,24317.9662933934
1710812058813,24317.9662933934
1710812058854,24317.9662933934
1710812058893,24317.9662933934
1710812058933,21953.147090953076
1710812058973,20645.254460654687
1710812059014,18783.840544030536
1710812059054,16508.78416281077
1710812059094,15641.850833322154
1710812059134,13053.366244533798
1710812059174,9692.64895612793
1710812059214,7356.035099656787
1710812059255,7356.035099656787
1710812059294,7356.035099656787
1710812059334,7356.035099656787
1710812059374,6742.113452265505
1710812059414,1592.65524453111
1710812059455,82.7728299270384
1710812059495,-1647.4794843432028
1710812059535,-1742.2364715668373
1710812059575,-5370.1046959208325
1710812059615,-5676.608285835013
1710812059656,-5370.1046959208325
1710812059695,-3081.0114282919094
1710812059735,-3081.0114282919094
1710812059775,-3081.0114282919094
1710812059815,-3081.0114282919094
1710812059856,-1647.4794843432028
1710812059895,-1032.3448066578712
1710812059935,-1032.3448066578712
1710812059976,-1032.3448066578712
1710812060016,-1032.3448066578712
1710812060056,-1032.3448066578712
1710812060096,-1032.3448066578712
1710812060136,-1032.3448066578712
1710812060176,3290.934363985434
1710812060216,4864.381485645659
1710812060257,12782.994705707999
1710812060296,13465.818206800614
1710812060336,15469.69927795371
1710812060376,16138.006656118669
1710812060417,16861.162202167325
1710812060457,27909.53340880247
1710812060497,28283.065539003816
1710812060537,30027.79405350471
1710812060577,36995.885566246696
1710812060617,42171.280660442775
1710812060658,42905.09579214058
1710812060697,42905.09579214058
1710812060737,42905.09579214058
1710812060777,42905.09579214058
1710812060818,42905.09579214058
1710812060858,42905.09579214058
1710812060898,42905.09579214058
1710812060938,42171.280660442775
1710812060978,41901.75732531678
1710812061018,41901.75732531678
1710812061059,41901.75732531678
1710812061098,41901.75732531678
1710812061138,40126.699601334054
1710812061178,38917.69920573942
1710812061218,38672.98005000665
1710812061259,35073.269392292714
1710812061299,30849.389709688723
1710812061339,26749.47584868828
1710812061379,24306.945509382524
1710812061419,22663.27023781743
1710812061460,21367.071193020092
1710812061499,21183.554467062466
1710812061539,21083.559872834012
1710812061579,20846.831096677808
1710812061620,20377.850086037535
1710812061661,19900.33970926702
1710812061700,19785.71724310727
1710812061740,18967.20360164577
1710812061780,18963.52203345718
1710812061820,18723.477671918925
1710812061861,17930.62831471814
1710812061900,17400.90695500374
1710812061940,16959.799882726045
1710812061981,16148.54453791026
1710812062021,12905.729350487702
1710812062062,9041.894240791444
1710812062101,8023.4812266323715
1710812062141,8023.4812266323715
1710812062181,8023.4812266323715
1710812062221,8023.4812266323715
1710812062262,8023.4812266323715
1710812062301,8023.4812266323715
1710812062342,8023.4812266323715
1710812062382,8023.4812266323715
1710812062422,8023.4812266323715
1710812062463,7691.165484066587
1710812062502,7029.317961157998
1710812062542,6802.189187407726
1710812062582,6802.189187407726
1710812062622,6802.189187407726
1710812062663,6802.189187407726
1710812062703,6802.189187407726
1710812062743,6822.80370895192
1710812062783,7074.141748212278
1710812062823,7545.445174266817
1710812062864,7691.165484066587
1710812062903,8023.4812266323715
1710812062943,8111.1443296668585
1710812062984,8111.1443296668585
1710812063024,8111.1443296668585
1710812063064,8111.1443296668585
1710812063104,8111.1443296668585
1710812063144,8111.1443296668585
1710812063184,7691.165484066587
1710812063224,7545.445174266817
1710812063265,7074.141748212278
1710812063305,6946.863184658112
1710812063345,6946.863184658112
1710812063385,6946.863184658112
1710812063425,6946.863184658112
1710812063466,6946.863184658112
1710812063505,7074.141748212278
1710812063546,7332.736387126381
1710812063586,7545.445174266817
1710812063626,7754.854505442316
1710812063667,7785.417761971243
1710812063706,7785.417761971243
1710812063746,7785.417761971243
1710812063785,7785.417761971243
1710812063826,7785.417761971243
1710812063866,7785.417761971243
1710812063906,7754.854505442316
1710812063946,7421.551938363118
1710812063986,7332.736387126381
1710812064026,7332.736387126381
1710812064067,7332.736387126381
1710812064106,7332.736387126381
1710812064146,7421.551938363118
1710812064187,7754.854505442316
1710812064227,7785.417761971243
1710812064268,7845.710609611124
1710812064307,7934.602302442538
1710812064347,8037.980020549614
1710812064387,8083.216828833567
1710812064428,8234.952230613213
1710812064468,8234.952230613213
1710812064508,8234.952230613213
1710812064548,8234.952230613213
1710812064588,8234.952230613213
1710812064628,8083.216828833567
1710812064669,8037.980020549614
1710812064708,7934.602302442538
1710812064749,7934.602302442538
1710812064789,7934.602302442538
1710812064829,7934.602302442538
1710812064870,7934.602302442538
1710812064909,7934.602302442538
1710812064949,7934.602302442538
1710812064989,7845.710609611124
1710812065030,7823.407255197875
1710812065070,7823.407255197875
1710812065110,7823.407255197875
1710812065150,7823.407255197875
1710812065190,7823.407255197875
1710812065230,7823.407255197875
1710812065271,7823.407255197875
1710812065311,7823.407255197875
1710812065351,7420.979601764819
1710812065391,7070.9379491112195
1710812065431,6725.885546831414
1710812065472,6164.518086474622
1710812065511,6164.518086474622
1710812065551,6164.518086474622
1710812065591,6164.518086474622
1710812065631,6164.518086474622
1710812065672,6164.518086474622
1710812065711,5739.930288019124
1710812065751,5739.930288019124
1710812065792,6075.590255258838
1710812065832,6075.590255258838
1710812065873,6075.590255258838
1710812065912,6075.590255258838
1710812065952,6075.590255258838
1710812065992,6075.590255258838
1710812066032,6075.590255258838
1710812066073,6075.590255258838
1710812066112,6075.590255258838
1710812066152,6075.590255258838
1710812066192,5352.613510593539
1710812066233,5352.613510593539
1710812066273,5352.613510593539
1710812066313,5352.613510593539
1710812066353,5352.613510593539
1710812066393,5352.613510593539
1710812066433,5352.613510593539
1710812066474,5268.42195753986
1710812066513,5325.506935153622
1710812066553,5757.718744875863
1710812066594,6075.590255258838
1710812066634,6498.565498300595
1710812066674,6498.565498300595
1710812066714,6498.565498300595
1710812066754,6498.565498300595
1710812066794,6498.565498300595
1710812066834,6498.565498300595
1710812066875,6498.565498300595
1710812066914,6498.565498300595
1710812066954,6498.565498300595
1710812066994,6345.307315166341
1710812067035,6345.307315166341
1710812067075,6345.307315166341
1710812067115,6345.307315166341
1710812067155,6345.307315166341
1710812067195,6345.307315166341
1710812067235,6345.307315166341
1710812067276,6345.307315166341
1710812067315,6345.307315166341
1710812067355,6345.307315166341
1710812067395,6345.307315166341
1710812067436,6227.830204954138
1710812067476,6227.830204954138
1710812067516,6227.830204954138
1710812067556,6227.830204954138
1710812067596,6227.830204954138
1710812067636,6227.830204954138
1710812067677,6227.830204954138
1710812067716,6227.830204954138
1710812067756,6227.830204954138
1710812067797,6227.830204954138
1710812067836,5833.039867202053
1710812067877,5833.039867202053
1710812067917,5833.039867202053
1710812067957,5833.039867202053
1710812067997,5833.039867202053
1710812068037,6227.830204954138
1710812068078,6227.830204954138
1710812068117,6227.830204954138
1710812068157,6227.830204954138
1710812068197,6227.830204954138
1710812068237,6227.830204954138
1710812068278,5759.362474007765
1710812068318,5759.362474007765
1710812068358,5759.362474007765
1710812068398,5759.362474007765
1710812068438,5759.362474007765
1710812068479,5759.362474007765
1710812068518,5759.362474007765
1710812068558,5759.362474007765
1710812068598,5752.575102554634
1710812068639,5673.68145084288
1710812068679,5587.457527587656
1710812068719,5587.457527587656
1710812068759,5587.457527587656
1710812068799,5587.457527587656
1710812068839,5540.149104061071
1710812068880,5442.551025621127
1710812068919,5334.595879597589
1710812068959,5287.932472072309
1710812068999,4005.730531085981
1710812069039,3285.8919320614077
1710812069080,3285.8919320614077
1710812069120,3285.8919320614077
1710812069160,3285.8919320614077
1710812069200,3285.8919320614077
1710812069240,3285.8919320614077
1710812069281,3285.8919320614077
1710812069320,3177.858848474454
1710812069360,3112.8369233021513
1710812069400,2691.596121746581
1710812069441,2680.694796181051
1710812069481,2680.694796181051
1710812069521,2680.694796181051
1710812069561,2680.694796181051
1710812069601,2680.694796181051
1710812069641,2680.694796181051
1710812069682,2552.4171206641477
1710812069721,2551.231584685389
1710812069761,1438.9493570236955
1710812069801,1438.9493570236955
1710812069842,1438.9493570236955
1710812069882,1438.9493570236955
1710812069922,1438.9493570236955
1710812069962,1438.9493570236955
1710812070002,1438.9493570236955
1710812070042,1163.2996150166728
1710812070083,992.4049546583556
1710812070122,864.5766582607757
1710812070162,639.8996446137317
1710812070203,639.8996446137317
1710812070243,639.8996446137317
1710812070283,639.8996446137317
1710812070323,639.8996446137317
1710812070363,639.8996446137317
1710812070403,570.5753038325347
1710812070443,505.5678456258029
1710812070484,-2477.4197818334214
1710812070524,-2477.4197818334214
1710812070564,-2477.4197818334214
1710812070604,-2477.4197818334214
1710812070644,-2477.4197818334214
1710812070685,-2477.4197818334214
1710812070724,-2477.4197818334214
1710812070764,-3297.039370342158
1710812070804,-3752.886199504137
1710812070844,-3767.5492764662486
1710812070885,-3997.0741285076365
1710812070925,-4049.597021793481
1710812070965,-4049.597021793481
1710812071005,-4049.597021793481
1710812071045,-4049.597021793481
1710812071086,-4316.145023468416
1710812071125,-4385.137078231201
1710812071165,-4886.870421122527
1710812071205,-8127.9255128256045
1710812071245,-8127.9255128256045
1710812071286,-8127.9255128256045
1710812071326,-8127.9255128256045
1710812071366,-8127.9255128256045
1710812071406,-8127.9255128256045
1710812071446,-8127.9255128256045
1710812071487,-8127.9255128256045
1710812071526,-8127.9255128256045
1710812071566,-8631.840392880142
1710812071606,-9432.986370461993
1710812071647,-9440.008773187641
1710812071687,-9440.008773187641
1710812071727,-9440.008773187641
1710812071767,-9440.008773187641
1710812071807,-9440.008773187641
1710812071847,-9440.008773187641
1710812071888,-9440.008773187641
1710812071927,-9440.008773187641
1710812071967,-9440.008773187641
1710812072008,-9440.008773187641
1710812072048,-8845.263254311867
1710812072088,-8845.263254311867
1710812072128,-8845.263254311867
1710812072168,-8845.263254311867
1710812072208,-8845.263254311867
1710812072248,-8845.263254311867
1710812072289,-8845.263254311867
1710812072328,-8845.263254311867
1710812072369,-8845.263254311867
1710812072409,-8845.263254311867
1710812072449,-8845.263254311867
1710812072490,-8845.263254311867
1710812072529,-8845.263254311867
1710812072569,-8845.263254311867
1710812072609,-8845.263254311867
1710812072649,-8845.263254311867
1710812072690,-8845.263254311867
1710812072730,-8845.263254311867
1710812072770,-8845.263254311867
1710812072810,-8597.62578751496
1710812072850,-7928.271680926671
1710812072891,-7928.271680926671
1710812072930,-7928.271680926671
1710812072970,-7928.271680926671
1710812073010,-7928.271680926671
1710812073050,-7928.271680926671
1710812073091,-7928.271680926671
1710812073131,-7928.271680926671
1710812073171,-7928.271680926671
1710812073211,-7928.271680926671
1710812073251,-7928.271680926671
1710812073292,-6537.455197351752
1710812073331,-6537.455197351752
1710812073371,-6537.455197351752
1710812073411,-6407.768565569539
1710812073451,-5619.361159443855
1710812073492,-5609.454396111425
1710812073531,-5565.766746486537
1710812073571,-5413.44752260996
1710812073611,-5222.235387690831
1710812073652,-5116.738521357998
1710812073693,-4634.9055265442
1710812073732,-4447.090470836265
1710812073772,-4333.486615977716
1710812073812,-4006.7789246574976
1710812073852,-4006.7789246574976
1710812073893,-4006.7789246574976
1710812073932,-4006.7789246574976
1710812073972,-4006.7789246574976
1710812074012,-4006.7789246574976
1710812074053,-4006.7789246574976
1710812074093,-4006.7789246574976
1710812074133,-3817.934863078175
1710812074173,-3817.934863078175
1710812074213,-3817.934863078175
1710812074253,-3563.0937880771235
1710812074294,-2951.985934218159
1710812074333,-2945.6269295150414
1710812074373,-2645.741652320139
1710812074413,-2100.0516760414466
1710812074453,-2063.054765249137
1710812074494,-1875.386013674084
1710812074534,-1790.2828490338288
1710812074574,-1577.322925042361
1710812074614,-819.0387051054277
1710812074654,-819.0387051054277
1710812074694,-819.0387051054277
1710812074734,-819.0387051054277
1710812074774,-819.0387051054277
1710812074814,-819.0387051054277
1710812074854,-819.0387051054277
1710812074895,-819.0387051054277
1710812074934,-819.0387051054277
1710812074974,-819.0387051054277
1710812075015,-819.0387051054277
1710812075054,-819.0387051054277
1710812075095,-819.0387051054277
1710812075135,-819.0387051054277
1710812075175,-819.0387051054277
1710812075215,-447.2977562805172
1710812075255,-76.14086947008036
1710812075296,97.48203468718566
1710812075335,340.4241313878447
1710812075375,1094.4938809350133
1710812075415,1686.1219431487843
1710812075455,1686.1219431487843
1710812075496,1686.1219431487843
1710812075536,1686.1219431487843
1710812075576,1686.1219431487843
1710812075616,1686.1219431487843
1710812075656,1686.1219431487843
1710812075697,1686.1219431487843
1710812075736,1686.1219431487843
1710812075776,1686.1219431487843
1710812075817,1686.1219431487843
1710812075858,1686.1219431487843
1710812075898,1686.1219431487843
1710812075938,1686.1219431487843
1710812075978,1887.713702361798
1710812076018,1887.713702361798
1710812076058,1887.713702361798
1710812076099,1957.6935803741217
1710812076138,2513.8589591132477
1710812076178,2986.238329792628
1710812076218,2986.238329792628
1710812076258,2986.238329792628
1710812076299,2986.238329792628
1710812076339,2986.238329792628
1710812076379,2986.238329792628
1710812076419,2986.238329792628
1710812076459,2986.238329792628
1710812076500,2986.238329792628
1710812076539,2986.238329792628
1710812076579,3691.7415416631848
1710812076619,3691.7415416631848
1710812076659,3691.7415416631848
1710812076700,3691.7415416631848
1710812076740,3691.7415416631848
1710812076780,3691.7415416631848
1710812076820,3691.7415416631848
1710812076860,3691.7415416631848
1710812076901,3691.7415416631848
1710812076940,3691.7415416631848
1710812076980,3691.7415416631848
1710812077020,2586.20051123295
1710812077061,2586.20051123295
1710812077101,2586.20051123295
1710812077141,2586.20051123295
1710812077181,2586.20051123295
1710812077221,2586.20051123295
1710812077261,2586.20051123295
1710812077302,2586.20051123295
1710812077341,2586.20051123295
1710812077381,2586.20051123295
1710812077422,2586.20051123295
1710812077462,2825.7339561097324
1710812077502,2825.7339561097324
1710812077542,2825.7339561097324
1710812077582,2825.7339561097324
1710812077622,2825.7339561097324
1710812077662,2825.7339561097324
1710812077703,2825.7339561097324
1710812077742,2825.7339561097324
1710812077783,2825.7339561097324
1710812077823,2825.7339561097324
1710812077863,2825.7339561097324
1710812077904,2825.7339561097324
1710812077943,2825.7339561097324
1710812077983,2825.7339561097324
1710812078023,2825.7339561097324
1710812078063,2825.7339561097324
1710812078104,2825.7339561097324
1710812078144,2825.7339561097324
1710812078184,2825.7339561097324
1710812078224,2825.7339561097324
1710812078264,2825.7339561097324
1710812078305,3193.8104307297617
1710812078344,3193.8104307297617
1710812078384,3193.8104307297617
1710812078424,3193.8104307297617
1710812078464,3193.8104307297617
1710812078505,3193.8104307297617
1710812078545,3193.8104307297617
1710812078585,3193.8104307297617
1710812078625,3193.8104307297617
1710812078665,3193.8104307297617
1710812078706,3193.8104307297617
1710812078745,1878.105779595673
1710812078785,1878.105779595673
1710812078825,1878.105779595673
1710812078866,1878.105779595673
1710812078906,1878.105779595673
1710812078946,1878.105779595673
1710812078986,1878.105779595673
1710812079026,1878.105779595673
1710812079066,1878.105779595673
1710812079107,1878.105779595673
1710812079146,1878.105779595673
1710812079186,1878.105779595673
1710812079227,1878.105779595673
1710812079267,1878.105779595673
1710812079308,1878.105779595673
1710812079347,2168.479206149932
1710812079387,2189.836698370287
1710812079427,2233.295879178215
1710812079467,2537.5073654237203
1710812079508,2580.4137906949036
1710812079548,2984.5444942023605
1710812079588,3158.0004647797905
1710812079628,3382.079105561832
1710812079668,3632.389031184837
1710812079709,3632.389031184837
1710812079748,3632.389031184837
1710812079788,3632.389031184837
1710812079829,3632.389031184837
1710812079869,3632.389031184837
1710812079909,3632.389031184837
1710812079949,3382.079105561832
1710812079989,3382.079105561832
1710812080029,3382.079105561832
1710812080069,3382.079105561832
1710812080110,3382.079105561832
1710812080149,3382.079105561832
1710812080190,3382.079105561832
1710812080230,3382.079105561832
1710812080270,3319.9253015769646
1710812080311,3319.9253015769646
1710812080350,3319.9253015769646
1710812080390,1098.9080610331148
1710812080430,1098.9080610331148
1710812080470,1098.9080610331148
1710812080511,1098.9080610331148
1710812080551,1098.9080610331148
1710812080591,1098.9080610331148
1710812080631,1098.9080610331148
1710812080671,1098.9080610331148
1710812080712,1098.9080610331148
1710812080751,268.5187731629703
1710812080791,148.72864211443812
1710812080831,10.781043147668242
1710812080871,10.781043147668242
1710812080912,10.781043147668242
1710812080951,10.781043147668242
1710812080991,10.781043147668242
1710812081032,10.781043147668242
1710812081072,10.781043147668242
1710812081112,10.781043147668242
1710812081152,-2023.4302779585123
1710812081192,-3184.9125164255966
1710812081232,-3184.9125164255966
1710812081272,-3184.9125164255966
1710812081313,-3184.9125164255966
1710812081352,-3184.9125164255966
1710812081392,-3184.9125164255966
1710812081432,-3184.9125164255966
1710812081472,-3184.9125164255966
1710812081513,-3184.9125164255966
1710812081553,-4186.09336414421
1710812081593,-4609.120025140699
1710812081633,-5120.252084214939
1710812081673,-5120.252084214939
1710812081714,-5120.252084214939
1710812081753,-5120.252084214939
1710812081793,-5578.206579036079
1710812081833,-5578.206579036079
1710812081874,-5578.206579036079
1710812081914,-5652.755583922379
1710812081954,-5702.8646523403
1710812081994,-6663.878673703177
1710812082034,-6663.878673703177
1710812082074,-6663.878673703177
1710812082115,-6663.878673703177
1710812082154,-6663.878673703177
1710812082194,-6663.878673703177
1710812082234,-6663.878673703177
1710812082274,-6663.878673703177
1710812082315,-7054.352168628713
1710812082355,-7872.937294213567
1710812082395,-7924.076459314907
1710812082435,-7943.140828015748
1710812082475,-7943.140828015748
1710812082516,-7943.140828015748
1710812082555,-8336.306809971109
1710812082595,-8397.034397033043
1710812082635,-8409.866948196664
1710812082675,-8397.034397033043
1710812082716,-8336.306809971109
1710812082755,-7760.521501417039
1710812082796,-6663.878673703177
1710812082836,-6515.96922313422
1710812082876,-6515.96922313422
1710812082917,-6515.96922313422
1710812082956,-6515.96922313422
1710812082996,-6515.96922313422
1710812083036,-7607.839116191724
1710812083076,-7760.521501417039
1710812083117,-8336.306809971109
1710812083156,-8336.306809971109
1710812083197,-7760.521501417039
1710812083237,-7660.938145863824
1710812083277,-7607.839116191724
1710812083318,-7445.607399906963
1710812083357,-7445.607399906963
1710812083397,-7237.278716376284
1710812083437,-6801.900111051276
1710812083477,-6582.34655910451
1710812083518,-6515.96922313422
1710812083558,-5466.816737884656
1710812083598,-5415.352627868764
1710812083638,-5415.352627868764
1710812083678,-5415.352627868764
1710812083718,-5415.352627868764
1710812083758,-6582.34655910451
1710812083798,-6801.900111051276
1710812083838,-7237.278716376284
1710812083878,-7237.278716376284
1710812083919,-7237.278716376284
1710812083958,-7237.278716376284
1710812083999,-7237.278716376284
1710812084039,-7237.278716376284
1710812084079,-7445.607399906963
1710812084119,-7634.700193694094
1710812084159,-7634.700193694094
1710812084199,-6749.556365127442
1710812084239,-6749.556365127442
1710812084279,-6749.556365127442
1710812084320,-6749.556365127442
1710812084360,-6749.556365127442
1710812084400,-6749.556365127442
1710812084440,-6749.556365127442
1710812084480,-8009.468854031526
1710812084521,-8222.171565530822
1710812084560,-8443.62810393027
1710812084600,-8987.495940835215
1710812084640,-8987.495940835215
1710812084680,-8987.495940835215
1710812084721,-8987.495940835215
1710812084761,-8987.495940835215
1710812084801,-9390.667914408026
1710812084841,-9490.182178094052
1710812084881,-9557.407781403512
1710812084922,-9576.226186645683
1710812084961,-9576.226186645683
1710812085001,-9576.226186645683
1710812085041,-9576.226186645683
1710812085082,-9576.226186645683
1710812085122,-9576.226186645683
1710812085162,-9576.226186645683
1710812085202,-9576.226186645683
1710812085242,-9576.226186645683
1710812085282,-10462.842721385648
1710812085323,-10698.41647197958
1710812085362,-10698.41647197958
1710812085402,-10698.41647197958
1710812085443,-10698.41647197958
1710812085483,-10698.41647197958
1710812085523,-10698.41647197958
1710812085563,-10698.41647197958
1710812085603,-10698.41647197958
1710812085643,-10698.41647197958
1710812085683,-10462.842721385648
1710812085724,-9689.732690395322
1710812085763,-9689.732690395322
1710812085804,-9689.732690395322
1710812085844,-9689.732690395322
1710812085884,-9689.732690395322
1710812085925,-9689.732690395322
1710812085964,-9689.732690395322
1710812086004,-9689.732690395322
1710812086044,-9689.732690395322
1710812086085,-9689.732690395322
1710812086125,-8623.9578874656
1710812086165,-8623.9578874656
1710812086205,-8623.9578874656
1710812086245,-8269.617926357314
1710812086285,-7925.086197232362
1710812086326,-7408.99484158773
1710812086365,-6965.849846199155
1710812086405,-6808.27364303451
1710812086446,-6697.883989941096
1710812086486,-6300.780556654558
1710812086526,-6032.946377539542
1710812086566,-5723.161812438164
1710812086606,-5535.139841759577
1710812086646,-5535.139841759577
1710812086686,-5535.139841759577
1710812086727,-5535.139841759577
1710812086766,-5535.139841759577
1710812086806,-5535.139841759577
1710812086846,-5535.139841759577
1710812086887,-5535.139841759577
1710812086928,-4495.22086935956
1710812086967,-2837.76797148725
1710812087007,-2837.76797148725
1710812087047,-2837.76797148725
1710812087087,-2540.1192858782597
1710812087128,-1588.2876814410556
1710812087168,-1520.2875562948175
1710812087208,-1388.3793252673931
1710812087248,-1388.3793252673931
1710812087288,-1375.7747433972545
1710812087329,-1233.2338873129338
1710812087368,-1145.4282713539433
1710812087409,-322.07778528891504
1710812087449,700.7333308893722
1710812087489,850.3225998620037
1710812087530,850.3225998620037
1710812087569,850.3225998620037
1710812087609,850.3225998620037
1710812087650,850.3225998620037
1710812087690,850.3225998620037
1710812087730,850.3225998620037
1710812087770,850.3225998620037
1710812087810,1514.0962126459926
1710812087850,2171.4536000797525
1710812087890,2171.4536000797525
1710812087931,2171.4536000797525
1710812087970,2171.4536000797525
1710812088010,2777.1100900247693
1710812088050,3100.8156214836054
1710812088090,3399.326517208712
1710812088131,3449.2710566255264
1710812088170,4013.2244874364696
1710812088211,4031.661697994452
1710812088251,4031.661697994452
1710812088291,4183.282017549034
1710812088332,4294.7209598154295
1710812088371,4294.7209598154295
1710812088411,4294.7209598154295
1710812088451,4294.7209598154295
1710812088491,4294.7209598154295
1710812088532,4294.7209598154295
1710812088571,4294.7209598154295
1710812088612,4294.7209598154295
1710812088652,4294.7209598154295
1710812088692,4294.7209598154295
1710812088733,4294.7209598154295
1710812088772,4294.7209598154295
1710812088812,4294.7209598154295
1710812088852,4294.7209598154295
1710812088892,4201.605428605573
1710812088933,4201.605428605573
1710812088972,4201.605428605573
1710812089012,4201.605428605573
1710812089053,4385.903414395172
1710812089093,5093.193204751704
1710812089133,5093.193204751704
1710812089173,5093.193204751704
1710812089213,5093.193204751704
1710812089253,5093.193204751704
1710812089293,5093.193204751704
1710812089334,5093.193204751704
1710812089373,5093.193204751704
1710812089413,5093.193204751704
1710812089454,4385.903414395172
1710812089494,4201.605428605573
1710812089534,4201.605428605573
1710812089574,4201.605428605573
1710812089614,4201.605428605573
1710812089654,4201.605428605573
1710812089694,4201.605428605573
1710812089735,4188.205449141096
1710812089774,3934.107425280381
1710812089814,3934.107425280381
1710812089854,3563.276585015934
1710812089895,3563.276585015934
1710812089935,3563.276585015934
1710812089975,3563.276585015934
1710812090015,3563.276585015934
1710812090055,3563.276585015934
1710812090095,3563.276585015934
1710812090136,3560.420911473222
1710812090175,3351.3567440165207
1710812090215,3255.101360751316
1710812090255,3218.985185066471
1710812090296,3218.985185066471
1710812090336,3218.985185066471
1710812090376,3218.985185066471
1710812090416,3218.985185066471
1710812090456,3218.985185066471
1710812090496,2703.0139392833225
1710812090537,2487.0372312818654
1710812090576,-306.0206963857636
1710812090616,-1451.4522414305247
1710812090656,-1451.4522414305247
1710812090696,-1451.4522414305247
1710812090737,-1451.4522414305247
1710812090777,-1451.4522414305247
1710812090817,-1451.4522414305247
1710812090857,-1451.4522414305247
1710812090897,-1927.2009605176281
1710812090938,-2411.6475739916787
1710812090977,-2424.8964986670762
1710812091017,-2427.670926712919
1710812091057,-2427.670926712919
1710812091097,-2427.670926712919
1710812091138,-2427.670926712919
1710812091178,-2427.670926712919
1710812091218,-2427.670926712919
1710812091258,-2433.4940022602677
1710812091298,-2433.4940022602677
1710812091339,-7115.226822212804
1710812091378,-7699.505813966971
1710812091418,-7699.505813966971
1710812091458,-7699.505813966971
1710812091498,-7699.505813966971
1710812091539,-7699.505813966971
1710812091579,-7699.505813966971
1710812091619,-7699.505813966971
1710812091659,-7699.505813966971
1710812091699,-9400.039072766434
1710812091740,-9611.87926164642
1710812091779,-9845.961366633186
1710812091819,-9911.010422526859
1710812091859,-9911.010422526859
1710812091899,-9911.010422526859
1710812091940,-9965.911195487017
1710812091980,-10352.957015998196
1710812092020,-10367.804148135707
1710812092060,-10367.804148135707
1710812092100,-11520.292396870209
1710812092141,-13892.525922823232
1710812092180,-13892.525922823232
1710812092220,-13892.525922823232
1710812092260,-13892.525922823232
1710812092301,-13892.525922823232
1710812092341,-13892.525922823232
1710812092381,-13892.525922823232
1710812092421,-13892.525922823232
1710812092461,-13892.525922823232
1710812092501,-13892.525922823232
1710812092542,-14583.180887856055
1710812092581,-14621.341051251628
1710812092621,-14621.341051251628
1710812092662,-14621.341051251628
1710812092702,-14621.341051251628
1710812092742,-14621.341051251628
1710812092782,-14621.341051251628
1710812092822,-14621.341051251628
1710812092862,-14621.341051251628
1710812092902,-14621.341051251628
1710812092943,-14621.341051251628
1710812092982,-14621.341051251628
1710812093023,-14621.341051251628
1710812093063,-14621.341051251628
1710812093103,-14621.341051251628
1710812093144,-14621.341051251628
1710812093183,-14621.341051251628
1710812093223,-14621.341051251628
1710812093263,-14621.341051251628
1710812093304,-14621.341051251628
1710812093344,-14621.341051251628
1710812093384,-14565.985448431224
1710812093424,-14169.704306875356
1710812093464,-14169.704306875356
1710812093504,-14169.704306875356
1710812093545,-14037.87290711375
1710812093584,-13467.271703277249
1710812093624,-13147.918352451641
1710812093665,-13147.918352451641
1710812093705,-13023.951542664086
1710812093745,-13020.446059408598
1710812093785,-12513.084095298313
1710812093825,-11381.891589849489
1710812093865,-11314.249952180777
1710812093905,-11180.880768982228
1710812093946,-11180.880768982228
1710812093986,-11180.880768982228
1710812094026,-11180.880768982228
1710812094066,-11180.880768982228
1710812094106,-11180.880768982228
1710812094147,-11180.880768982228
1710812094186,-11180.880768982228
1710812094226,-9593.658702909946
1710812094267,-8050.228878858732
1710812094307,-7099.444756776094
1710812094347,-7099.444756776094
1710812094387,-6809.453868276672
1710812094427,-5758.727804873139
1710812094467,-5433.757963218261
1710812094507,-5433.757963218261
1710812094548,-5433.757963218261
1710812094587,-5266.018918733578
1710812094628,-5091.937033854891
1710812094668,-4560.933825913351
1710812094708,-3823.092230836628
1710812094749,-3310.378449109383
1710812094788,-2365.118806370534
1710812094828,-1948.4359984535258
1710812094869,-1948.4359984535258
1710812094909,-1948.4359984535258
1710812094949,-1948.4359984535258
1710812094989,-1948.4359984535258
1710812095029,-1948.4359984535258
1710812095069,-1850.1202258525882
1710812095109,-1523.8430598569103
1710812095150,-1523.8430598569103
1710812095189,-1523.8430598569103
1710812095229,-1523.8430598569103
1710812095269,-640.0529103148729
1710812095309,-395.9036846444942
1710812095350,-161.95195729704574
1710812095390,-65.4501983341761
1710812095430,595.1227548017632
1710812095470,692.4049207326025
1710812095510,749.9684534918051
1710812095551,1057.4652995513752
1710812095590,2042.8759151287377
1710812095630,2042.8759151287377
1710812095670,2042.8759151287377
1710812095710,2042.8759151287377
1710812095751,2042.8759151287377
1710812095791,2042.8759151287377
1710812095831,2042.8759151287377
1710812095871,2042.8759151287377
1710812095911,3273.6511961440556
1710812095952,4000.6914783916436
1710812095991,4000.6914783916436
1710812096031,4000.6914783916436
1710812096071,4137.233526229393
1710812096111,4682.50551529089
1710812096152,5088.478527479107
1710812096192,5088.478527479107
1710812096231,5088.478527479107
1710812096272,5088.478527479107
1710812096312,5189.18210431328
1710812096353,5660.832429937087
1710812096392,6360.218101351988
1710812096432,6923.821342990268
1710812096472,6923.821342990268
1710812096512,6923.821342990268
1710812096553,6923.821342990268
1710812096592,6923.821342990268
1710812096632,6923.821342990268
1710812096673,6923.821342990268
1710812096713,6923.821342990268
1710812096753,6923.821342990268
1710812096793,6923.821342990268
1710812096833,6923.821342990268
1710812096873,6923.821342990268
1710812096913,6923.821342990268
1710812096954,6923.821342990268
1710812096993,6923.821342990268
1710812097033,6923.821342990268
1710812097073,6923.821342990268
1710812097114,6923.821342990268
1710812097155,6923.821342990268
1710812097194,5276.751587131992
1710812097234,5276.751587131992
1710812097274,5276.751587131992
1710812097314,5276.751587131992
1710812097355,5276.751587131992
1710812097394,5276.751587131992
1710812097434,5276.751587131992
1710812097474,5276.751587131992
1710812097515,5276.751587131992
1710812097555,5276.751587131992
1710812097595,4365.413054989185
1710812097635,4365.413054989185
1710812097675,4365.413054989185
1710812097715,4365.413054989185
1710812097756,4365.413054989185
1710812097795,4365.413054989185
1710812097835,4365.413054989185
1710812097875,4195.175591218285
1710812097915,4195.175591218285
1710812097956,4195.175591218285
1710812097996,3445.62331735529
1710812098036,1927.473174376879
1710812098076,1927.473174376879
1710812098116,1927.473174376879
1710812098157,1927.473174376879
1710812098196,1927.473174376879
1710812098236,1927.473174376879
1710812098276,1927.473174376879
1710812098316,1927.473174376879
1710812098357,1927.473174376879
1710812098397,1927.473174376879
1710812098437,1799.1633907132782
1710812098477,1799.1633907132782
1710812098517,1799.1633907132782
1710812098558,1799.1633907132782
1710812098597,1799.1633907132782
1710812098637,1799.1633907132782
1710812098677,1799.1633907132782
1710812098718,1799.1633907132782
1710812098758,1799.1633907132782
1710812098798,1799.1633907132782
1710812098838,1799.1633907132782
1710812098878,-1044.6125541739166
1710812098918,-1044.6125541739166
1710812098959,-1044.6125541739166
1710812098998,-1044.6125541739166
1710812099038,-1044.6125541739166
1710812099079,-1044.6125541739166
1710812099119,-1044.6125541739166
1710812099160,-1044.6125541739166
1710812099199,-1044.6125541739166
1710812099239,-1044.6125541739166
1710812099279,-1534.7301640822552
1710812099319,-1882.8421391204465
1710812099360,-1882.8421391204465
1710812099399,-1882.8421391204465
1710812099440,-1882.8421391204465
1710812099480,-1882.8421391204465
1710812099520,-1882.8421391204465
1710812099561,-1882.8421391204465
1710812099600,-1882.8421391204465
1710812099640,-1882.8421391204465
1710812099680,-1882.8421391204465
1710812099720,-4594.718477254733
1710812099761,-4594.718477254733
1710812099801,-4594.718477254733
1710812099841,-4594.718477254733
1710812099881,-4594.718477254733
1710812099921,-4594.718477254733
1710812099962,-4594.718477254733
1710812100001,-4594.718477254733
1710812100041,-4594.718477254733
1710812100081,-4594.718477254733
1710812100122,-4594.718477254733
1710812100163,-4594.718477254733
1710812100202,-4594.718477254733
1710812100242,-4594.718477254733
1710812100282,-4594.718477254733
1710812100322,-4594.718477254733
1710812100363,-4594.718477254733
1710812100403,-4594.718477254733
1710812100443,-4594.718477254733
1710812100483,-4594.718477254733
1710812100523,-4594.718477254733
1710812100564,-5230.841645970009
1710812100603,-5230.841645970009
1710812100643,-5230.841645970009
1710812100683,-5230.841645970009
1710812100723,-5230.841645970009
1710812100764,-5230.841645970009
1710812100804,-5230.841645970009
1710812100844,-5230.841645970009
1710812100884,-5230.841645970009
1710812100924,-5230.841645970009
1710812100965,-6437.456436763983
1710812101005,-6437.456436763983
1710812101045,-6437.456436763983
1710812101085,-6437.456436763983
1710812101125,-6437.456436763983
1710812101166,-6437.456436763983
1710812101205,-6437.456436763983
1710812101245,-6437.456436763983
1710812101286,-6437.456436763983
1710812101326,-6437.456436763983
1710812101367,-6515.975608130917
1710812101406,-6515.975608130917
1710812101446,-6515.975608130917
1710812101486,-6515.975608130917
1710812101526,-6515.975608130917
1710812101567,-6515.975608130917
1710812101607,-6515.975608130917
1710812101647,-6515.975608130917
1710812101687,-6515.975608130917
1710812101727,-6515.975608130917
1710812101768,-6515.975608130917
1710812101808,-7402.424034619471
1710812101848,-7402.424034619471
1710812101888,-7402.424034619471
1710812101928,-7402.424034619471
1710812101969,-7402.424034619471
1710812102008,-7402.424034619471
1710812102048,-7402.424034619471
1710812102088,-7402.424034619471
1710812102128,-7402.424034619471
1710812102169,-7402.424034619471
1710812102209,-6502.74668340385
1710812102249,-6502.74668340385
1710812102289,-6502.74668340385
1710812102329,-6502.74668340385
1710812102369,-6502.74668340385
1710812102409,-6502.74668340385
1710812102449,-6502.74668340385
1710812102489,-6502.74668340385
1710812102529,-6502.74668340385
1710812102570,-6502.74668340385
1710812102609,-6825.506633390207
1710812102649,-6825.506633390207
1710812102690,-6825.506633390207
1710812102729,-6825.506633390207
1710812102770,-6825.506633390207
1710812102810,-6825.506633390207
1710812102850,-6825.506633390207
1710812102890,-6825.506633390207
1710812102930,-6825.506633390207
1710812102971,-6825.506633390207
1710812103010,-6502.74668340385
1710812103050,-6226.324780921917
1710812103090,-6226.324780921917
1710812103130,-6226.324780921917
1710812103171,-6226.324780921917
1710812103210,-6226.324780921917
1710812103251,-6226.324780921917
1710812103291,-6226.324780921917
1710812103331,-6226.324780921917
1710812103371,-6226.324780921917
1710812103411,-6825.506633390207
1710812103451,-6924.47193565825
1710812103491,-6924.47193565825
1710812103531,-6924.47193565825
1710812103572,-6924.47193565825
1710812103611,-6292.971343531273
1710812103651,-6292.971343531273
1710812103691,-6226.324780921917
1710812103731,-6226.324780921917
1710812103772,-6104.7101896426175
1710812103812,-5448.771342995111
1710812103852,-4915.811756428797
1710812103892,-4257.515129107982
1710812103932,-4257.515129107982
1710812103973,-4257.515129107982
1710812104012,-4257.515129107982
1710812104052,-4257.515129107982
1710812104092,-4257.515129107982
1710812104132,-4257.515129107982
1710812104173,-5448.771342995111
1710812104213,-5843.877722315723
1710812104253,-5843.877722315723
1710812104293,-5843.877722315723
1710812104333,-5843.877722315723
1710812104374,-5843.877722315723
1710812104413,-5843.877722315723
1710812104453,-5843.877722315723
1710812104493,-5843.877722315723
1710812104533,-5843.877722315723
1710812104574,-5448.771342995111
1710812104614,-4993.197363779414
1710812104654,-4993.197363779414
1710812104694,-4993.197363779414
1710812104734,-4993.197363779414
1710812104775,-4993.197363779414
1710812104814,-4993.197363779414
1710812104854,-4993.197363779414
1710812104894,-4993.197363779414
1710812104934,-4993.197363779414
1710812104975,-5843.877722315723
1710812105014,-6038.270582818193
1710812105055,-6038.270582818193
1710812105095,-6038.270582818193
1710812105135,-6038.270582818193
1710812105176,-6038.270582818193
1710812105215,-6038.270582818193
1710812105255,-6038.270582818193
1710812105295,-6038.270582818193
1710812105335,-6038.270582818193
1710812105376,-6132.794948722236
1710812105415,-6132.794948722236
1710812105456,-6132.794948722236
1710812105496,-6132.794948722236
1710812105536,-6132.794948722236
1710812105577,-6132.794948722236
1710812105616,-6132.794948722236
1710812105656,-6132.794948722236
1710812105696,-6132.794948722236
1710812105736,-6132.794948722236
1710812105777,-6132.794948722236
1710812105817,-6132.794948722236
1710812105857,-6132.794948722236
1710812105897,-6132.794948722236
1710812105937,-6132.794948722236
1710812105978,-5745.104183157673
1710812106017,-5519.396942073945
1710812106057,-5519.396942073945
1710812106097,-5519.396942073945
1710812106137,-4699.61632315279
1710812106178,-4498.018878882052
1710812106218,-4165.633485926548
1710812106258,-3169.5367182800546
1710812106298,-3169.5367182800546
1710812106338,-3169.5367182800546
1710812106379,-3169.5367182800546
1710812106418,-3169.5367182800546
1710812106458,-3169.5367182800546
1710812106498,-3169.5367182800546
1710812106539,-3169.5367182800546
1710812106579,-3169.5367182800546
1710812106619,-1124.2562375147827
1710812106659,-1124.2562375147827
1710812106699,-1124.2562375147827
1710812106739,-1124.2562375147827
1710812106780,-717.6216054987162
1710812106819,-58.99341325531714
1710812106859,39.87241883785464
1710812106900,39.87241883785464
1710812106940,39.87241883785464
1710812106980,591.0105717775878
1710812107020,1104.982388493605
1710812107060,1419.5828313233797
1710812107100,1648.993413189659
1710812107140,1648.993413189659
1710812107181,1648.993413189659
1710812107221,1648.993413189659
1710812107261,1648.993413189659
1710812107301,1648.993413189659
1710812107341,1648.993413189659
1710812107382,1648.993413189659
1710812107421,1648.993413189659
1710812107461,3098.4452558546327
1710812107502,3098.4452558546327
1710812107542,3098.4452558546327
1710812107582,3098.4452558546327
1710812107622,3098.4452558546327
1710812107662,3313.7326696543023
1710812107702,4396.562405682867
1710812107742,4396.562405682867
1710812107783,4396.562405682867
1710812107823,4396.562405682867
1710812107863,4510.727380805649
1710812107903,5190.742467596196
1710812107943,5613.756297725253
1710812107984,5613.756297725253
1710812108023,5613.756297725253
1710812108066,5613.756297725253
1710812108103,5613.756297725253
1710812108144,5613.756297725253
1710812108184,5613.756297725253
1710812108224,5613.756297725253
1710812108264,5613.756297725253
1710812108304,6929.663526992314
1710812108344,8226.67855738895
1710812108385,8226.67855738895
1710812108425,8226.67855738895
1710812108465,8261.266645643627
1710812108505,8537.954768733587
1710812108545,8576.758678842336
1710812108586,8576.758678842336
1710812108625,8576.758678842336
1710812108665,8576.758678842336
1710812108706,8907.394762775162
1710812108746,9117.532751269639
1710812108787,9781.576890490018
1710812108826,10107.641876920592
1710812108866,10107.641876920592
1710812108906,10107.641876920592
1710812108946,10107.641876920592
1710812108987,10107.641876920592
1710812109027,10107.641876920592
1710812109067,10107.641876920592
1710812109107,9131.3701741884
1710812109147,9117.532751269639
1710812109188,9117.532751269639
1710812109227,9117.532751269639
1710812109267,9117.532751269639
1710812109307,9117.532751269639
1710812109347,9117.532751269639
1710812109388,9117.532751269639
1710812109428,9117.532751269639
1710812109468,9117.532751269639
1710812109508,9131.3701741884
1710812109548,9178.918372214306
1710812109589,9178.918372214306
1710812109628,9178.918372214306
1710812109668,9178.918372214306
1710812109708,9178.918372214306
1710812109748,9178.918372214306
1710812109789,9178.918372214306
1710812109829,9178.918372214306
1710812109869,9131.3701741884
1710812109909,8812.056320016505
1710812109949,8808.569475313649
1710812109990,8808.569475313649
1710812110029,8808.569475313649
1710812110069,8808.569475313649
1710812110109,8320.141214044765
1710812110150,8066.438273117412
1710812110190,8029.368572426727
1710812110230,7774.382345629623
1710812110273,7248.018836476142
1710812110310,7248.018836476142
1710812110350,7248.018836476142
1710812110391,7248.018836476142
1710812110430,7248.018836476142
1710812110470,7248.018836476142
1710812110510,7248.018836476142
1710812110550,7248.018836476142
1710812110591,7248.018836476142
1710812110631,7134.463656690903
1710812110671,6849.999526103027
1710812110711,6715.237009319942
1710812110751,6715.237009319942
1710812110792,6715.237009319942
1710812110831,6715.237009319942
1710812110871,6715.237009319942
1710812110911,6715.237009319942
1710812110951,6715.237009319942
1710812110992,6715.237009319942
1710812111032,6715.237009319942
1710812111072,3377.129679893609
1710812111112,3377.129679893609
1710812111152,3377.129679893609
1710812111193,3377.129679893609
1710812111232,3377.129679893609
1710812111272,3377.129679893609
1710812111312,3377.129679893609
1710812111353,3377.129679893609
1710812111393,3377.129679893609
1710812111433,2352.086909422651
1710812111473,1828.5543169460725
1710812111513,1764.0812716637738
1710812111553,1342.4818429674488
1710812111594,1342.4818429674488
1710812111633,1342.4818429674488
1710812111673,959.7020191312768
1710812111714,828.8039387122262
1710812111754,828.8039387122262
1710812111794,828.8039387122262
1710812111834,-219.45620388071984
1710812111874,-2581.5288313087076
1710812111914,-2581.5288313087076
1710812111954,-2581.5288313087076
1710812111995,-2581.5288313087076
1710812112034,-2581.5288313087076
1710812112074,-2581.5288313087076
1710812112114,-2581.5288313087076
1710812112155,-2581.5288313087076
1710812112196,-2581.5288313087076
1710812112235,-2581.5288313087076
1710812112275,-3042.209051047452
1710812112315,-3042.209051047452
1710812112355,-3042.209051047452
1710812112396,-3042.209051047452
1710812112436,-3042.209051047452
1710812112476,-3042.209051047452
1710812112516,-3834.088705639355
1710812112556,-3834.088705639355
1710812112597,-3834.088705639355
1710812112636,-2867.877260452602
1710812112676,-2581.5288313087076
1710812112716,-2370.5893178633414
1710812112756,-2370.5893178633414
1710812112797,-2370.5893178633414
1710812112837,-2370.5893178633414
1710812112877,-2370.5893178633414
1710812112917,-2370.5893178633414
1710812112957,-2370.5893178633414
1710812112998,-2370.5893178633414
1710812113037,-2370.5893178633414
1710812113077,-2867.877260452602
1710812113117,-2867.877260452602
1710812113157,-2867.877260452602
1710812113198,-2766.942771124188
1710812113237,-1555.069763905136
1710812113278,-1555.069763905136
1710812113318,-1555.069763905136
1710812113358,-1555.069763905136
1710812113399,-1555.069763905136
1710812113438,-1555.069763905136
1710812113478,-1506.9828662350774
1710812113518,-294.1546308766119
1710812113558,-294.1546308766119
1710812113599,-294.1546308766119
1710812113639,-294.1546308766119
1710812113679,-294.1546308766119
1710812113719,-294.1546308766119
1710812113759,-294.1546308766119
1710812113800,-676.0476188659668
1710812113839,-1506.9828662350774
1710812113879,-1682.284270268632
1710812113919,-1682.284270268632
1710812113960,-1682.284270268632
1710812114001,-1506.9828662350774
1710812114040,-1496.4419216839597
1710812114080,-1491.934410143178
1710812114120,-896.4784455583431
1710812114160,-676.0476188659668
1710812114201,-432.708939217031
1710812114241,-94.20100832683966
1710812114281,349.9711394328624
1710812114321,473.17434579040855
1710812114361,473.17434579040855
1710812114402,473.17434579040855
1710812114441,473.17434579040855
1710812114481,473.17434579040855
1710812114521,473.17434579040855
1710812114562,473.17434579040855
1710812114603,473.17434579040855
1710812114642,473.17434579040855
1710812114682,473.17434579040855
1710812114722,473.17434579040855
1710812114762,672.7366230171174
1710812114803,1199.5418841799255
1710812114843,1199.5418841799255
1710812114883,1199.5418841799255
1710812114923,1199.5418841799255
1710812114963,1199.5418841799255
1710812115004,1199.5418841799255
1710812115043,1284.658973397687
1710812115083,1284.658973397687
1710812115123,1284.658973397687
1710812115164,1284.658973397687
1710812115205,1284.658973397687
1710812115244,1284.658973397687
1710812115284,1284.658973397687
1710812115324,1284.658973397687
1710812115364,1284.658973397687
1710812115405,1199.5418841799255
1710812115445,880.3424361865036
1710812115485,880.3424361865036
1710812115525,880.3424361865036
1710812115565,880.3424361865036
1710812115606,880.3424361865036
1710812115645,457.8048917292617
1710812115685,64.30808025225997
1710812115725,-92.42289701430127
1710812115766,-461.6472510583699
1710812115807,-995.7686911639757
1710812115846,-995.7686911639757
1710812115886,-995.7686911639757
1710812115926,-995.7686911639757
1710812115966,-995.7686911639757
1710812116007,-995.7686911639757
1710812116047,-995.7686911639757
1710812116087,-995.7686911639757
1710812116127,-995.7686911639757
1710812116167,-995.7686911639757
1710812116208,-995.7686911639757
1710812116247,-995.7686911639757
1710812116287,-995.7686911639757
1710812116327,-995.7686911639757
1710812116367,-995.7686911639757
1710812116408,-995.7686911639757
1710812116448,-995.7686911639757
1710812116488,-995.7686911639757
1710812116528,-995.7686911639757
1710812116568,-969.4306213073432
1710812116609,-723.2215440366417
1710812116648,-87.88378936308436
1710812116688,-87.88378936308436
1710812116728,-87.88378936308436
1710812116768,-87.88378936308436
1710812116809,-87.88378936308436
1710812116849,-87.88378936308436
1710812116889,-87.88378936308436
1710812116929,-87.88378936308436
1710812116969,-87.88378936308436
1710812117010,-87.88378936308436
1710812117049,-87.88378936308436
1710812117089,-87.88378936308436
1710812117129,-87.88378936308436
1710812117169,-87.88378936308436
1710812117210,-87.88378936308436
1710812117250,-87.88378936308436
1710812117290,-87.88378936308436
1710812117330,-87.88378936308436
1710812117370,-87.88378936308436
1710812117411,355.705921608489
1710812117450,926.4198466595262
1710812117490,1095.8502703313716
1710812117530,1095.8502703313716
1710812117570,1095.8502703313716
1710812117611,1095.8502703313716
1710812117651,1095.8502703313716
1710812117691,1095.8502703313716
1710812117731,1095.8502703313716
1710812117771,1095.8502703313716
1710812117812,1095.8502703313716
1710812117851,355.705921608489
1710812117891,355.705921608489
1710812117931,355.705921608489
1710812117972,517.9568648440763
1710812118012,1862.195648952853
1710812118052,1897.5664515395183
1710812118092,1897.5664515395183
1710812118132,1897.5664515395183
1710812118172,1897.5664515395183
1710812118213,1979.9753093239851
1710812118252,2359.3779135243967
1710812118292,2716.688588393852
1710812118333,2716.688588393852
1710812118373,2716.688588393852
1710812118413,2716.688588393852
1710812118453,2716.688588393852
1710812118493,2716.688588393852
1710812118533,2716.688588393852
1710812118573,2716.688588393852
1710812118614,2716.688588393852
1710812118653,2359.3779135243967
1710812118693,2359.3779135243967
1710812118733,2359.3779135243967
1710812118774,2359.3779135243967
1710812118814,2359.3779135243967
1710812118854,2359.3779135243967
1710812118894,2359.3779135243967
1710812118934,2359.3779135243967
1710812118974,2359.3779135243967
1710812119015,2359.3779135243967
1710812119055,1690.1976971947588
1710812119095,1503.4213992920704
1710812119135,1503.4213992920704
1710812119175,1503.4213992920704
1710812119216,1503.4213992920704
1710812119255,1503.4213992920704
1710812119295,1503.4213992920704
1710812119335,1503.4213992920704
1710812119375,1503.4213992920704
1710812119416,1045.9956180676818
1710812119456,859.4644963536412
1710812119496,547.1100518750027
1710812119536,547.1100518750027
1710812119576,547.1100518750027
1710812119617,547.1100518750027
1710812119657,396.5497941460926
1710812119696,-253.64763324102387
1710812119737,-256.7269031838514
1710812119777,-256.7269031838514
1710812119818,-256.7269031838514
1710812119857,-2013.4750762963668
1710812119897,-4339.795154256746
1710812119937,-4339.795154256746
1710812119977,-4339.795154256746
1710812120018,-4339.795154256746
1710812120058,-4339.795154256746
1710812120098,-4339.795154256746
1710812120138,-4339.795154256746
1710812120178,-4494.304400548106
1710812120219,-4611.1405536555685
1710812120258,-4748.240612751106
1710812120298,-5015.463627803605
1710812120339,-5445.866344724316
1710812120379,-5568.008285192307
1710812120420,-5728.838638054673
1710812120459,-5912.9528258848
1710812120499,-6009.358383706771
1710812120539,-6350.509870265843
1710812120579,-6508.63429521909
1710812120620,-6991.067387625575
1710812120660,-6991.067387625575
1710812120700,-6991.067387625575
1710812120740,-6991.067387625575
1710812120780,-6991.067387625575
1710812120821,-6991.067387625575
1710812120861,-6991.067387625575
1710812120901,-7393.552079036133
1710812120941,-8011.338594672037
1710812120981,-8426.77398560266
1710812121022,-8481.129373486387
1710812121061,-8481.129373486387
1710812121101,-8481.129373486387
1710812121141,-8481.129373486387
1710812121181,-8481.129373486387
1710812121222,-8878.715845713858
1710812121262,-9061.487633106532
1710812121302,-9149.218871194636
1710812121342,-8878.715845713858
1710812121382,-8589.05608247919
1710812121423,-8589.05608247919
1710812121463,-8589.05608247919
1710812121503,-8589.05608247919
1710812121543,-8589.05608247919
1710812121583,-8589.05608247919
1710812121624,-8589.05608247919
1710812121663,-8589.05608247919
1710812121704,-9732.133043386275
1710812121744,-10542.632578323595
1710812121784,-10542.632578323595
1710812121825,-10542.632578323595
1710812121864,-10542.632578323595
1710812121904,-10542.632578323595
1710812121944,-10542.632578323595
1710812121985,-10833.723823378328
1710812122025,-10833.723823378328
1710812122065,-10833.723823378328
1710812122105,-10394.408728721552
1710812122145,-10394.408728721552
1710812122185,-10394.408728721552
1710812122226,-10394.408728721552
1710812122266,-10394.408728721552
1710812122306,-10394.408728721552
1710812122346,-10394.408728721552
1710812122386,-10394.408728721552
1710812122427,-10394.408728721552
1710812122466,-11191.273865307681
1710812122506,-12104.209594712127
1710812122546,-12222.075436961139
1710812122586,-12222.075436961139
1710812122627,-12222.075436961139
1710812122667,-11931.633252497762
1710812122707,-11931.633252497762
1710812122747,-11931.633252497762
1710812122787,-11930.197529728292
1710812122827,-11191.273865307681
1710812122867,-10736.225715653505
1710812122907,-10394.408728721552
1710812122947,-9527.524686241522
1710812122987,-9527.524686241522
1710812123028,-9527.524686241522
1710812123067,-9527.524686241522
1710812123107,-9527.524686241522
1710812123148,-9527.524686241522
1710812123188,-9527.524686241522
1710812123228,-9527.524686241522
1710812123268,-9527.524686241522
1710812123308,-7951.5112736627925
1710812123348,-6841.654382753884
1710812123388,-6841.654382753884
1710812123429,-6703.2828544124495
1710812123468,-5931.607950138161
1710812123508,-5863.681443430949
1710812123549,-5849.374524414772
1710812123589,-5648.356822614092
1710812123629,-5648.356822614092
1710812123669,-5555.283373817569
1710812123709,-5531.358177930582
1710812123749,-4636.617213302758
1710812123789,-4061.9736194023862
1710812123830,-3077.872208690271
1710812123869,-3077.872208690271
1710812123909,-3077.872208690271
1710812123949,-3077.872208690271
1710812123990,-3077.872208690271
1710812124030,-3077.872208690271
1710812124070,-3077.872208690271
1710812124110,-3077.872208690271
1710812124150,-1842.223708835896
1710812124190,-1424.1555432514288
1710812124231,-1074.284236012958
1710812124270,-1045.6936596122105
1710812124310,-257.2673418817576
1710812124351,-245.80250869784504
1710812124390,1408.2527881115675
1710812124431,1516.6862057885155
1710812124471,1874.0587111434434
1710812124511,2991.863212504657
1710812124551,3359.3513685087673
1710812124591,4311.535200882703
1710812124632,4764.573132320773
1710812124671,4928.994086381048
1710812124711,5441.354779789923
1710812124751,5950.681462935638
1710812124792,6017.910891204607
1710812124832,6017.910891204607
1710812124872,7988.368294156622
1710812124912,10309.755817241035
1710812124952,13520.126677683089
1710812124992,14436.974250604399
1710812125033,14562.227396038128
1710812125073,14650.086255519185
1710812125113,14730.377492809203
1710812125153,14730.377492809203
1710812125193,14730.377492809203
1710812125234,14730.377492809203
1710812125273,14730.377492809203
1710812125313,15604.965055925306
1710812125353,15997.332620377187
1710812125393,16268.951041856315
1710812125434,17123.661289399024
1710812125474,17123.661289399024
1710812125514,17123.661289399024
1710812125554,17123.661289399024
1710812125594,17123.661289399024
1710812125635,16453.273429474328
1710812125674,15997.332620377187
1710812125714,15622.793890622444
1710812125754,15604.965055925306
1710812125794,14730.377492809203
1710812125835,14730.377492809203
1710812125875,14730.377492809203
1710812125915,14730.377492809203
1710812125955,14678.263797276188
1710812125995,14453.377818857087
1710812126036,14453.377818857087
1710812126075,14453.377818857087
1710812126115,13189.20653124759
1710812126156,7076.423406604212
1710812126196,2035.1842850551475
1710812126236,-1820.1030495641753
1710812126276,-3463.1972004398704
1710812126316,-3463.1972004398704
1710812126356,-3463.1972004398704
1710812126396,-3463.1972004398704
1710812126437,-3463.1972004398704
1710812126476,-3463.1972004398704
1710812126517,-3463.1972004398704
1710812126557,-3463.1972004398704
1710812126597,-3463.1972004398704
1710812126638,-4113.269938413985
1710812126677,-4437.003889138345
1710812126717,-5176.154340926558
1710812126757,-5176.154340926558
1710812126797,-5176.154340926558
1710812126838,-5375.115961119765
1710812126878,-5375.115961119765
1710812126918,-5375.115961119765
1710812126958,-5375.115961119765
1710812126998,-5375.115961119765
1710812127039,-6172.104885503184
1710812127078,-6172.104885503184
1710812127118,-6172.104885503184
1710812127158,-6172.104885503184
1710812127198,-6172.104885503184
1710812127239,-6172.104885503184
1710812127279,-6172.104885503184
1710812127319,-6172.104885503184
1710812127359,-6172.104885503184
1710812127399,-6172.104885503184
1710812127440,-6172.104885503184
1710812127480,-6143.387713081669
1710812127520,-6143.387713081669
1710812127560,-6143.387713081669
1710812127600,-6143.387713081669
1710812127641,-5135.065167265013
1710812127680,-5135.065167265013
1710812127720,-5135.065167265013
1710812127760,-5135.065167265013
1710812127801,-5135.065167265013
1710812127841,-4939.111256510485
1710812127881,-4854.43231915636
1710812127921,-3504.9647433836944
1710812127961,-3504.9647433836944
1710812128001,-3504.9647433836944
1710812128042,-3504.9647433836944
1710812128081,-3504.9647433836944
1710812128121,-3504.9647433836944
1710812128162,-3504.9647433836944
1710812128202,-3504.9647433836944
1710812128242,-3504.9647433836944
1710812128282,-4939.111256510485
1710812128322,-4939.111256510485
1710812128362,-4939.111256510485
1710812128402,-4415.8430873772595
1710812128443,-3504.9647433836944
1710812128483,-3357.468968681991
1710812128523,-3315.2871136267204
1710812128563,-3293.9212774434127
1710812128603,-3283.3700015982613
1710812128644,-2998.669609165285
1710812128683,-2821.3903860454448
1710812128723,-1936.3308969847858
1710812128764,-1936.3308969847858
1710812128804,-1936.3308969847858
1710812128845,-1936.3308969847858
1710812128884,-1936.3308969847858
1710812128924,-1936.3308969847858
1710812128964,-1936.3308969847858
1710812129004,-2338.2973215787206
1710812129045,-2821.3903860454448
1710812129085,-2821.3903860454448
1710812129125,-2821.3903860454448
1710812129165,-2338.2973215787206
1710812129205,-1952.048725885339
1710812129246,-1936.3308969847858
1710812129285,-1899.8157088833395
1710812129325,-1780.1432019607164
1710812129365,-1592.1560815207195
1710812129405,-936.4280188197736
1710812129446,-596.4589977066498
1710812129486,-56.0123308962211
1710812129526,872.223051528912
1710812129566,872.223051528912
1710812129606,872.223051528912
1710812129647,872.223051528912
1710812129686,872.223051528912
1710812129726,-450.59279396757483
1710812129766,-596.4589977066498
1710812129806,-936.4280188197736
1710812129847,-936.4280188197736
1710812129887,-936.4280188197736
1710812129927,-936.4280188197736
1710812129967,-936.4280188197736
1710812130007,-936.4280188197736
1710812130048,-936.4280188197736
1710812130087,-936.4280188197736
1710812130127,-596.4589977066498
1710812130167,-450.59279396757483
1710812130207,179.32052530604415
1710812130248,179.32052530604415
1710812130288,179.32052530604415
1710812130328,179.32052530604415
1710812130368,179.32052530604415
1710812130408,179.32052530604415
1710812130449,179.32052530604415
1710812130488,179.32052530604415
1710812130528,-450.59279396757483
1710812130568,-1021.8805616931058
1710812130608,-1021.8805616931058
1710812130649,-1021.8805616931058
1710812130689,-1021.8805616931058
1710812130729,-1021.8805616931058
1710812130769,-1021.8805616931058
1710812130809,-1021.8805616931058
1710812130850,-1021.8805616931058
1710812130889,-1021.8805616931058
1710812130929,-1333.3127881207038
1710812130969,-1333.3127881207038
1710812131009,-1333.3127881207038
1710812131050,-1333.3127881207038
1710812131090,-1333.3127881207038
1710812131130,-1333.3127881207038
1710812131170,-1333.3127881207038
1710812131210,-1333.3127881207038
1710812131251,-1333.3127881207038
1710812131290,-1333.3127881207038
1710812131330,-1714.402947100345
1710812131370,-1714.402947100345
1710812131410,-1714.402947100345
1710812131451,-1714.402947100345
1710812131490,-1714.402947100345
1710812131531,-1745.1055389207322
1710812131571,-1745.1055389207322
1710812131611,-1745.1055389207322
1710812131652,-1745.1055389207322
1710812131691,-1745.1055389207322
1710812131731,-1333.3127881207038
1710812131771,-534.0650673620403
1710812131811,-534.0650673620403
1710812131852,-534.0650673620403
1710812131891,-534.0650673620403
1710812131932,-534.0650673620403
1710812131972,-534.0650673620403
1710812132012,-534.0650673620403
1710812132053,-534.0650673620403
1710812132092,-534.0650673620403
1710812132132,-534.0650673620403
1710812132172,-534.0650673620403
1710812132212,-534.0650673620403
1710812132253,-534.0650673620403
1710812132292,-534.0650673620403
1710812132332,-534.0650673620403
1710812132373,-534.0650673620403
1710812132413,-534.0650673620403
1710812132453,-534.0650673620403
1710812132493,-534.0650673620403
1710812132533,-534.0650673620403
1710812132573,-950.268503993284
1710812132613,-950.268503993284
1710812132654,-950.268503993284
1710812132693,-950.268503993284
1710812132733,-950.268503993284
1710812132774,-950.268503993284
1710812132814,-950.268503993284
1710812132854,-950.268503993284
1710812132894,-950.268503993284
1710812132934,-950.268503993284
1710812132974,-965.35091758403
1710812133014,-965.35091758403
1710812133055,-965.35091758403
1710812133094,-965.35091758403
1710812133135,-965.35091758403
1710812133175,-965.35091758403
1710812133215,-950.268503993284
1710812133256,-950.268503993284
1710812133295,-950.268503993284
1710812133335,-950.268503993284
1710812133375,-567.8075020397082
1710812133415,-342.2157497073058
1710812133456,-342.2157497073058
1710812133496,-342.2157497073058
1710812133536,-342.2157497073058
1710812133576,-342.2157497073058
1710812133616,-342.2157497073058
1710812133657,-342.2157497073058
1710812133696,-342.2157497073058
1710812133736,-342.2157497073058
1710812133776,-567.8075020397082
1710812133816,-567.8075020397082
1710812133857,-567.8075020397082
1710812133897,-342.2157497073058
1710812133937,-264.21176747675054
1710812133977,620.1511842003092
1710812134017,939.351954179816
1710812134058,1432.0179040539078
1710812134097,1832.6038525931071
1710812134137,1897.3047184972093
1710812134177,2074.2760328687727
1710812134218,2276.0563415521756
1710812134258,2438.7812042599544
1710812134298,2460.4627598589286
1710812134338,2761.0716818934307
1710812134378,2761.0716818934307
1710812134418,2761.0716818934307
1710812134459,2761.0716818934307
1710812134498,2761.0716818934307
1710812134538,2460.4627598589286
1710812134579,2460.4627598589286
1710812134619,2460.4627598589286
1710812134659,2460.4627598589286
1710812134699,2460.4627598589286
1710812134739,2460.4627598589286
1710812134779,2460.4627598589286
1710812134819,2460.4627598589286
1710812134860,2074.2760328687727
1710812134899,2074.2760328687727
1710812134940,1536.9415493393317
1710812134980,615.3464630781673
1710812135020,615.3464630781673
1710812135061,615.3464630781673
1710812135100,615.3464630781673
1710812135140,615.3464630781673
1710812135180,615.3464630781673
1710812135220,615.3464630781673
1710812135261,615.3464630781673
1710812135301,615.3464630781673
1710812135341,-191.7298664166592
1710812135381,-267.9971182299778
1710812135421,-267.9971182299778
1710812135462,-267.9971182299778
1710812135501,-267.9971182299778
1710812135541,-267.9971182299778
1710812135581,-468.5374076855369
1710812135622,-1149.8403913294896
1710812135663,-1149.8403913294896
1710812135702,-1279.4307878515683
1710812135742,-2371.8401114954613
1710812135782,-2852.4308080733754
1710812135822,-2852.4308080733754
1710812135863,-2852.4308080733754
1710812135903,-2852.4308080733754
1710812135943,-2852.4308080733754
1710812135983,-2852.4308080733754
1710812136023,-2852.4308080733754
1710812136064,-2852.4308080733754
1710812136103,-2852.4308080733754
1710812136143,-3977.8321633646265
1710812136183,-4313.503893681802
1710812136224,-4313.503893681802
1710812136265,-3977.8321633646265
1710812136304,-3819.8438410745002
1710812136344,-2852.4308080733754
1710812136384,-2852.4308080733754
1710812136424,-2852.4308080733754
1710812136465,-2852.4308080733754
1710812136504,-2852.4308080733754
1710812136544,-2780.117947838269
1710812136584,-2689.3038764540106
1710812136625,-2171.6098922546953
1710812136665,-2171.6098922546953
1710812136705,-2171.6098922546953
1710812136745,-2171.6098922546953
1710812136785,-2171.6098922546953
1710812136825,-2171.6098922546953
1710812136866,-2171.6098922546953
1710812136905,-2575.5245662163943
1710812136945,-2689.3038764540106
1710812136985,-2689.3038764540106
1710812137025,-2689.3038764540106
1710812137066,-2689.3038764540106
1710812137106,-2689.3038764540106
1710812137145,-2780.117947838269
1710812137186,-2994.942628401099
1710812137226,-2994.942628401099
1710812137266,-2994.942628401099
1710812137306,-2700.434008768527
1710812137346,-2575.5245662163943
1710812137386,-2575.5245662163943
1710812137426,-2575.5245662163943
1710812137467,-2575.5245662163943
1710812137507,-2575.5245662163943
1710812137547,-2575.5245662163943
1710812137587,-2575.5245662163943
1710812137627,-2700.434008768527
1710812137668,-2914.922968828352
1710812137707,-2994.942628401099
1710812137747,-3440.69843514706
1710812137787,-3440.69843514706
1710812137827,-3440.69843514706
1710812137868,-3440.69843514706
1710812137907,-3440.69843514706
1710812137948,-3558.90840252419
1710812137988,-4251.064821171109
1710812138028,-4266.234258944867
1710812138069,-4636.042022493668
1710812138108,-4636.042022493668
1710812138148,-4636.042022493668
1710812138188,-4636.042022493668
1710812138228,-4636.042022493668
1710812138269,-4636.042022493668
1710812138309,-4636.042022493668
1710812138349,-4636.042022493668
1710812138389,-5518.969217745587
1710812138429,-6467.415932299569
1710812138470,-6582.048982390435
1710812138509,-6714.578725784551
1710812138549,-6714.578725784551
1710812138589,-6714.578725784551
