Timestamp,Cleaned PPG
1711417122748,0.0
1711417122787,0.0
1711417122827,0.0
1711417122867,0.0
1711417122908,0.0
1711417122949,0.0
1711417122988,0.0
1711417123028,0.0
1711417123068,0.0
1711417123108,0.0
1711417123149,0.0
1711417123188,0.0
1711417123228,0.0
1711417123268,0.0
1711417123308,0.0
1711417123349,0.0
1711417123389,0.0
1711417123429,0.0
1711417123469,0.0
1711417123509,0.0
1711417123550,0.0
1711417123589,0.0
1711417123629,0.0
1711417123669,0.0
1711417123709,0.0
1711417123750,0.0
1711417123789,0.0
1711417123829,0.0
1711417123870,0.0
1711417123910,0.0
1711417123953,0.0
1711417123990,0.0
1711417124030,1091087.5312269046
1711417124070,1091087.5312269046
1711417124110,1091087.5312269046
1711417124151,1091087.5312269046
1711417124191,1091087.5312269046
1711417124231,1091087.5312269046
1711417124271,1091087.5312269046
1711417124311,1091087.5312269046
1711417124352,1091087.5312269046
1711417124391,1091087.5312269046
1711417124431,1091087.5312269046
1711417124471,1022720.4617097182
1711417124511,959366.4387299104
1711417124552,899614.9186012929
1711417124592,843497.078174761
1711417124632,790989.1660334712
1711417124672,741250.6398198078
1711417124712,692311.0883364277
1711417124753,646706.1795915123
1711417124792,603294.2002837281
1711417124832,563973.2066788406
1711417124872,527616.1215479658
1711417124912,495163.7175353309
1711417124954,466320.2722368152
1711417124992,439534.06434816075
1711417125033,412098.620362957
1711417125073,384754.0809433316
1711417125113,361368.94429378095
1711417125154,340476.1797193666
1711417125193,321496.95578414365
1711417125233,305902.175919357
1711417125273,295825.93190567754
1711417125314,286925.4325472838
1711417125354,255435.8016079706
1711417125394,246402.9296754694
1711417125434,236558.45796609158
1711417125474,226453.55831091898
1711417125514,217313.40026829462
1711417125555,209233.97323004855
1711417125594,200865.0045615479
1711417125634,191671.73708771332
1711417125675,183829.12216994236
1711417125714,175660.1087009248
1711417125756,168542.93101014337
1711417125795,161233.5252780039
1711417125835,153916.01605467312
1711417125875,147689.72348710545
1711417125915,140247.15239346074
1711417125956,132856.74651663005
1711417125995,127240.6643499597
1711417126035,118865.70337550761
1711417126075,112930.99545895914
1711417126115,105172.121629406
1711417126159,98304.8677597437
1711417126196,92268.42611962231
1711417126236,85634.91119528282
1711417126276,79884.7518770583
1711417126316,79871.10272805672
1711417126357,79292.88170914864
1711417126397,77086.31128520682
1711417126436,76144.59551958577
1711417126476,73409.42913489277
1711417126517,72404.72632708028
1711417126558,70461.22350460268
1711417126597,68323.43548415974
1711417126637,67005.41526892525
1711417126677,63606.57003509253
1711417126717,60216.18491119053
1711417126758,59352.75373108033
1711417126797,56165.981255404186
1711417126837,53693.947590689175
1711417126878,53277.77047698479
1711417126918,51409.09119305527
1711417126959,50103.76677904837
1711417126998,49396.91842526104
1711417127038,47056.21597985225
1711417127078,45897.63631032873
1711417127118,44628.08822752396
1711417127159,44493.39176594466
1711417127198,44108.07730916608
1711417127239,43340.67160683032
1711417127279,42028.44767075777
1711417127319,41585.52391515393
1711417127360,40795.60027422663
1711417127399,39949.46506213024
1711417127439,37966.61272012256
1711417127479,32489.367266273126
1711417127519,27406.837863128632
1711417127560,23606.413664504886
1711417127600,20682.698819879442
1711417127640,18614.183019499294
1711417127680,16231.436126001645
1711417127720,14358.017181087751
1711417127761,13239.721259785816
1711417127800,12012.826432234142
1711417127840,11638.608421364333
1711417127880,11473.872641107999
1711417127920,11396.066461575218
1711417127961,11129.232662494294
1711417128000,11011.607027556747
1711417128041,10953.389581706375
1711417128081,10822.930335399695
1711417128121,10511.187129408121
1711417128162,9710.584946047515
1711417128201,4619.5342577793635
1711417128241,4269.641565808095
1711417128281,3401.6120424843393
1711417128321,1819.2052805176936
1711417128362,1819.2052805176936
1711417128401,1819.2052805176936
1711417128441,1819.2052805176936
1711417128481,1819.2052805176936
1711417128521,1819.2052805176936
1711417128563,1470.9896552301943
1711417128602,1405.81551022036
1711417128642,932.5338756847195
1711417128682,932.5338756847195
1711417128722,932.5338756847195
1711417128763,932.5338756847195
1711417128802,232.7286511482671
1711417128842,136.93320155283436
1711417128882,62.73153824917972
1711417128922,60.59587053768337
1711417128963,-1989.1340178381652
1711417129002,-5970.924467992969
1711417129043,-9091.066914960276
1711417129083,-11618.776849443093
1711417129123,-11618.776849443093
1711417129164,-11618.776849443093
1711417129203,-11618.776849443093
1711417129243,-11618.776849443093
1711417129283,-11618.776849443093
1711417129323,-11618.776849443093
1711417129364,-11840.261793225072
1711417129403,-12826.667972350493
1711417129443,-13472.980335126165
1711417129483,-13629.791553683579
1711417129524,-14325.734054648783
1711417129565,-14567.266015830915
1711417129604,-14684.05903056264
1711417129644,-15068.573575760238
1711417129684,-15068.573575760238
1711417129724,-15068.573575760238
1711417129765,-15427.957067383919
1711417129804,-17727.709711614065
1711417129844,-17727.709711614065
1711417129884,-17727.709711614065
1711417129924,-17727.709711614065
1711417129965,-17727.709711614065
1711417130005,-17727.709711614065
1711417130045,-17727.709711614065
1711417130085,-17727.709711614065
1711417130125,-17727.709711614065
1711417130166,-17727.709711614065
1711417130205,-17727.709711614065
1711417130245,-17727.709711614065
1711417130285,-17727.709711614065
1711417130325,-17727.709711614065
1711417130366,-17640.649260706734
1711417130405,-17242.28916070005
1711417130446,-16906.569889877457
1711417130486,-16542.912693659775
1711417130526,-16073.951119062956
1711417130567,-15756.125366467051
1711417130606,-14950.828533367254
1711417130646,-14236.44061563816
1711417130686,-13091.932167856023
1711417130726,-12827.815616946202
1711417130767,-12827.815616946202
1711417130806,-12827.815616946202
1711417130846,-12827.815616946202
1711417130886,-12827.815616946202
1711417130927,-12827.815616946202
1711417130968,-11360.589124453254
1711417131007,-10135.937752250582
1711417131047,-9749.992324111518
1711417131087,-9626.354482273106
1711417131127,-9475.427076959517
1711417131168,-8891.564194420818
1711417131207,-8338.35988062201
1711417131247,-7684.776394638233
1711417131288,-7586.651534546632
1711417131328,-7486.1092739324085
1711417131369,-6403.056866565254
1711417131408,-6178.081274541095
1711417131448,-5586.065045812633
1711417131488,-4439.3385641817
1711417131528,-4403.672311903909
1711417131569,-3935.3851764095016
1711417131608,-3935.3851764095016
1711417131648,-3935.3851764095016
1711417131689,-3383.4221109640785
1711417131729,-3179.2584158414975
1711417131770,-3179.2584158414975
1711417131809,-2958.4276155750267
1711417131849,-2801.915945187211
1711417131889,-2769.1347604910843
1711417131929,-2504.5326492842287
1711417131970,-2140.32409276627
1711417132009,-1230.1753032091074
1711417132050,-935.9203889621422
1711417132090,-656.4502837480977
1711417132130,-340.5006902231835
1711417132171,834.5796022247523
1711417132210,1062.184710497968
1711417132250,1062.184710497968
1711417132290,1062.184710497968
1711417132330,625.5589209469035
1711417132371,-340.5006902231835
1711417132410,-656.4502837480977
1711417132450,-1230.1753032091074
1711417132491,-1230.1753032091074
1711417132531,-1230.1753032091074
1711417132572,-1230.1753032091074
1711417132611,-1230.1753032091074
1711417132651,-648.8821422662586
1711417132691,-340.5006902231835
1711417132731,625.5589209469035
1711417132772,1062.184710497968
1711417132811,1190.935256806668
1711417132852,2828.7792076678015
1711417132892,3295.641125101596
1711417132932,3295.641125101596
1711417132973,3295.641125101596
1711417133012,3295.641125101596
1711417133052,3295.641125101596
1711417133092,3295.641125101596
1711417133132,3295.641125101596
1711417133173,3295.641125101596
1711417133213,3295.641125101596
1711417133253,3871.510788749438
1711417133293,4237.106513426639
1711417133333,4336.551789530553
1711417133374,4730.070235999301
1711417133413,5009.185828370508
1711417133453,5022.566750444472
1711417133493,5054.706741465256
1711417133533,5717.363395178691
1711417133574,6565.272677135654
1711417133614,6943.530500530265
1711417133654,6943.530500530265
1711417133694,6943.530500530265
1711417133734,6943.530500530265
1711417133775,6943.530500530265
1711417133814,6565.272677135654
1711417133854,5840.966627311893
1711417133894,5717.363395178691
1711417133934,5717.363395178691
1711417133976,5717.363395178691
1711417134015,5717.363395178691
1711417134055,5717.363395178691
1711417134095,5717.363395178691
1711417134135,5717.363395178691
1711417134176,5717.363395178691
1711417134215,5717.363395178691
1711417134255,4023.538244799711
1711417134295,2936.850224925205
1711417134336,2504.6656137960963
1711417134377,2472.1339190285653
1711417134416,2417.7473570108414
1711417134456,2362.0557944788598
1711417134496,2074.082989010494
1711417134536,1641.9695450249128
1711417134577,960.5393705968745
1711417134616,-236.35152865573764
1711417134656,-8474.024459189735
1711417134697,-10213.468406298198
1711417134737,-10213.468406298198
1711417134775,-10213.468406298198
1711417134814,-10213.468406298198
1711417134854,-10213.468406298198
1711417134894,-10213.468406298198
1711417134934,-10213.468406298198
1711417134975,-10213.468406298198
1711417135015,-10213.468406298198
1711417135055,-10213.468406298198
1711417135095,-10213.468406298198
1711417135135,-8224.528333758935
1711417135176,-6505.645101038739
1711417135215,-4462.232381400652
1711417135255,-2233.8454816667363
1711417135296,-540.9560700571164
1711417135336,2142.7633307129145
1711417135377,3347.7610438987613
1711417135416,5209.1253022430465
1711417135456,7405.837656019721
1711417135496,9395.211447458714
1711417135536,11334.71402101405
1711417135577,13247.560960557777
1711417135617,14430.154573870823
1711417135657,15756.194659228437
1711417135697,16728.668080892414
1711417135737,17292.864857981913
1711417135778,18051.718926078174
1711417135817,19602.89213001216
1711417135857,20403.59506424796
1711417135897,20483.77821775619
1711417135937,23010.445993436035
1711417135978,23417.808879846707
1711417136018,23777.325768669136
1711417136058,23829.62095117243
1711417136098,24227.041179504246
1711417136138,24551.521864877082
1711417136179,24800.44127147738
1711417136218,24908.671511670575
1711417136258,25686.2124634278
1711417136298,26309.161888872273
1711417136338,27166.474642279092
1711417136379,27592.030453245156
1711417136418,27731.214746954385
1711417136458,27731.214746954385
1711417136499,27731.214746954385
1711417136538,27731.214746954385
1711417136580,27731.214746954385
1711417136619,27731.214746954385
1711417136659,27731.214746954385
1711417136699,27731.214746954385
1711417136739,27731.214746954385
1711417136780,27731.214746954385
1711417136819,27731.214746954385
1711417136859,27457.93172995001
1711417136899,27412.751151230186
1711417136939,27412.751151230186
1711417136981,27412.751151230186
1711417137020,27369.60710611334
1711417137060,27026.026733917184
1711417137100,26970.002500222996
1711417137140,26706.045244729146
1711417137181,26515.932700230274
1711417137220,26136.783505121246
1711417137260,26119.95815575123
1711417137300,25560.55338693969
1711417137340,25380.784530691803
1711417137381,25333.15747915767
1711417137420,25300.76766236499
1711417137461,24714.471372211818
1711417137501,22403.20725208521
1711417137541,20868.002817668486
1711417137581,19879.04552829312
1711417137621,18395.83823603019
1711417137661,17441.13117712317
1711417137701,17220.335685029626
1711417137741,17193.883287162054
1711417137782,17177.488840654958
1711417137821,17137.897299341857
1711417137861,17047.03270425368
1711417137901,17020.682306426577
1711417137941,16977.58412326593
1711417137982,16944.293695488945
1711417138022,16837.98548100423
1711417138062,16662.241205926985
1711417138102,16252.429047878366
1711417138142,12942.5419951058
1711417138183,9183.401595227886
1711417138222,5612.909476270899
1711417138262,3314.870577563066
1711417138302,2028.4917494254187
1711417138342,1274.9824290852994
1711417138383,-96.52683675708249
1711417138423,-96.52683675708249
1711417138462,-330.1270187823102
1711417138503,-447.1871246867813
1711417138543,-852.8550090072677
1711417138583,-1195.0506421104074
1711417138623,-1520.631670572795
1711417138663,-1555.6966218003072
1711417138703,-1915.4132976830006
1711417138743,-2051.613082337193
1711417138784,-2120.1839434867725
1711417138823,-2165.389933423139
1711417138863,-2501.8815041133203
1711417138904,-5017.657161866315
1711417138944,-10145.36738181347
1711417138984,-13889.413697873242
1711417139024,-17183.78607911337
1711417139064,-19126.913593317848
1711417139104,-19983.263962845784
1711417139144,-21396.165469131898
1711417139185,-21421.795163734816
1711417139224,-22521.5401934837
1711417139264,-22800.729601051193
1711417139304,-23081.524585131556
1711417139345,-23756.413268504664
1711417139385,-24035.01257410366
1711417139425,-24656.532292192802
1711417139465,-24980.07942746114
1711417139505,-25278.973382339813
1711417139545,-25848.666840412654
1711417139586,-25880.78746364126
1711417139625,-27855.200803505257
1711417139665,-33340.993273173925
1711417139705,-37438.520581095945
1711417139746,-37993.04560435796
1711417139786,-37993.04560435796
1711417139826,-37993.04560435796
1711417139866,-37993.04560435796
1711417139906,-37993.04560435796
1711417139946,-39331.06715353113
1711417139987,-39778.20058752084
1711417140026,-40472.52200331818
1711417140066,-40700.28819514625
1711417140106,-40975.72201589774
1711417140146,-41499.48236880638
1711417140187,-41592.367574672215
1711417140227,-42338.6034150091
1711417140267,-42599.35415197071
1711417140307,-42845.98451140523
1711417140347,-43997.47504570754
1711417140388,-46419.266719965264
1711417140427,-46419.266719965264
1711417140467,-46419.266719965264
1711417140507,-46419.266719965264
1711417140547,-46419.266719965264
1711417140588,-46419.266719965264
1711417140628,-46419.266719965264
1711417140668,-46419.266719965264
1711417140708,-48259.41056153225
1711417140748,-49123.794959678315
1711417140789,-49142.33735699952
1711417140828,-50301.144698156044
1711417140868,-50234.38794570975
1711417140908,-49497.14380218764
1711417140948,-49142.33735699952
1711417140989,-48509.469343247125
1711417141028,-48259.41056153225
1711417141069,-46419.266719965264
1711417141109,-44282.83987288363
1711417141149,-43870.55039363727
1711417141190,-43651.1316434592
1711417141229,-42530.747234810144
1711417141269,-41477.84509868338
1711417141309,-40282.98564621806
1711417141349,-39058.5571666793
1711417141390,-39058.5571666793
1711417141429,-39058.5571666793
1711417141469,-39058.5571666793
1711417141510,-36532.27550976537
1711417141550,-33364.09212356992
1711417141590,-30308.291317534633
1711417141630,-29882.04765836289
1711417141670,-29439.828972600633
1711417141710,-28679.818490262376
1711417141750,-27833.487032112665
1711417141791,-27333.109550468624
1711417141830,-27053.16110773431
1711417141870,-26949.389125542715
1711417141911,-25992.26098168455
1711417141951,-24469.237982016988
1711417141992,-24205.16401772108
1711417142031,-23678.024677699897
1711417142071,-21624.654615483712
1711417142111,-21007.277806740254
1711417142151,-21007.277806740254
1711417142192,-19467.79100956954
1711417142231,-18985.540347851347
1711417142272,-18602.043216395658
1711417142312,-17214.80597672751
1711417142352,-14737.678353647701
1711417142393,-10971.844615695532
1711417142432,-9434.546940313652
1711417142472,-8677.281010637525
1711417142512,-8124.898732286412
1711417142552,-8089.031534067355
1711417142593,-7727.984615986235
1711417142633,-7419.926284366287
1711417142673,-6234.399430276826
1711417142713,-4818.315136505524
1711417142753,-4769.729349188972
1711417142794,-3753.8727726463694
1711417142833,-1590.034715576563
1711417142873,-1167.4405119407456
1711417142913,-801.5749860347714
1711417142953,-476.43621997418813
1711417142994,3437.0070807691664
1711417143034,6571.990899966564
1711417143074,8466.039987117983
1711417143114,9780.7181893636
1711417143154,11581.569435792975
1711417143195,14605.480273436755
1711417143234,16907.60441589635
1711417143274,19237.106503369985
1711417143314,19648.854644251755
1711417143355,20688.417380939005
1711417143395,20930.12926382292
1711417143435,21733.422710940707
1711417143475,21957.913938733516
1711417143515,23783.429887332488
1711417143555,25903.91075205896
1711417143596,27938.87560225022
1711417143635,29350.508643498644
1711417143675,30476.14928123122
1711417143716,32294.756233762484
1711417143756,32858.173785224324
1711417143796,32893.873152497225
1711417143836,32893.873152497225
1711417143876,32893.873152497225
1711417143916,32893.873152497225
1711417143956,32893.873152497225
1711417143997,32893.873152497225
1711417144036,32893.873152497225
1711417144077,32893.873152497225
1711417144117,32893.873152497225
1711417144157,33111.773090144154
1711417144198,33617.03207292664
1711417144237,33871.40747343656
1711417144277,34898.335346398875
1711417144317,35045.44855370512
1711417144357,35045.44855370512
1711417144398,35045.44855370512
1711417144438,35045.44855370512
1711417144478,35045.44855370512
1711417144518,35045.44855370512
1711417144558,35045.44855370512
1711417144598,36574.45886418666
1711417144638,36928.832396916114
1711417144678,37297.899256775156
1711417144718,38275.32525568316
1711417144758,39787.06029383186
1711417144799,40962.862939383835
1711417144838,42149.79814921226
1711417144878,42498.22391024651
1711417144918,43040.51799550885
1711417144958,43108.78214032296
1711417144999,43518.43009591848
1711417145039,44301.45361015294
1711417145078,44301.45361015294
1711417145118,44301.45361015294
1711417145159,44301.45361015294
1711417145199,44301.45361015294
1711417145239,44301.45361015294
1711417145279,44301.45361015294
1711417145319,44301.45361015294
1711417145359,44301.45361015294
1711417145400,44174.86466971878
1711417145439,44174.86466971878
1711417145479,44174.86466971878
1711417145519,42465.55977203604
1711417145559,41736.91426857514
1711417145600,41508.80317815952
1711417145640,41096.09486013604
1711417145680,40825.61451447569
1711417145720,40798.25350618269
1711417145760,40798.25350618269
1711417145801,40178.42630947102
1711417145840,40150.72175789205
1711417145880,40108.55232424429
1711417145920,40108.55232424429
1711417145960,39680.21423326433
1711417146001,39296.198540412355
1711417146040,39197.83678394975
1711417146080,38658.576968531124
1711417146121,37942.67426741123
1711417146161,37812.70722611062
1711417146201,37311.8964867387
1711417146241,36314.98040524591
1711417146281,35487.04642479308
1711417146321,33758.45228477195
1711417146361,32740.66391127743
1711417146402,32740.66391127743
1711417146441,32740.66391127743
1711417146481,32740.66391127743
1711417146521,32740.66391127743
1711417146561,32740.66391127743
1711417146602,32577.415764727164
1711417146641,31449.56419086829
1711417146681,31182.641046627425
1711417146722,29261.91119292658
1711417146762,28665.45993327163
1711417146800,28040.742566511966
1711417146840,25413.815877947956
1711417146880,25413.815877947956
1711417146920,25413.815877947956
1711417146960,28040.742566511966
1711417147001,28640.714476358145
1711417147040,28665.45993327163
1711417147080,29856.1921998905
1711417147120,29856.1921998905
1711417147160,29856.1921998905
1711417147201,29856.1921998905
1711417147241,28900.55208268203
1711417147281,28900.55208268203
1711417147321,28900.55208268203
1711417147361,28900.55208268203
1711417147402,28900.55208268203
1711417147441,28900.55208268203
1711417147481,29856.1921998905
1711417147521,30050.574371714145
1711417147561,30402.49513587635
1711417147602,30793.67096361937
1711417147641,30793.67096361937
1711417147682,30793.67096361937
1711417147722,30793.67096361937
1711417147762,30793.67096361937
1711417147803,30793.67096361937
1711417147842,30402.49513587635
1711417147882,30402.49513587635
1711417147922,30402.49513587635
1711417147962,30402.49513587635
1711417148003,29859.280674124137
1711417148042,28092.023198295385
1711417148082,26408.422931928653
1711417148122,22934.16661683796
1711417148163,20700.897551295348
1711417148203,18459.839690335095
1711417148243,17774.786023036577
1711417148283,16655.6897267662
1711417148323,16460.53004138451
1711417148363,14896.73745108582
1711417148404,12761.416240148246
1711417148443,11785.965906902216
1711417148483,10567.974619714543
1711417148523,10351.000446503982
1711417148563,10305.291144480929
1711417148604,9595.900321394205
1711417148644,9082.659913440235
1711417148684,8924.722387051675
1711417148724,8788.156924230978
1711417148764,8453.096973548178
1711417148805,8362.630393568426
1711417148844,8236.018310179003
1711417148884,8236.018310179003
1711417148924,8212.13532167254
1711417148964,8153.166480189655
1711417149005,8138.2538544139825
1711417149045,8138.2538544139825
1711417149085,8153.166480189655
1711417149125,8212.13532167254
1711417149165,8236.018310179003
1711417149205,8236.018310179003
1711417149245,8236.018310179003
1711417149285,8310.315677911509
1711417149325,8362.630393568426
1711417149365,8453.096973548178
1711417149406,8788.156924230978
1711417149445,8814.144708449021
1711417149486,8814.144708449021
1711417149526,13189.167847653385
1711417149566,14591.904972354881
1711417149606,14591.904972354881
1711417149646,14591.904972354881
1711417149686,14591.904972354881
1711417149726,14591.904972354881
1711417149766,14591.904972354881
1711417149807,14591.904972354881
1711417149846,14591.904972354881
1711417149886,14591.904972354881
1711417149926,14591.904972354881
1711417149967,14591.904972354881
1711417150007,12810.153016671538
1711417150047,10825.687663855497
1711417150087,10465.00025306549
1711417150127,10101.967143692542
1711417150167,10062.89053683076
1711417150208,9896.073244468309
1711417150247,9896.073244468309
1711417150287,9896.073244468309
1711417150328,9768.473245441448
1711417150368,9750.135772979818
1711417150408,9708.76467016153
1711417150448,9484.99202658562
1711417150488,9264.38845020812
1711417150528,9014.836391540244
1711417150568,8582.505864284001
1711417150609,8435.514730287716
1711417150648,7761.58553518448
1711417150688,6907.296606312972
1711417150728,6907.296606312972
1711417150768,6506.736331249587
1711417150809,2921.0644432585686
1711417150849,2921.0644432585686
1711417150889,2921.0644432585686
1711417150929,2921.0644432585686
1711417150969,2682.073497771751
1711417151010,2033.9779106695205
1711417151049,1353.9831311963499
1711417151089,1096.0148684233427
1711417151129,1088.7117383833975
1711417151169,778.273603444919
1711417151210,653.8152043693699
1711417151250,647.2160800606944
1711417151290,584.7580306511372
1711417151330,483.46866725059226
1711417151370,-354.9968720539473
1711417151411,-4433.886990400497
1711417151450,-7762.552115493454
1711417151490,-7762.552115493454
1711417151531,-7762.552115493454
1711417151570,-7762.552115493454
1711417151611,-7762.552115493454
1711417151651,-7762.552115493454
1711417151691,-9495.093378123362
1711417151731,-9871.329856727272
1711417151771,-9930.224367939867
1711417151812,-10214.616837959737
1711417151851,-10307.374660253525
1711417151891,-10725.45325271599
1711417151931,-10763.80448153615
1711417151972,-11819.234554531984
1711417152012,-11872.694250092842
1711417152052,-12165.340417037252
1711417152092,-12218.06651377678
1711417152132,-12218.06651377678
1711417152172,-12218.06651377678
1711417152213,-12218.06651377678
1711417152252,-12218.06651377678
1711417152292,-12218.06651377678
1711417152332,-12218.06651377678
1711417152373,-12218.06651377678
1711417152413,-12218.06651377678
1711417152453,-13011.254630227573
1711417152493,-13595.371344302315
1711417152533,-15244.679915965069
1711417152573,-15244.679915965069
1711417152614,-15165.7906534723
1711417152654,-15165.7906534723
1711417152694,-15165.7906534723
1711417152734,-15165.7906534723
1711417152774,-15165.7906534723
1711417152815,-13595.371344302315
1711417152854,-13398.24056380894
1711417152894,-13011.254630227573
1711417152934,-11802.188174874522
1711417152975,-11802.188174874522
1711417153015,-11802.188174874522
1711417153055,-11802.188174874522
1711417153095,-11802.188174874522
1711417153135,-11802.188174874522
1711417153175,-11802.188174874522
1711417153216,-11847.508082991466
1711417153255,-12619.58014431037
1711417153295,-11847.508082991466
1711417153335,-11802.188174874522
1711417153375,-11387.26823150646
1711417153416,-10818.290545933414
1711417153456,-10690.375971339643
1711417153496,-10493.74579850724
1711417153536,-10377.534786180593
1711417153576,-10219.531705704518
1711417153617,-9912.916559977457
1711417153656,-9421.656164278276
1711417153696,-8801.153443256859
1711417153736,-7881.932866109535
1711417153776,-7401.357044836041
1711417153817,-6730.874130685348
1711417153856,-6730.874130685348
1711417153896,-6730.874130685348
1711417153937,-6730.874130685348
1711417153976,-6365.839923823252
1711417154017,-6301.311342913192
1711417154057,-6291.390794710256
1711417154097,-6291.390794710256
1711417154137,-6291.390794710256
1711417154177,-6291.390794710256
1711417154218,-6288.866063692141
1711417154257,-6176.822478981689
1711417154297,-5994.986138033681
1711417154337,-4505.358083192259
1711417154377,-4492.145235873293
1711417154418,-4492.145235873293
1711417154457,-4492.145235873293
1711417154497,-4492.145235873293
1711417154538,-4492.145235873293
1711417154578,-4505.358083192259
1711417154618,-5994.986138033681
1711417154658,-6176.822478981689
1711417154698,-6256.65471885819
1711417154738,-6256.65471885819
1711417154778,-6256.65471885819
1711417154819,-6256.65471885819
1711417154858,-6288.866063692141
1711417154898,-6855.222996082157
1711417154938,-6855.222996082157
1711417154978,-6855.222996082157
1711417155019,-9401.564939559903
1711417155058,-9401.564939559903
1711417155099,-9401.564939559903
1711417155139,-9401.564939559903
1711417155179,-9401.564939559903
1711417155219,-9401.564939559903
1711417155259,-9401.564939559903
1711417155299,-9404.219900754746
1711417155339,-10011.533841628116
1711417155379,-10947.000910646282
1711417155420,-11292.358571946155
1711417155459,-11419.443933334667
1711417155500,-11292.358571946155
1711417155540,-11292.358571946155
1711417155580,-11292.358571946155
1711417155621,-11292.358571946155
1711417155660,-11107.605273725
1711417155700,-11107.605273725
1711417155740,-10683.056716037914
1711417155780,-9587.085332849994
1711417155821,-9404.219900754746
1711417155860,-9404.219900754746
1711417155900,-9404.219900754746
1711417155940,-9404.219900754746
1711417155981,-9404.219900754746
1711417156021,-9587.085332849994
1711417156061,-10683.056716037914
1711417156101,-11107.605273725
1711417156141,-11419.443933334667
1711417156181,-11419.443933334667
1711417156222,-11419.443933334667
1711417156261,-11419.443933334667
1711417156301,-11857.727773155551
1711417156341,-12551.436302683316
1711417156381,-13039.44418972265
1711417156422,-15351.248616355006
1711417156462,-24423.752081976272
1711417156502,-31809.97988314554
1711417156542,-36140.74502547039
1711417156582,-40402.29858744098
1711417156623,-44148.601656017825
1711417156662,-44148.601656017825
1711417156702,-44148.601656017825
1711417156742,-44148.601656017825
1711417156782,-44148.601656017825
1711417156823,-44148.601656017825
1711417156862,-44148.601656017825
1711417156902,-44148.601656017825
1711417156943,-44148.601656017825
1711417156983,-44148.601656017825
1711417157023,-44148.601656017825
1711417157063,-43102.171921232715
1711417157103,-39607.78979567997
1711417157143,-37403.98713891115
1711417157183,-34203.0543474108
1711417157224,-33060.535723542795
1711417157263,-32876.01333799912
1711417157303,-32819.40641427273
1711417157343,-32404.71334661916
1711417157384,-32162.115982234478
1711417157424,-31982.18667296786
1711417157464,-31453.485481338575
1711417157504,-31113.249269526452
1711417157544,-31040.10285037849
1711417157584,-30726.333798538893
1711417157625,-30726.333798538893
1711417157664,-30726.333798538893
1711417157704,-30726.333798538893
1711417157744,-29255.11667024996
1711417157785,-29050.88450271869
1711417157825,-23038.6153072156
1711417157865,-21879.499690762255
1711417157905,-21879.499690762255
1711417157945,-21879.499690762255
1711417157985,-21879.499690762255
1711417158026,-21879.499690762255
1711417158065,-21879.499690762255
1711417158105,-21879.499690762255
1711417158145,-21879.499690762255
1711417158185,-33718.02219451172
1711417158226,-43336.533608838916
1711417158266,-43336.533608838916
1711417158306,-43336.533608838916
1711417158346,-43336.533608838916
1711417158386,-43336.533608838916
1711417158427,-43430.53542007739
1711417158466,-43601.03217151249
1711417158506,-43601.03217151249
1711417158546,-43601.03217151249
1711417158586,-44036.85634382209
1711417158627,-45756.94667128101
1711417158667,-51024.88699614443
1711417158707,-51098.50775345508
1711417158747,-51098.50775345508
1711417158787,-51098.50775345508
1711417158829,-51098.50775345508
1711417158868,-51877.140784794
1711417158908,-58738.10485428199
1711417158948,-60323.196136591025
1711417158989,-62725.571590044536
1711417159029,-67397.39194832905
1711417159069,-69183.22359512933
1711417159109,-75240.17781801056
1711417159149,-84523.9826171915
1711417159189,-84523.9826171915
1711417159230,-84523.9826171915
1711417159269,-84523.9826171915
1711417159309,-84523.9826171915
1711417159350,-84523.9826171915
1711417159390,-84523.9826171915
1711417159430,-84523.9826171915
1711417159470,-84523.9826171915
1711417159510,-67397.39194832905
1711417159550,-60323.196136591025
1711417159590,-56533.409570550546
1711417159631,-55814.194380096626
1711417159670,-54946.89130622684
1711417159711,-53953.22132277186
1711417159751,-52380.490382710705
1711417159791,-52197.38272253494
1711417159832,-50173.77561365673
1711417159871,-48222.17981409491
1711417159911,-43019.536642500665
1711417159951,-42818.73789325636
1711417159991,-42818.73789325636
1711417160032,-43019.536642500665
1711417160072,-48222.17981409491
1711417160112,-50173.77561365673
1711417160152,-50173.77561365673
1711417160192,-52197.38272253494
1711417160233,-52197.38272253494
1711417160272,-52197.38272253494
1711417160312,-52197.38272253494
1711417160352,-48355.77819448663
1711417160392,-48222.17981409491
1711417160433,-45798.31659350498
1711417160473,-45798.31659350498
1711417160513,-45798.31659350498
1711417160553,-45798.31659350498
1711417160593,-45798.31659350498
1711417160634,-45798.31659350498
1711417160674,-45798.31659350498
1711417160714,-45798.31659350498
1711417160754,-45798.31659350498
1711417160794,-45798.31659350498
1711417160835,-41994.46861940087
1711417160874,-36371.89835137082
1711417160914,-30797.509874948068
1711417160954,-26293.934101113584
1711417160994,-25948.66680750018
1711417161035,-25135.31436633924
1711417161075,-23885.45494803274
1711417161115,-23409.58041905053
1711417161155,-23013.093699432444
1711417161195,-22273.893576912582
1711417161236,-22171.471745602554
1711417161276,-21447.730304732686
1711417161316,-20571.086605825927
1711417161356,-20571.086605825927
1711417161396,-20571.086605825927
1711417161437,-21447.730304732686
1711417161476,-22171.471745602554
1711417161516,-22273.893576912582
1711417161556,-22692.025846107863
1711417161596,-22692.025846107863
1711417161637,-23013.093699432444
1711417161676,-23013.093699432444
1711417161716,-22692.025846107863
1711417161757,-21447.730304732686
1711417161797,-18891.38128023059
1711417161837,-16559.19049654086
1711417161877,-16559.19049654086
1711417161917,-18891.38128023059
1711417161957,-22692.025846107863
1711417161997,-26789.156054675346
1711417162038,-26958.661398895085
1711417162077,-30056.81317317323
1711417162117,-30056.81317317323
1711417162157,-30056.81317317323
1711417162197,-30056.81317317323
1711417162238,-28417.647638686467
1711417162277,-26958.661398895085
1711417162318,-26789.156054675346
1711417162358,-24493.33506892086
1711417162398,-23054.059637209866
1711417162439,-21152.65852125408
1711417162478,-18395.45405309717
1711417162518,-18086.07978809881
1711417162558,-18086.07978809881
1711417162598,-18086.07978809881
1711417162639,-18086.07978809881
1711417162678,-18086.07978809881
1711417162718,-18086.07978809881
1711417162758,-13519.634268458467
1711417162798,-6223.274079637369
1711417162839,-4505.274479625979
1711417162879,28.43299531005323
1711417162919,1372.0800470500253
1711417162959,1789.4031489004847
1711417162999,2433.3656154184137
1711417163040,2943.8445498780347
1711417163079,3066.213245818857
1711417163119,4691.912113562692
1711417163159,5276.325705483556
1711417163199,5985.481291461736
1711417163240,6024.99513920187
1711417163280,6646.572242642287
1711417163320,8241.926042561885
1711417163360,9317.491510653403
1711417163400,9317.491510653403
1711417163441,9317.491510653403
1711417163480,8241.926042561885
1711417163520,6947.939249572344
1711417163560,6646.572242642287
1711417163600,6548.521703957114
1711417163641,6548.521703957114
1711417163681,6646.572242642287
1711417163720,6943.927262951853
1711417163761,6943.927262951853
1711417163801,6947.939249572344
1711417163841,7680.613258093363
1711417163881,9476.45082268957
1711417163921,9632.892442360753
1711417163961,10197.01872526668
1711417164001,10926.909531665733
1711417164042,10197.01872526668
1711417164081,9632.892442360753
1711417164121,9576.576431618072
1711417164162,7965.5475829395
1711417164202,7965.5475829395
1711417164242,8044.886927757412
1711417164282,8721.704601129284
1711417164322,9107.835290445015
1711417164362,9576.576431618072
1711417164402,9632.892442360753
1711417164443,9961.134524644352
1711417164482,10926.909531665733
1711417164523,11160.889489982044
1711417164562,11172.201848150464
1711417164603,12843.183555033058
1711417164644,12861.879569878802
1711417164683,12861.879569878802
1711417164723,11172.201848150464
1711417164763,11160.889489982044
1711417164803,10718.558966990793
1711417164844,9961.134524644352
1711417164883,9961.134524644352
1711417164923,10233.789716421394
1711417164963,10718.558966990793
1711417165004,11160.889489982044
1711417165044,11210.561511555221
1711417165084,12861.879569878802
1711417165124,12974.865744862007
1711417165164,13053.603038896108
1711417165204,14118.87043943652
1711417165245,15051.17609317042
1711417165284,16117.95547966985
1711417165324,16117.95547966985
1711417165365,16117.95547966985
1711417165405,16117.95547966985
1711417165445,15571.982263312908
1711417165485,15051.17609317042
1711417165525,15051.17609317042
1711417165565,15344.43526548543
1711417165605,15344.43526548543
1711417165646,15344.43526548543
1711417165685,15344.43526548543
1711417165726,15571.982263312908
1711417165765,16692.163145710714
1711417165806,16692.163145710714
1711417165847,16751.37393054692
1711417165886,17304.607101195026
1711417165926,18076.06149848085
1711417165966,18076.06149848085
1711417166006,18076.06149848085
1711417166047,18076.06149848085
1711417166086,18076.06149848085
1711417166126,17304.607101195026
1711417166166,16692.163145710714
1711417166207,16344.599677332677
1711417166247,15899.779201039113
1711417166287,15899.779201039113
1711417166327,15899.779201039113
1711417166367,15899.779201039113
1711417166407,15899.779201039113
1711417166448,15899.779201039113
1711417166487,15899.779201039113
1711417166527,15899.779201039113
1711417166568,15443.733764161356
1711417166608,15163.282215971965
1711417166648,15443.733764161356
1711417166688,15443.733764161356
1711417166728,15443.733764161356
1711417166768,15443.733764161356
1711417166808,15113.059683647472
1711417166849,15001.927086016862
1711417166889,14990.439928342821
1711417166929,14370.187658922048
1711417166969,13984.495692063589
1711417167009,13326.030854481272
1711417167050,13259.023835392902
1711417167089,12648.936051653931
1711417167129,12599.704904661281
1711417167169,12379.22556105
1711417167209,12379.22556105
1711417167250,12648.936051653931
1711417167290,13052.450237801531
1711417167330,13984.495692063589
1711417167370,14990.439928342821
1711417167410,15001.927086016862
1711417167451,15001.927086016862
1711417167490,15001.927086016862
1711417167530,15001.927086016862
1711417167570,15001.927086016862
1711417167610,15001.927086016862
1711417167651,16152.7938157178
1711417167691,17037.157452870626
1711417167731,17037.157452870626
1711417167771,17037.157452870626
1711417167811,17037.157452870626
1711417167852,17262.134327540407
1711417167891,17262.134327540407
1711417167931,17262.134327540407
1711417167971,17262.134327540407
1711417168012,17262.134327540407
1711417168052,17262.134327540407
1711417168092,17380.148560140748
1711417168132,18922.819129273994
1711417168172,19454.356666590553
1711417168212,19903.829019647557
1711417168253,19903.829019647557
1711417168292,19903.829019647557
1711417168332,19903.829019647557
1711417168373,19903.829019647557
1711417168413,19903.829019647557
1711417168453,19903.829019647557
1711417168493,19903.829019647557
1711417168533,20408.981151544023
1711417168573,21537.151259860955
1711417168613,21542.020575847477
1711417168654,22930.778335682116
1711417168693,23174.06840000162
1711417168734,23174.06840000162
1711417168774,23174.06840000162
1711417168814,23174.06840000162
1711417168855,23174.06840000162
1711417168894,23174.06840000162
1711417168934,23174.06840000162
1711417168974,23174.06840000162
1711417169014,23174.06840000162
1711417169055,24008.290017815772
1711417169095,24008.290017815772
1711417169135,23174.06840000162
1711417169175,23063.80982388882
1711417169215,22354.403567638714
1711417169256,21584.5474377668
1711417169295,21349.51169098215
1711417169335,21125.321931639453
1711417169375,21008.57695348421
1711417169415,20691.318636420183
1711417169456,20535.65329509275
1711417169496,20247.47855507233
1711417169536,15378.642361917999
1711417169576,15231.632795401383
1711417169616,14999.241403622087
1711417169657,14558.093516788213
1711417169696,14287.32244233787
1711417169736,14109.23328641057
1711417169776,14086.68437983701
1711417169816,13700.596321813297
1711417169857,13404.433942486066
1711417169896,13196.249759627972
1711417169937,12938.530093624024
1711417169977,12601.0779040989
1711417170017,12445.74646752514
1711417170057,12218.663840359775
1711417170097,11627.871482189279
1711417170137,11440.104462760035
1711417170177,10758.649090000894
1711417170217,8852.597074491903
1711417170258,7166.451531669125
1711417170297,7166.451531669125
1711417170337,7095.156110463198
1711417170377,7095.156110463198
1711417170417,7095.156110463198
1711417170458,7095.156110463198
1711417170498,6970.541574008297
1711417170538,6863.137020695489
1711417170578,6583.540579402819
1711417170618,6478.902363441419
1711417170659,6285.106448544655
1711417170698,6244.523160544224
1711417170738,6190.665520531358
1711417170778,5989.522515666205
1711417170818,5801.804754388286
1711417170859,5750.3508111382835
1711417170899,5715.134975585854
1711417170938,2849.7428462186363
1711417170979,2849.7428462186363
1711417171019,2849.7428462186363
1711417171060,2849.7428462186363
1711417171099,2849.7428462186363
1711417171139,2849.7428462186363
1711417171179,2849.7428462186363
1711417171219,2743.4412993700244
1711417171260,2462.2091763252392
1711417171299,2092.111401140224
1711417171340,1756.151367121609
1711417171380,1756.151367121609
1711417171420,1205.2455432608258
1711417171460,1205.2455432608258
1711417171500,1205.2455432608258
1711417171540,1205.2455432608258
1711417171580,1153.2904065696057
1711417171620,1205.2455432608258
1711417171661,1741.4349067232106
1711417171700,2462.2091763252392
1711417171741,2743.4412993700244
1711417171780,2743.4412993700244
1711417171821,2743.4412993700244
1711417171862,2743.4412993700244
1711417171901,1952.5137455400545
1711417171941,1741.4349067232106
1711417171981,1205.2455432608258
1711417172021,1153.2904065696057
1711417172062,1043.8626870871522
1711417172101,1043.8626870871522
1711417172141,813.5910933744162
1711417172181,576.1988991519902
1711417172222,395.9724851087667
1711417172262,395.9724851087667
1711417172302,395.9724851087667
1711417172342,1741.4349067232106
1711417172382,1952.5137455400545
1711417172422,3848.371053596027
1711417172463,4567.736942705698
1711417172502,4567.736942705698
1711417172542,4567.736942705698
1711417172583,4567.736942705698
1711417172623,4567.736942705698
1711417172663,4567.736942705698
1711417172703,8311.121395648923
1711417172743,10501.528817696963
1711417172783,12298.767886578105
1711417172823,12298.767886578105
1711417172864,12298.767886578105
1711417172903,12298.767886578105
1711417172943,12298.767886578105
1711417172983,12298.767886578105
1711417173023,12298.767886578105
1711417173064,12298.767886578105
1711417173104,12298.767886578105
1711417173144,12298.767886578105
1711417173184,12298.767886578105
1711417173224,10903.551459373208
1711417173265,10625.660865140148
1711417173304,9590.74343924364
1711417173344,9186.73675604444
1711417173384,7669.470098212361
1711417173425,6604.836128903553
1711417173465,6488.3924743065145
1711417173505,6425.888961896766
1711417173545,5750.362857409986
1711417173585,4474.948483031709
1711417173625,4116.293616993353
1711417173666,3704.7674253771547
1711417173705,2863.888797237538
1711417173745,2666.7207261126023
1711417173785,692.9687513627578
1711417173825,548.1379816774279
1711417173866,-428.6225589849055
1711417173906,-428.6225589849055
1711417173946,-1114.5934829206672
1711417173986,-1114.5934829206672
1711417174026,-1114.5934829206672
1711417174067,-1114.5934829206672
1711417174106,-1114.5934829206672
1711417174146,-1114.5934829206672
1711417174186,-1114.5934829206672
1711417174226,-1114.5934829206672
1711417174267,-1167.8537266887724
1711417174307,-1342.7244291123934
1711417174347,-1389.873419579817
1711417174387,-1417.03611414833
1711417174427,-1417.03611414833
1711417174468,-1501.5014375972096
1711417174507,-1501.5014375972096
1711417174547,-1417.03611414833
1711417174587,-1389.873419579817
1711417174628,-1114.5934829206672
1711417174668,-1008.8247048589401
1711417174708,-163.55824132845737
1711417174748,-147.2783932313323
1711417174788,741.7581086179707
1711417174828,1063.2654674572404
1711417174869,1063.2654674572404
1711417174908,1063.2654674572404
1711417174948,1063.2654674572404
1711417174989,1063.2654674572404
1711417175029,2716.883756375173
1711417175070,4128.70720898849
1711417175109,5170.634211624507
1711417175149,5400.740171412472
1711417175189,5630.163871515542
1711417175230,5636.040386295877
1711417175270,5746.217517858837
1711417175310,5751.139914596453
1711417175350,5935.197042782791
1711417175390,6077.270811398979
1711417175430,6179.241865444463
1711417175471,6437.505690712947
1711417175510,6810.204633782152
1711417175550,6822.083231652621
1711417175591,7428.7122103760485
1711417175631,7428.7122103760485
1711417175672,7428.7122103760485
1711417175711,7428.7122103760485
1711417175751,7227.451082143001
1711417175791,7227.451082143001
1711417175831,7227.451082143001
1711417175872,7227.451082143001
1711417175912,7227.451082143001
1711417175952,7227.451082143001
1711417175992,7227.451082143001
1711417176032,7428.7122103760485
1711417176073,7485.704202571185
1711417176112,7892.566934705479
1711417176152,8099.849816097412
1711417176193,8471.8803580245
1711417176233,8766.450400158297
1711417176274,8766.450400158297
1711417176313,8766.450400158297
1711417176353,8766.450400158297
1711417176393,8766.450400158297
1711417176433,8471.8803580245
1711417176474,8250.32477997616
1711417176514,7892.566934705479
1711417176554,7604.456811467651
1711417176594,7604.456811467651
1711417176634,7617.37466299627
1711417176675,7766.097019513603
1711417176714,7766.097019513603
1711417176754,7942.10165761481
1711417176795,8250.32477997616
1711417176835,8383.64644110296
1711417176875,8471.8803580245
1711417176915,9174.925972240511
1711417176955,9174.925972240511
1711417176995,9174.925972240511
1711417177035,9174.925972240511
1711417177076,9174.925972240511
1711417177115,9174.925972240511
1711417177155,8908.98397331615
1711417177196,8383.64644110296
1711417177236,8250.32477997616
1711417177276,8147.955156268319
1711417177316,8147.955156268319
1711417177356,8147.955156268319
1711417177396,8147.955156268319
1711417177436,8147.955156268319
1711417177477,8147.955156268319
1711417177516,8147.955156268319
1711417177556,8383.64644110296
1711417177596,8908.98397331615
1711417177636,9058.919542082585
1711417177677,9058.919542082585
1711417177717,9058.919542082585
1711417177757,9058.919542082585
1711417177797,9058.919542082585
1711417177837,9058.919542082585
1711417177878,9058.919542082585
1711417177917,8931.937895443756
1711417177957,8908.98397331615
1711417177997,8147.955156268319
1711417178037,8016.288286804222
1711417178078,8016.288286804222
1711417178118,8016.288286804222
1711417178158,8016.288286804222
1711417178198,8016.288286804222
1711417178238,8016.288286804222
1711417178279,8016.288286804222
1711417178318,8016.288286804222
1711417178358,7505.658727526665
1711417178398,6586.399589924142
1711417178438,5165.371138600633
1711417178479,4223.9113931818865
1711417178518,-1120.0459038945846
1711417178558,-1771.4298470104113
1711417178599,-1921.0854281799402
1711417178639,-1921.0854281799402
1711417178679,-1921.0854281799402
1711417178719,-1921.0854281799402
1711417178759,-1921.0854281799402
1711417178799,-1921.0854281799402
1711417178839,-1921.0854281799402
1711417178880,-1921.0854281799402
1711417178919,-1921.0854281799402
1711417178959,-1921.0854281799402
1711417178999,-1921.0854281799402
1711417179039,4393.642787009943
1711417179083,10383.192331080325
1711417179120,13643.02325725276
1711417179160,14638.353582120035
1711417179200,15995.247825674247
1711417179240,16827.54533770634
1711417179281,18392.195439827163
1711417179320,19481.05566228926
1711417179360,20698.623305951245
1711417179400,23313.84207291808
1711417179440,24950.683126884513
1711417179481,26003.2588847531
1711417179521,27370.907326147426
1711417179561,29041.372127943672
1711417179601,29041.372127943672
1711417179641,29041.372127943672
1711417179682,29041.372127943672
1711417179721,29041.372127943672
1711417179761,29041.372127943672
1711417179801,29041.372127943672
1711417179841,29041.372127943672
1711417179882,29041.372127943672
1711417179922,29041.372127943672
1711417179962,29041.372127943672
1711417180002,24590.38062031241
1711417180042,24408.0397639703
1711417180082,24408.0397639703
1711417180122,24408.0397639703
1711417180162,24408.0397639703
1711417180202,24408.0397639703
1711417180242,23419.208230771124
1711417180283,22942.054937301204
1711417180323,22884.199970697053
1711417180363,22851.438016783446
1711417180403,22775.321681612637
1711417180443,22424.39801810356
1711417180484,22424.39801810356
1711417180523,22424.39801810356
1711417180563,20442.96909891488
1711417180603,20442.96909891488
1711417180643,20442.96909891488
1711417180684,19060.982834732626
1711417180724,16965.334888363723
1711417180764,15745.318604439497
1711417180804,15594.789600469172
1711417180844,14754.193915384822
1711417180885,13916.993019795511
1711417180924,13916.993019795511
1711417180964,13741.605461005121
1711417181004,13666.270723963156
1711417181044,13381.66891462123
1711417181085,13186.061422073282
1711417181125,13098.66259479709
1711417181165,12943.208840921521
1711417181205,12695.174641326535
1711417181245,12691.542811642867
1711417181288,12525.83733544778
1711417181325,12281.07432755502
1711417181365,12128.2599554779
1711417181405,10073.229995583184
1711417181446,8069.781797414646
1711417181486,6303.5315319933
1711417181526,5237.579065122642
1711417181566,5237.579065122642
1711417181606,5237.579065122642
1711417181646,5237.579065122642
1711417181687,5237.579065122642
1711417181726,4847.477332972921
1711417181766,4830.10301842168
1711417181806,4711.064782692585
1711417181847,4566.732415848412
1711417181887,4351.616387595423
1711417181927,4319.539187057875
1711417181967,4187.333268032875
1711417182007,3860.1175135448575
1711417182047,3662.1742984633893
1711417182088,3244.115404688753
1711417182127,3169.3943423717283
1711417182167,2082.4801308643073
1711417182208,538.375470300205
1711417182248,-5.043567469343543
1711417182288,-322.8312569539994
1711417182328,-322.8312569539994
1711417182368,-322.8312569539994
1711417182408,-322.8312569539994
1711417182448,-322.8312569539994
1711417182489,-455.5462274784222
1711417182528,-687.7459387108684
1711417182569,-758.0450590401888
1711417182608,-820.7644222080708
1711417182649,-1018.1467193821445
1711417182689,-1117.7566838227212
1711417182729,-1318.8295500567183
1711417182769,-1358.4506202591583
1711417182809,-1674.4168559722602
1711417182849,-1946.067449069582
1711417182889,-2826.617918928154
1711417182928,-4847.34970078012
1711417182968,-4847.34970078012
1711417183008,-4847.34970078012
1711417183049,-4847.34970078012
1711417183089,-4847.34970078012
1711417183129,-4847.34970078012
1711417183169,-5223.275240311399
1711417183209,-5683.451180811971
1711417183249,-6101.5374438185245
1711417183290,-6550.950647043064
1711417183329,-6627.534004339948
1711417183369,-6648.013950702734
1711417183410,-6672.263739075977
1711417183450,-6962.369989536703
1711417183490,-7096.879414911382
1711417183530,-7177.927558927797
1711417183570,-7177.927558927797
1711417183610,-9181.459795486182
1711417183650,-9181.459795486182
1711417183691,-9181.459795486182
1711417183730,-9181.459795486182
1711417183771,-9181.459795486182
1711417183811,-9296.450495850295
1711417183851,-9840.1626745658
1711417183892,-9888.561665611342
1711417183931,-9903.579386179335
1711417183971,-10465.640943707433
1711417184011,-10543.155202741269
1711417184051,-10589.692573565058
1711417184092,-10899.99355605198
1711417184132,-10899.99355605198
1711417184172,-11140.391881335992
1711417184212,-11173.49559739558
1711417184252,-13315.448341227137
1711417184293,-14800.410905785859
1711417184332,-15857.469330604654
1711417184372,-15857.469330604654
1711417184412,-15857.469330604654
1711417184452,-15857.469330604654
1711417184493,-15857.469330604654
1711417184533,-16725.020264183637
1711417184573,-16847.068123701494
1711417184613,-17643.277858161367
1711417184653,-17887.186239318922
1711417184694,-18510.842170663178
1711417184733,-18537.23082329752
1711417184773,-18886.185523399618
1711417184813,-18943.428303077817
1711417184854,-19067.165750476997
1711417184894,-19255.019507577643
1711417184934,-19255.019507577643
1711417184974,-20330.062419976108
1711417185014,-20330.062419976108
1711417185054,-20330.062419976108
1711417185095,-20330.062419976108
1711417185134,-20330.062419976108
1711417185174,-20330.062419976108
1711417185214,-20330.062419976108
1711417185254,-20330.062419976108
1711417185295,-20421.74402587535
1711417185335,-20916.12908513518
1711417185375,-21621.571519914083
1711417185415,-21926.657960052602
1711417185455,-21926.657960052602
1711417185496,-21926.657960052602
1711417185535,-21926.657960052602
1711417185575,-21722.635431230534
1711417185615,-21621.571519914083
1711417185655,-20916.12908513518
1711417185696,-20569.442865977064
1711417185735,-20421.74402587535
1711417185775,-19530.08294595871
1711417185816,-19402.86416781554
1711417185856,-19105.99696296733
1711417185896,-19105.99696296733
1711417185936,-19105.99696296733
1711417185976,-19105.99696296733
1711417186016,-19105.99696296733
1711417186056,-19105.99696296733
1711417186097,-17402.1639852589
1711417186136,-16069.490961231291
1711417186176,-16069.490961231291
1711417186216,-16069.490961231291
1711417186256,-15863.65807877644
1711417186297,-15863.65807877644
1711417186337,-15569.031640582718
1711417186377,-15429.413087903522
1711417186417,-15394.895475451834
1711417186457,-14527.192604759708
1711417186498,-14264.48662471259
1711417186537,-14136.492762566544
1711417186577,-13562.459182030056
1711417186617,-12523.098136848304
1711417186657,-12448.877762699267
1711417186698,-12448.877762699267
1711417186737,-12448.877762699267
1711417186778,-12448.877762699267
1711417186818,-12448.877762699267
1711417186858,-12448.877762699267
1711417186899,-10331.630593272857
1711417186938,-8860.378359489609
1711417186978,-7716.381319209933
1711417187018,-5996.841400344856
1711417187058,-5207.204541451298
1711417187099,-5012.0135912727565
1711417187138,-4868.885190449189
1711417187178,-4692.107358984882
1711417187218,-4477.315529660787
1711417187259,-4361.180289506912
1711417187299,-3554.548244342208
1711417187339,-3542.109477712773
1711417187379,-3361.4473928606603
1711417187419,-2173.997602910269
1711417187459,-2137.6504216152243
1711417187500,-2012.6532769850455
1711417187539,-505.1374269546941
1711417187579,-505.1374269546941
1711417187620,-505.1374269546941
1711417187659,-505.1374269546941
1711417187700,679.7556178376544
1711417187740,1613.1296330559999
1711417187780,2670.075515178498
1711417187820,3189.6912254798226
1711417187860,3354.3986904111225
1711417187901,3354.3986904111225
1711417187940,3354.3986904111225
1711417187980,3537.7850851987023
1711417188020,3630.1288668019697
1711417188061,3871.0843056973536
1711417188102,3958.2358953189105
1711417188141,4254.349766298197
1711417188181,4523.488276315853
1711417188221,5004.32417378528
1711417188261,5051.100863181055
1711417188302,5051.100863181055
1711417188341,5051.100863181055
1711417188381,5051.100863181055
1711417188421,5004.32417378528
1711417188462,4523.488276315853
1711417188502,4254.349766298197
1711417188542,4147.705328365555
1711417188582,4147.705328365555
1711417188622,4147.705328365555
1711417188662,4147.705328365555
1711417188703,4147.705328365555
1711417188742,4147.705328365555
1711417188782,4147.705328365555
1711417188822,4147.705328365555
1711417188862,3372.1927487335633
1711417188903,3372.1927487335633
1711417188943,3372.1927487335633
1711417188983,3372.1927487335633
1711417189023,3372.1927487335633
1711417189063,3372.1927487335633
1711417189104,2922.258076740429
1711417189143,2919.562666224083
1711417189183,2503.3033334228676
1711417189223,2432.624400665518
1711417189263,2150.061927044997
1711417189304,1801.85248357011
1711417189344,1733.931375972461
1711417189384,1622.8640003520995
1711417189424,896.2419974857476
1711417189464,665.7500355131924
1711417189505,665.7500355131924
1711417189544,-14.295329138636589
1711417189584,-771.6058828555979
1711417189624,-771.6058828555979
1711417189665,-771.6058828555979
1711417189705,-771.6058828555979
1711417189745,-771.6058828555979
1711417189785,-771.6058828555979
1711417189825,-771.6058828555979
1711417189865,-771.6058828555979
1711417189906,-1349.6969481837004
1711417189945,-1522.1026905218605
1711417189985,-1556.5727113464382
1711417190025,-2275.1048596962355
1711417190065,-2275.1048596962355
1711417190106,-2275.1048596962355
1711417190146,-2275.1048596962355
1711417190186,-2275.1048596962355
1711417190226,-2275.1048596962355
1711417190266,-2275.1048596962355
1711417190307,-2275.1048596962355
1711417190346,-2616.271097032819
1711417190386,-2616.271097032819
1711417190426,-2616.271097032819
1711417190466,-2616.271097032819
1711417190507,-2616.271097032819
1711417190547,-2616.271097032819
1711417190587,-2616.271097032819
1711417190627,-2616.271097032819
1711417190667,-2616.271097032819
1711417190708,-2616.271097032819
1711417190747,-3329.520640654955
1711417190787,-3519.9869690104388
1711417190828,-3519.9869690104388
1711417190868,-3519.9869690104388
1711417190908,-3519.9869690104388
1711417190948,-3519.9869690104388
1711417190988,-3519.9869690104388
1711417191028,-3519.9869690104388
1711417191068,-3519.9869690104388
1711417191109,-3519.9869690104388
1711417191148,-3329.520640654955
1711417191188,-2378.9857817962766
1711417191229,-2378.9857817962766
1711417191269,-2378.9857817962766
1711417191309,-2378.9857817962766
1711417191349,-2378.9857817962766
1711417191389,-2378.9857817962766
1711417191429,-2378.9857817962766
1711417191469,-2378.9857817962766
1711417191510,-2378.9857817962766
1711417191549,-2378.9857817962766
1711417191590,-1674.595718178898
1711417191630,-1674.595718178898
1711417191670,-1674.595718178898
1711417191711,-1674.595718178898
1711417191750,-1674.595718178898
1711417191790,-1674.595718178898
1711417191830,-1674.595718178898
1711417191870,-1584.1045730812475
1711417191911,-1574.8561478336342
1711417191951,-661.6412615254521
1711417191991,-447.61437871074304
1711417192031,-397.5793943349272
1711417192071,217.63555289735086
1711417192112,282.0004224590957
1711417192151,282.0004224590957
1711417192191,282.0004224590957
1711417192231,282.0004224590957
1711417192272,282.0004224590957
1711417192312,282.0004224590957
1711417192352,-447.61437871074304
1711417192392,-661.6412615254521
1711417192432,-661.6412615254521
1711417192472,-661.6412615254521
1711417192513,-661.6412615254521
1711417192553,-661.6412615254521
1711417192593,-661.6412615254521
1711417192633,-661.6412615254521
1711417192673,-661.6412615254521
1711417192714,-661.6412615254521
1711417192753,-578.5072195730172
1711417192793,-578.5072195730172
1711417192833,-578.5072195730172
1711417192874,-578.5072195730172
1711417192915,-578.5072195730172
1711417192954,-578.5072195730172
1711417192994,-578.5072195730172
1711417193034,-578.5072195730172
1711417193074,-578.5072195730172
1711417193115,-578.5072195730172
1711417193154,-578.5072195730172
1711417193194,-578.5072195730172
1711417193234,-578.5072195730172
1711417193274,-375.7063614237122
1711417193315,-160.55056599131785
1711417193355,30.654181690420955
1711417193395,265.68064272427
1711417193435,310.32176661887206
1711417193475,453.0934450251516
1711417193516,639.1910386122763
1711417193555,1025.654510502005
1711417193595,1384.2577108647674
1711417193635,1774.5682548549958
1711417193675,2436.075763433473
1711417193716,2436.075763433473
1711417193756,2436.075763433473
1711417193795,2436.075763433473
1711417193836,2436.075763433473
1711417193876,2436.075763433473
1711417193916,2436.075763433473
1711417193956,3360.4889375034254
1711417193996,5122.227832400007
1711417194036,5909.234376506414
1711417194076,5953.3220619205385
1711417194117,5953.3220619205385
1711417194156,5953.3220619205385
1711417194196,5953.3220619205385
1711417194237,5953.3220619205385
1711417194276,5953.3220619205385
1711417194317,6029.610718008596
1711417194357,6313.881949759554
1711417194397,6384.377645569388
1711417194437,6663.4896870385855
1711417194477,6694.544816518202
1711417194518,6694.544816518202
1711417194557,6663.4896870385855
1711417194597,6384.377645569388
1711417194637,6313.881949759554
1711417194677,6029.610718008596
1711417194718,5953.3220619205385
1711417194758,5851.44103880832
1711417194798,5487.942924239207
1711417194838,4633.994390484877
1711417194878,4596.475502080284
1711417194920,4510.039372820873
1711417194959,4462.984880532604
1711417194999,1886.9510482535698
1711417195039,1016.7661911379546
1711417195079,947.8737832261249
1711417195120,947.8737832261249
1711417195160,947.8737832261249
1711417195200,947.8737832261249
1711417195240,947.8737832261249
1711417195280,947.8737832261249
1711417195321,947.8737832261249
1711417195360,711.701517757494
1711417195400,449.35583046637475
1711417195440,-32.109124856069684
1711417195480,-475.5485359914601
1711417195521,-609.3257274585776
1711417195560,-609.3257274585776
1711417195600,-609.3257274585776
1711417195641,-609.3257274585776
1711417195681,-609.3257274585776
1711417195721,-609.3257274585776
1711417195761,-609.3257274585776
1711417195801,-1122.1828393577598
1711417195841,-1206.1926025953144
1711417195881,-1640.691079299897
1711417195922,-4942.90948866494
1711417195961,-6260.221276590135
1711417196001,-6351.768524556421
1711417196042,-6897.061042819172
1711417196082,-7434.902661837637
1711417196122,-8216.785719804
1711417196162,-8610.920489711221
1711417196202,-9171.885281518567
1711417196242,-9322.105228455737
1711417196282,-10708.452998389956
1711417196323,-11713.803892411292
1711417196362,-13814.647644528188
1711417196403,-14688.32595531363
1711417196443,-14688.32595531363
1711417196483,-14688.32595531363
1711417196524,-14688.32595531363
1711417196563,-14688.32595531363
1711417196603,-14688.32595531363
1711417196643,-14688.32595531363
1711417196683,-14688.32595531363
1711417196724,-14688.32595531363
1711417196764,-14688.32595531363
1711417196804,-14688.32595531363
1711417196844,-12046.762668509968
1711417196884,-8342.892502048751
1711417196924,-4900.031130348798
1711417196964,-4490.956398093607
1711417197004,-3797.741205347702
1711417197044,-2795.8439302889165
1711417197084,-544.0217835977674
1711417197125,-157.73185599199496
1711417197164,917.4157217298634
1711417197204,2782.0423574550077
1711417197245,3583.159932815004
1711417197285,3583.159932815004
1711417197325,3583.159932815004
1711417197365,3811.783369106939
1711417197405,3959.0630750565324
1711417197445,3959.0630750565324
1711417197485,3959.0630750565324
1711417197526,3959.0630750565324
1711417197565,3959.0630750565324
1711417197605,3959.0630750565324
1711417197645,3811.783369106939
1711417197686,3682.0394953705836
1711417197727,3583.159932815004
1711417197766,3583.159932815004
1711417197806,3682.0394953705836
1711417197846,3682.0394953705836
1711417197886,2712.767051042989
1711417197927,2455.6755811176263
1711417197966,2065.8095031324774
1711417198006,2016.3348588892259
1711417198046,32.42987438105047
1711417198087,-65.91361267468892
1711417198127,-579.3003623895347
1711417198167,-1506.8941968590952
1711417198207,-3860.3881146973
1711417198247,-3860.3881146973
1711417198287,-3860.3881146973
1711417198328,-3787.7830182467587
1711417198367,-3064.611419089604
1711417198408,-2741.1997720380314
1711417198448,-1506.8941968590952
1711417198488,-1506.8941968590952
1711417198528,-1506.8941968590952
1711417198568,-2544.4810860415455
1711417198608,-2741.1997720380314
1711417198648,-3064.611419089604
1711417198688,-3787.7830182467587
1711417198729,-3860.3881146973
1711417198768,-4049.553654238349
1711417198809,-3860.3881146973
1711417198849,-3787.7830182467587
1711417198889,-3440.2530907825567
1711417198930,-3440.2530907825567
1711417198969,-3440.2530907825567
1711417199009,-3258.5617908982094
1711417199050,-3144.961274512578
1711417199090,-3064.611419089604
1711417199130,-2741.1997720380314
1711417199170,-2544.4810860415455
1711417199210,-2544.4810860415455
1711417199250,-2544.4810860415455
1711417199290,-2544.4810860415455
1711417199331,-2544.4810860415455
1711417199370,-2544.4810860415455
1711417199411,-2528.5280969440937
1711417199451,-2519.8248860854656
1711417199491,-1878.0217209081165
1711417199532,-1878.0217209081165
1711417199571,-1873.2255755905062
1711417199611,-1803.705380254425
1711417199651,-1753.4330778811127
1711417199691,-1720.260936572682
1711417199732,-1007.4027708375361
1711417199772,-676.6317070643418
1711417199812,-580.6398788767401
1711417199852,325.5945241486188
1711417199892,452.63256343686953
1711417199933,921.3406679080799
1711417199972,921.3406679080799
1711417200013,921.3406679080799
1711417200053,520.8515923637897
1711417200093,452.63256343686953
1711417200134,452.63256343686953
1711417200173,452.63256343686953
1711417200213,452.63256343686953
1711417200253,452.63256343686953
1711417200293,520.8515923637897
1711417200334,1109.729815289611
1711417200374,1299.1879181126133
1711417200414,1417.1226454717107
1711417200454,1456.8833687836304
1711417200494,1926.4068498602137
1711417200535,2335.4875095272437
1711417200574,3005.1782182930037
1711417200614,3005.1782182930037
1711417200654,3005.1782182930037
1711417200694,3005.1782182930037
1711417200735,2353.5350707354955
1711417200775,1926.4068498602137
1711417200815,1666.321424471913
1711417200855,1666.321424471913
1711417200895,1666.321424471913
1711417200936,1666.321424471913
1711417200975,1666.321424471913
1711417201015,1666.321424471913
1711417201055,1666.321424471913
1711417201095,1666.321424471913
1711417201136,1926.4068498602137
1711417201176,2353.5350707354955
1711417201216,2522.676259722095
1711417201256,2522.676259722095
1711417201296,2522.676259722095
1711417201337,2522.676259722095
1711417201376,2522.676259722095
1711417201416,2522.676259722095
1711417201456,2522.676259722095
1711417201496,2522.676259722095
1711417201537,2353.5350707354955
1711417201576,1666.321424471913
1711417201616,1607.4205549436156
1711417201657,1607.4205549436156
1711417201697,1607.4205549436156
1711417201737,1607.4205549436156
1711417201777,1607.4205549436156
1711417201817,1918.7038270412013
1711417201857,2488.1735641467385
1711417201897,2522.676259722095
1711417201938,2702.619422093965
1711417201977,3469.566503535956
1711417202017,3549.4241741290316
1711417202058,3549.4241741290316
1711417202098,3549.4241741290316
1711417202138,3549.4241741290316
1711417202178,3549.4241741290316
1711417202218,3549.4241741290316
1711417202258,3148.107537521515
1711417202298,2702.619422093965
1711417202339,2560.3369140399154
1711417202378,2619.8043509779964
1711417202418,2619.8043509779964
1711417202458,2619.8043509779964
1711417202499,2619.8043509779964
1711417202539,2619.8043509779964
1711417202579,2619.8043509779964
1711417202619,2619.8043509779964
1711417202659,3148.107537521515
1711417202699,3202.028130382765
1711417202740,3202.028130382765
1711417202779,3202.028130382765
1711417202819,3202.028130382765
1711417202859,3202.028130382765
1711417202900,3202.028130382765
1711417202940,3202.028130382765
1711417202980,3202.028130382765
1711417203020,3148.107537521515
1711417203060,2619.8043509779964
1711417203100,2560.3369140399154
1711417203141,2502.241045474075
1711417203180,2502.241045474075
1711417203220,2456.826361954212
1711417203261,1893.5646004383452
1711417203300,1893.5646004383452
1711417203341,1893.5646004383452
1711417203381,1893.5646004383452
1711417203421,1460.0469901734032
1711417203461,-26.94629512540996
1711417203501,-1416.3095892220736
1711417203542,-1597.8372967885807
1711417203581,-1597.8372967885807
1711417203621,-1597.8372967885807
1711417203661,-1597.8372967885807
1711417203701,-1597.8372967885807
1711417203742,-1625.4300621668808
1711417203782,-1863.2449193876237
1711417203822,-2385.1018060133792
1711417203862,-2739.7509981724434
1711417203902,-3263.3850848344155
1711417203943,-3512.453372790944
1711417203982,-4140.274971731938
1711417204022,-4339.4739808538
1711417204062,-4843.18958812207
1711417204103,-5084.320880724117
1711417204143,-5084.320880724117
1711417204183,-5084.320880724117
1711417204223,-6920.975672950968
1711417204263,-8243.17548578512
1711417204303,-8243.17548578512
1711417204344,-8243.17548578512
1711417204383,-8243.17548578512
1711417204423,-8243.17548578512
1711417204464,-8243.17548578512
1711417204504,-8243.17548578512
1711417204544,-9056.950839577243
1711417204584,-9155.590419372777
1711417204624,-9826.581097918097
1711417204664,-9907.44935473986
1711417204704,-10549.776319403201
1711417204745,-10610.20459176274
1711417204784,-10709.756819379516
1711417204825,-10963.873454609653
1711417204865,-10963.873454609653
1711417204905,-10963.873454609653
1711417204946,-10963.873454609653
1711417204985,-10709.756819379516
1711417205025,-10407.170585696585
1711417205065,-10407.170585696585
1711417205105,-10407.170585696585
1711417205146,-10407.170585696585
1711417205186,-10407.170585696585
1711417205226,-10407.170585696585
1711417205266,-11122.775926133152
1711417205306,-11626.687117215246
1711417205347,-12404.302665210329
1711417205386,-12444.093801344978
1711417205426,-12644.41892672982
1711417205466,-13336.07569986349
1711417205506,-13336.07569986349
1711417205547,-13336.07569986349
1711417205587,-13336.07569986349
1711417205627,-12980.247594482033
1711417205667,-12444.093801344978
1711417205707,-12404.302665210329
1711417205748,-11626.687117215246
1711417205787,-11560.722030079458
1711417205827,-11560.722030079458
1711417205868,-11560.722030079458
1711417205908,-11560.722030079458
1711417205948,-11758.844304733677
1711417205988,-12404.302665210329
1711417206028,-12698.624348158017
1711417206068,-12980.247594482033
1711417206108,-13130.243191060377
1711417206149,-13059.443533927668
1711417206189,-13059.443533927668
1711417206229,-13059.443533927668
1711417206269,-12980.247594482033
1711417206309,-12698.624348158017
1711417206350,-12407.592705186922
1711417206389,-11758.844304733677
1711417206429,-11560.722030079458
1711417206469,-10754.486306742765
1711417206510,-10197.047477136832
1711417206550,-9523.457605181728
1711417206590,-9523.457605181728
1711417206630,-9523.457605181728
1711417206670,-9523.457605181728
1711417206710,-9523.457605181728
1711417206751,-9523.457605181728
1711417206790,-8239.291116517968
1711417206831,-8081.862216966227
1711417206871,-7973.90586302313
1711417206911,-7393.461843614001
1711417206951,-7286.520349616185
1711417206990,-7256.432447848376
1711417207030,-7056.541555315489
1711417207070,-6817.559676240664
1711417207111,-6694.749374550534
1711417207151,-5914.429415052058
1711417207191,-5371.1522521767765
1711417207231,-4543.3810608934145
1711417207271,-4097.185108806239
1711417207311,-4097.185108806239
1711417207352,-4097.185108806239
1711417207391,-4097.185108806239
1711417207431,-3983.9159834748134
1711417207472,-3327.114283806877
1711417207512,-2833.888923616847
1711417207552,-2799.7991666258313
1711417207592,-2602.4269925407134
1711417207632,-2390.982311318163
1711417207672,-2150.270788581576
1711417207712,-2117.2982095358893
1711417207753,-2082.7469206070527
1711417207792,-1990.9711351837032
1711417207833,-1468.5398461888544
1711417207873,-902.1794338657055
1711417207913,-85.21017945138738
1711417207954,-1.5352503573521972
1711417207993,-85.21017945138738
1711417208033,-1276.3401484454516
1711417208073,-1468.5398461888544
1711417208113,-1872.8765149782412
1711417208154,-1468.5398461888544
1711417208193,-1468.5398461888544
1711417208233,-1468.5398461888544
1711417208273,-1468.5398461888544
1711417208314,-1458.603690580232
1711417208354,-1276.3401484454516
1711417208394,-750.9610504803713
1711417208434,-85.21017945138738
1711417208474,164.86037955945358
1711417208514,809.2153361139353
1711417208555,809.2153361139353
1711417208594,809.2153361139353
1711417208634,164.86037955945358
1711417208674,138.63644116651267
1711417208714,-750.9610504803713
1711417208755,-1276.3401484454516
1711417208795,-1458.603690580232
1711417208835,-1543.3071091398597
1711417208875,-1543.3071091398597
1711417208915,-1543.3071091398597
1711417208956,-1543.3071091398597
1711417208995,-1716.1277292151935
1711417209035,-1543.3071091398597
1711417209075,-1126.6563097718172
1711417209115,-750.9610504803713
1711417209156,-25.26180363772437
1711417209195,-25.26180363772437
1711417209236,-25.26180363772437
1711417209276,-25.26180363772437
1711417209316,-25.26180363772437
1711417209356,-25.26180363772437
1711417209396,-25.26180363772437
1711417209436,-25.26180363772437
1711417209476,-25.26180363772437
1711417209516,378.642961737467
1711417209557,663.0472998025361
1711417209596,811.1776784344111
1711417209637,950.0337835852988
1711417209677,999.3599138623103
1711417209717,1040.9477912811562
1711417209758,1165.3252533497289
1711417209797,1264.5834193124902
1711417209837,1994.2797127286904
1711417209877,2551.029239633819
1711417209917,2993.480400638422
1711417209958,3062.4038229803555
1711417209997,4222.8499719509855
1711417210037,4558.105205975007
1711417210078,4558.105205975007
1711417210118,4558.105205975007
1711417210158,4558.105205975007
1711417210198,4558.105205975007
1711417210238,4558.105205975007
1711417210278,4558.105205975007
1711417210318,4558.105205975007
1711417210359,4558.105205975007
1711417210398,4558.105205975007
1711417210438,4558.105205975007
1711417210479,4558.105205975007
1711417210518,4558.105205975007
1711417210559,4558.105205975007
1711417210599,4577.5552591839805
1711417210639,5270.612725974526
1711417210679,5270.612725974526
1711417210719,5270.612725974526
1711417210760,5270.612725974526
1711417210799,5270.612725974526
1711417210839,5270.612725974526
1711417210879,5270.612725974526
1711417210919,5270.612725974526
1711417210960,4820.241305072792
1711417211000,4577.5552591839805
1711417211040,4161.091579343192
1711417211080,4161.091579343192
1711417211120,4161.091579343192
1711417211161,4161.091579343192
1711417211200,4161.091579343192
1711417211240,4161.091579343192
1711417211280,4161.091579343192
1711417211320,4468.432403355371
1711417211361,4820.241305072792
1711417211400,5270.612725974526
1711417211441,5469.136977290036
1711417211481,5469.136977290036
1711417211521,5469.136977290036
1711417211562,5469.136977290036
1711417211601,5469.136977290036
1711417211641,5469.136977290036
1711417211681,5469.136977290036
1711417211721,5469.136977290036
1711417211762,5469.136977290036
1711417211802,6249.682907519396
1711417211842,6279.58916917094
1711417211882,6333.530863682739
1711417211922,6512.461797871627
1711417211963,6512.461797871627
1711417212002,6512.461797871627
1711417212042,6531.018571802415
1711417212082,6883.162433684105
1711417212122,7005.351578364149
1711417212163,7191.971973017557
1711417212203,7901.175692315213
1711417212243,7924.783554219175
1711417212283,8624.42037813412
1711417212323,8957.262084539048
1711417212364,9065.109241146827
1711417212403,9065.109241146827
1711417212443,9065.109241146827
1711417212483,9065.109241146827
1711417212524,9065.109241146827
1711417212564,9469.314713534899
1711417212604,9469.314713534899
1711417212644,9469.314713534899
1711417212684,9469.314713534899
1711417212724,9469.314713534899
1711417212765,9469.314713534899
1711417212804,9469.314713534899
1711417212844,9469.314713534899
1711417212885,9469.314713534899
1711417212925,9469.314713534899
1711417212966,9469.314713534899
1711417213005,10027.780305437278
1711417213045,10027.780305437278
1711417213085,10027.780305437278
1711417213125,10027.780305437278
1711417213166,10027.780305437278
1711417213205,10027.780305437278
1711417213246,10027.780305437278
1711417213286,10027.780305437278
1711417213326,10027.780305437278
1711417213367,9348.641178124119
1711417213406,8624.114715367556
1711417213446,8624.114715367556
1711417213486,8624.114715367556
1711417213526,8624.114715367556
1711417213567,8624.114715367556
1711417213607,8624.114715367556
1711417213647,8624.114715367556
1711417213687,8624.114715367556
1711417213727,8666.062525377609
1711417213768,8948.389940247405
1711417213807,8948.389940247405
1711417213847,8948.389940247405
1711417213887,8948.389940247405
1711417213927,8948.389940247405
1711417213968,8948.389940247405
1711417214007,8948.389940247405
1711417214048,8948.389940247405
1711417214088,8948.389940247405
1711417214128,8948.389940247405
1711417214169,8948.389940247405
1711417214208,8948.389940247405
1711417214248,8948.389940247405
1711417214288,8948.389940247405
1711417214329,8948.389940247405
1711417214369,8948.389940247405
1711417214409,8948.389940247405
1711417214449,8948.389940247405
1711417214489,8948.389940247405
1711417214529,8948.389940247405
1711417214570,8948.389940247405
1711417214609,8410.075332839042
1711417214649,7950.770690241829
1711417214690,7950.770690241829
1711417214730,7950.770690241829
1711417214771,7950.770690241829
1711417214810,7950.770690241829
1711417214850,7950.770690241829
1711417214890,7846.308376329951
1711417214930,7679.752305427566
1711417214971,7616.796026204247
1711417215010,6984.996185297146
1711417215051,6726.481549595483
1711417215091,6686.885976638645
1711417215131,6633.262606056873
1711417215172,6581.7975310841575
1711417215211,5717.89581886027
1711417215251,5717.89581886027
1711417215291,5717.89581886027
1711417215331,4501.220896124374
1711417215372,3110.1213605902158
1711417215412,2031.7595203910023
1711417215451,1952.4843177935109
1711417215492,1952.4843177935109
1711417215532,1952.4843177935109
1711417215573,1952.4843177935109
1711417215612,1952.4843177935109
1711417215652,1450.9255413706414
1711417215692,1221.4965601922013
1711417215732,1071.7238836996257
1711417215773,879.1625156458467
1711417215812,871.8113234047778
1711417215852,318.64726776536554
1711417215893,268.3215815834701
1711417215932,-140.84789910493419
1711417215973,-190.3636171920225
1711417216013,-304.98892431287095
1711417216053,-304.98892431287095
1711417216093,-2807.224674804136
1711417216133,-4226.366258025635
1711417216174,-4878.730124478228
1711417216213,-4878.730124478228
1711417216253,-4878.730124478228
1711417216293,-4878.730124478228
1711417216333,-4878.730124478228
1711417216374,-4878.730124478228
1711417216413,-4878.730124478228
1711417216454,-5343.4686424694955
1711417216494,-5530.5688179186545
1711417216534,-5883.566339997109
1711417216575,-6523.442761153914
1711417216614,-6582.762916678097
1711417216654,-6657.763803807087
1711417216694,-6744.303524249699
1711417216734,-6744.303524249699
1711417216775,-6744.303524249699
1711417216814,-6744.303524249699
1711417216855,-6744.303524249699
1711417216894,-8026.357584454585
1711417216935,-8174.549075199291
1711417216975,-8174.549075199291
1711417217015,-8174.549075199291
1711417217055,-8174.549075199291
1711417217095,-8174.549075199291
1711417217135,-8174.549075199291
1711417217176,-8317.969979668036
1711417217215,-8325.12930949498
1711417217255,-8951.31110972818
1711417217295,-9055.849726220593
1711417217336,-9130.293216051534
1711417217376,-9429.36594822025
1711417217416,-9600.766939451918
1711417217456,-10307.864911089651
1711417217496,-10668.967274856754
1711417217536,-10687.345352514647
1711417217577,-10687.345352514647
1711417217616,-10307.864911089651
1711417217656,-9416.284473492531
1711417217696,-9416.284473492531
1711417217736,-9416.284473492531
1711417217777,-9416.284473492531
1711417217817,-9416.284473492531
1711417217857,-9416.284473492531
1711417217897,-9416.284473492531
1711417217937,-10459.957287275465
1711417217978,-10752.144231505226
1711417218017,-11087.891757878708
1711417218057,-12038.36008367571
1711417218097,-12038.36008367571
1711417218137,-12038.36008367571
1711417218178,-12038.36008367571
1711417218217,-12038.36008367571
1711417218258,-12038.36008367571
1711417218298,-12038.36008367571
1711417218338,-12038.36008367571
1711417218379,-12139.589581730776
1711417218418,-12323.297845109366
1711417218458,-12323.297845109366
1711417218498,-12323.297845109366
1711417218538,-12323.297845109366
1711417218579,-12323.297845109366
1711417218619,-12323.297845109366
1711417218659,-13076.632957686204
1711417218699,-13200.552245632512
1711417218739,-14120.539870796492
1711417218780,-14934.445400376339
1711417218819,-15073.620230201166
1711417218859,-15562.092134571634
1711417218899,-15824.067476319848
1711417218939,-16260.899852693314
1711417218983,-16692.863312135916
1711417219023,-16692.863312135916
1711417219063,-16692.863312135916
1711417219103,-16692.863312135916
1711417219143,-15892.409084034618
1711417219184,-15892.409084034618
1711417219223,-15892.409084034618
1711417219263,-15892.409084034618
1711417219303,-15892.409084034618
1711417219343,-15892.409084034618
1711417219384,-15892.409084034618
1711417219424,-15892.409084034618
1711417219464,-15892.409084034618
1711417219504,-15892.409084034618
1711417219544,-15892.409084034618
1711417219585,-13669.807754467474
1711417219624,-11914.279905229341
1711417219664,-11891.125637613703
1711417219704,-11815.626346072182
1711417219745,-11756.046910681762
1711417219785,-11145.287111871876
1711417219825,-11094.570225467207
1711417219865,-11062.503685402684
1711417219905,-11008.554015533067
1711417219945,-10772.810796430567
1711417219986,-10070.938872059342
1711417220025,-9476.802063375711
1711417220065,-9118.220606074668
1711417220106,-8844.61473277444
1711417220146,-8844.61473277444
1711417220186,-8844.61473277444
1711417220226,-8844.61473277444
1711417220266,-8597.367252605502
1711417220306,-6469.270902983146
1711417220346,-3694.6994741302915
1711417220387,-3665.766728298273
1711417220426,-3597.2751597038005
1711417220467,-3144.1341589237563
1711417220507,-3134.3007405414246
1711417220547,-3133.8414114112966
1711417220588,-2940.032290089177
1711417220627,-2937.043886746047
1711417220667,-2926.493079026928
1711417220707,-2697.2031598438043
1711417220747,-2453.536582475994
1711417220788,-2431.53250743635
1711417220828,-1809.2647349075414
1711417220867,-773.5130974184722
1711417220908,-773.5130974184722
1711417220948,-773.5130974184722
1711417220989,-773.5130974184722
1711417221028,-554.9124146485701
1711417221068,-554.9124146485701
1711417221108,-196.8150456752628
1711417221148,-196.8150456752628
1711417221189,-136.65237935003825
1711417221229,-130.33412773441523
1711417221269,301.2663674275391
1711417221309,720.3258254821412
1711417221349,1642.7504234805238
1711417221390,2181.689227955416
1711417221429,2333.5733513734303
1711417221469,2352.620880780276
1711417221509,3417.252635050798
1711417221550,3486.873684408143
1711417221590,3486.873684408143
1711417221630,3486.873684408143
1711417221670,3486.873684408143
1711417221710,2333.5733513734303
1711417221750,2333.5733513734303
1711417221791,2333.5733513734303
1711417221830,2333.5733513734303
1711417221871,2333.5733513734303
1711417221911,2333.5733513734303
1711417221951,2333.5733513734303
1711417221992,2333.5733513734303
1711417222031,2333.5733513734303
1711417222071,2333.5733513734303
1711417222111,1225.8312711091712
1711417222152,1156.238080411451
1711417222192,1112.4846409121528
1711417222232,829.7490562056191
1711417222272,-165.03631775965914
1711417222312,-1654.6859697429463
1711417222352,-1875.1490040903445
1711417222393,-3207.457165632397
1711417222432,-5320.730941128917
1711417222473,-5437.754747472238
1711417222513,-5941.483668930596
1711417222553,-6496.978958803695
1711417222594,-6910.054585559992
1711417222633,-7418.655757700093
1711417222673,-7474.758841450792
1711417222713,-7631.436509840889
1711417222754,-8996.285053244792
1711417222794,-12467.054040405434
1711417222834,-15184.019586550072
1711417222874,-16948.297317576827
1711417222914,-17500.49515093048
1711417222954,-18559.84051253507
1711417222995,-19710.187410554616
1711417223034,-19914.142869493226
1711417223075,-21279.39894920448
1711417223115,-24182.856136159506
1711417223155,-24998.63789319992
1711417223195,-25463.338932639454
1711417223235,-25463.338932639454
1711417223275,-25463.338932639454
1711417223315,-26245.242978092283
1711417223355,-26245.242978092283
1711417223396,-26245.242978092283
1711417223435,-26245.242978092283
1711417223475,-27006.58423723001
1711417223515,-27337.837907284033
1711417223555,-27337.837907284033
1711417223596,-27337.837907284033
1711417223636,-27337.837907284033
1711417223676,-27337.837907284033
1711417223716,-27006.58423723001
1711417223756,-23043.433281677077
1711417223797,-22661.762758760713
1711417223836,-22552.418457109015
1711417223876,-20353.87960677268
1711417223916,-17043.28556544287
1711417223956,-16343.82517401455
1711417223997,-12318.850018595345
1711417224036,-9495.691287072841
1711417224077,-8879.122742382344
1711417224117,-6956.809466342442
1711417224157,-290.37828461756
1711417224198,3776.3934389357455
1711417224237,4313.569455777295
1711417224277,8372.290333164856
1711417224317,11167.68604164035
1711417224357,11943.117074786453
1711417224398,22036.012087520678
1711417224438,28797.033253337722
1711417224477,31276.40810764348
1711417224518,31276.40810764348
1711417224558,31276.40810764348
1711417224598,31617.792547391728
1711417224638,31617.792547391728
1711417224678,31617.792547391728
1711417224718,31617.792547391728
1711417224758,35918.89816989517
1711417224799,37265.4924039708
1711417224838,37265.4924039708
1711417224878,37265.4924039708
1711417224919,37265.4924039708
1711417224959,38142.09221039107
1711417225000,38142.09221039107
1711417225039,37762.37807107065
1711417225079,35918.89816989517
1711417225119,35470.371613701805
1711417225159,35118.6260070845
1711417225200,34588.47259433777
1711417225239,34588.47259433777
1711417225280,33405.66634232877
1711417225320,33031.190574005945
1711417225360,33031.190574005945
1711417225401,33031.190574005945
1711417225440,33031.190574005945
1711417225480,33031.190574005945
1711417225520,33031.190574005945
1711417225560,33031.190574005945
1711417225601,32650.733366033994
1711417225641,28822.0314149966
1711417225680,28613.541897987947
1711417225721,28505.31742371712
1711417225761,27909.996382288868
1711417225801,27098.678153910907
1711417225841,27098.678153910907
1711417225881,27098.678153910907
1711417225921,26937.07322775293
1711417225961,26744.155360602308
1711417226002,26365.652805022895
1711417226041,26334.11585706612
1711417226081,25942.194238926983
1711417226122,25776.888655828778
1711417226162,25712.10639733821
1711417226202,25027.291578916367
1711417226242,24767.333195255836
1711417226282,24753.633722076192
1711417226322,24619.30707834824
1711417226362,24255.126899077557
1711417226403,23174.681410217658
1711417226442,21019.76944154175
1711417226483,19701.04538037721
1711417226523,19658.077089770697
1711417226563,19658.077089770697
1711417226604,19658.077089770697
1711417226643,19658.077089770697
1711417226683,19621.22269157134
1711417226723,19619.718729533255
1711417226763,19341.42815546645
1711417226804,19270.19018536154
1711417226844,19217.425975795835
1711417226883,19045.444802789018
1711417226924,18765.18794369418
1711417226964,18641.702457272913
1711417227005,18546.068621894345
1711417227044,18356.892135709524
1711417227084,18233.161257548258
1711417227124,17040.400012643542
1711417227164,14301.656491368078
1711417227205,13988.626512475312
1711417227244,13122.864848213736
1711417227284,13122.864848213736
1711417227325,13122.864848213736
1711417227365,13122.864848213736
1711417227405,13043.231438301504
1711417227445,12877.88802284468
1711417227485,12734.851273517124
1711417227525,12629.97487685224
1711417227565,12569.758448555134
1711417227606,12532.351827401668
1711417227645,12475.2989368774
1711417227686,12475.2989368774
1711417227726,12308.703457674943
1711417227766,12227.79799726
1711417227807,12104.263653289061
1711417227846,8460.555927449837
1711417227886,6892.647628140636
1711417227926,6892.647628140636
1711417227966,6892.647628140636
1711417228007,6892.647628140636
1711417228047,6892.647628140636
1711417228087,6892.647628140636
1711417228127,6658.978912089951
1711417228167,6626.928308421746
1711417228208,6431.956241045147
1711417228247,6355.934496227186
1711417228287,6294.50333510479
1711417228327,5604.96317453403
1711417228367,5559.997937436216
1711417228408,5340.118755965959
1711417228448,5340.118755965959
1711417228488,5340.118755965959
1711417228528,4693.079408951104
1711417228568,652.4769317107275
1711417228609,-1062.7396698114462
1711417228648,-3582.643205098808
1711417228688,-6399.110780131072
1711417228728,-6399.110780131072
1711417228768,-6399.110780131072
1711417228809,-6483.091644470114
1711417228849,-6798.076930232812
1711417228889,-6874.365172382444
1711417228929,-7343.887537282892
1711417228969,-7835.285305514
1711417229010,-7885.621412735898
1711417229049,-8102.785247925669
1711417229089,-8256.370222387835
1711417229130,-8701.32203241717
1711417229169,-9055.755896971561
1711417229210,-9133.408358958084
1711417229250,-10827.19048643671
1711417229290,-12327.066432858352
1711417229330,-12327.066432858352
1711417229370,-12327.066432858352
1711417229411,-12327.066432858352
1711417229450,-12327.066432858352
1711417229491,-12327.066432858352
1711417229531,-12327.066432858352
1711417229571,-12747.440552140586
1711417229612,-13909.753705115058
1711417229651,-13916.101956347935
1711417229691,-14049.79058614932
1711417229731,-14341.111289996654
1711417229771,-14341.111289996654
1711417229812,-14422.597771940753
1711417229852,-14505.667269903235
1711417229892,-14977.730561173055
1711417229932,-14666.799567381851
1711417229972,-14666.799567381851
1711417230013,-14666.799567381851
1711417230052,-14666.799567381851
1711417230092,-14666.799567381851
1711417230132,-14666.799567381851
1711417230172,-14666.799567381851
1711417230213,-14666.799567381851
1711417230252,-14726.000041266903
1711417230293,-14977.730561173055
1711417230333,-16161.169024091214
1711417230373,-16305.765292491764
1711417230414,-16354.949518892914
1711417230453,-16354.949518892914
1711417230493,-16354.949518892914
1711417230533,-16354.949518892914
1711417230574,-16354.949518892914
1711417230614,-16354.949518892914
1711417230654,-16305.765292491764
1711417230694,-16161.169024091214
1711417230734,-14879.5974121443
1711417230774,-14879.5974121443
1711417230815,-14879.5974121443
1711417230854,-16161.169024091214
1711417230894,-16707.796098787338
1711417230934,-17606.06791970646
1711417230974,-18183.37561695045
1711417231013,-18596.566102063283
1711417231052,-18800.635715923272
1711417231092,-19059.41829954926
1711417231132,-19059.41829954926
1711417231173,-19059.41829954926
1711417231213,-19176.548896286637
1711417231253,-19176.548896286637
1711417231293,-18800.635715923272
1711417231333,-18183.37561695045
1711417231373,-17606.06791970646
1711417231414,-17521.76389330253
1711417231453,-17521.76389330253
1711417231493,-17521.76389330253
1711417231533,-18183.37561695045
1711417231573,-19182.13907764433
1711417231614,-20235.41226313333
1711417231654,-20705.419504333753
1711417231693,-20749.41720525641
1711417231734,-20915.593760448042
1711417231774,-20839.206638599746
1711417231814,-20749.41720525641
1711417231854,-20235.41226313333
1711417231894,-20010.993762878934
1711417231934,-19296.819812740432
1711417231974,-19182.13907764433
1711417232015,-17521.76389330253
1711417232054,-17372.615930991247
1711417232094,-17227.577484215843
1711417232134,-15599.103734312812
1711417232174,-15599.103734312812
1711417232215,-15599.103734312812
1711417232255,-15599.103734312812
1711417232295,-15599.103734312812
1711417232335,-15599.103734312812
1711417232375,-14043.941205007955
1711417232416,-13265.24470953457
1711417232455,-12992.382960166316
1711417232495,-12824.828291500919
1711417232535,-12570.212723143632
1711417232575,-11999.610689161113
1711417232616,-11743.78128875047
1711417232655,-11738.175749208545
1711417232696,-11323.92258685315
1711417232736,-11186.38866139995
1711417232776,-10429.924546415219
1711417232816,-9469.171576518565
1711417232856,-8468.283178399084
1711417232896,-8003.895971199963
1711417232936,-8003.895971199963
1711417232976,-8003.895971199963
1711417233017,-7442.033597008325
1711417233056,-5585.963564552832
1711417233097,-4852.2817428861745
1711417233136,-4437.035463932203
1711417233177,-4385.732037975453
1711417233218,-4028.7287170239724
1711417233257,-3691.0721556902863
1711417233297,-3041.743919927394
1711417233337,-2695.475653013913
1711417233377,-2554.99255523202
1711417233418,-2420.8254496408626
1711417233457,-2325.6718578501604
1711417233497,-1712.3221078575589
1711417233537,-717.8134118539747
1711417233578,-626.0736891282722
1711417233618,253.9723527985625
1711417233658,253.9723527985625
1711417233698,823.8128597149625
1711417233738,823.8128597149625
1711417233778,1332.5024745916016
1711417233819,1332.5024745916016
1711417233858,1332.5024745916016
1711417233898,1346.2116112103686
1711417233938,1761.2255778433755
1711417233978,2012.5860561453737
1711417234019,2015.5140791162848
1711417234059,2444.9578835316934
1711417234099,2982.546041372232
1711417234139,3230.747709535761
1711417234179,3596.5399913548026
1711417234220,4557.520667892881
1711417234259,4557.520667892881
1711417234299,4557.520667892881
1711417234339,4557.520667892881
1711417234379,4557.520667892881
1711417234420,4557.520667892881
1711417234459,4557.520667892881
1711417234499,4867.6456357985735
1711417234540,4995.018538755365
1711417234580,5329.345665448578
1711417234621,5473.587884656386
1711417234660,5565.049359171651
1711417234700,5605.06238656817
1711417234740,6103.603206032421
1711417234780,6105.542754849885
1711417234821,6969.818809678778
1711417234860,7321.304993471131
1711417234901,7700.855469937436
1711417234941,8333.937695593107
1711417234981,8333.937695593107
1711417235022,8333.937695593107
1711417235061,8333.937695593107
1711417235101,8333.937695593107
1711417235141,8333.937695593107
1711417235181,9531.982391528785
1711417235222,9896.625383787788
1711417235262,10110.395205314737
1711417235301,10309.884151343256
1711417235342,10309.884151343256
1711417235382,10381.12817525398
1711417235422,10398.192305880133
1711417235462,10504.305128958076
1711417235502,10711.240043789148
1711417235542,10820.23683878337
1711417235582,11496.239016701235
1711417235623,11752.729297258426
1711417235662,11771.792972484604
1711417235702,12652.687870355789
1711417235743,12652.687870355789
1711417235783,12652.687870355789
1711417235823,12652.687870355789
1711417235863,12172.490825239569
1711417235903,11817.488264343236
1711417235943,11817.488264343236
1711417235983,12014.55220717378
1711417236024,12172.490825239569
1711417236063,12172.490825239569
1711417236103,12172.490825239569
1711417236144,12172.490825239569
1711417236184,12376.546943988651
1711417236225,12382.489989549387
1711417236264,12652.687870355789
1711417236304,12941.165884635644
1711417236344,13509.2944155843
1711417236384,13509.2944155843
1711417236425,13509.2944155843
1711417236465,13509.2944155843
1711417236504,13509.2944155843
1711417236545,13509.2944155843
1711417236585,12941.165884635644
1711417236625,12382.489989549387
1711417236665,12376.546943988651
1711417236705,12376.546943988651
1711417236745,12376.546943988651
1711417236785,12376.546943988651
1711417236826,12376.546943988651
1711417236865,12141.86587125156
1711417236906,12141.86587125156
1711417236946,12141.86587125156
1711417236986,11552.155072159134
1711417237027,11552.155072159134
1711417237066,11552.155072159134
1711417237106,11552.155072159134
1711417237146,11552.155072159134
1711417237186,11552.155072159134
1711417237227,11552.155072159134
1711417237266,11552.155072159134
1711417237307,11552.155072159134
1711417237347,11428.083901603706
1711417237387,10912.504632544704
1711417237428,10591.315324432682
1711417237467,10591.315324432682
1711417237507,10591.315324432682
1711417237547,10591.315324432682
1711417237587,10591.315324432682
1711417237628,10591.315324432682
1711417237668,10591.315324432682
1711417237708,10591.315324432682
1711417237748,9204.30317248404
1711417237788,8131.112546610646
1711417237829,7936.760779974982
1711417237868,7936.760779974982
1711417237909,7936.760779974982
1711417237949,7936.760779974982
1711417237989,7936.760779974982
1711417238030,7936.760779974982
1711417238069,7936.760779974982
1711417238109,7326.988328195643
1711417238149,7290.410672586411
1711417238189,7004.5775692705065
1711417238230,6749.8470575567335
1711417238270,6648.512704123743
1711417238310,6342.269045795314
1711417238350,6174.6492906077765
1711417238390,6174.6492906077765
1711417238431,6174.6492906077765
1711417238470,6174.6492906077765
1711417238510,6174.6492906077765
1711417238550,5007.340621555224
1711417238591,3230.59872525651
1711417238631,2693.5356875834987
1711417238671,2693.5356875834987
1711417238711,2693.5356875834987
1711417238751,2693.5356875834987
1711417238791,2693.5356875834987
1711417238832,2693.5356875834987
1711417238871,2693.5356875834987
1711417238911,2368.256958351936
1711417238951,2122.651350930333
1711417238991,1955.3787597771734
1711417239032,1819.1977806077339
1711417239071,1703.6755864336155
1711417239111,1223.3133689430542
1711417239151,1060.149553405121
1711417239192,1060.149553405121
1711417239235,1060.149553405121
1711417239272,1060.149553405121
1711417239312,1060.149553405121
1711417239352,407.624875028152
1711417239392,-626.6545590073802
1711417239433,-626.6545590073802
1711417239472,-626.6545590073802
1711417239512,-626.6545590073802
1711417239552,-626.6545590073802
1711417239593,-626.6545590073802
1711417239633,-626.6545590073802
1711417239673,-1142.2139389691874
1711417239713,-1530.69433790911
1711417239753,-1536.0778717137873
1711417239793,-1645.5475959461182
1711417239834,-1739.8594290534966
1711417239873,-1821.7080868519843
1711417239913,-2104.729726855643
1711417239953,-2325.4281980190426
1711417239993,-2325.4281980190426
1711417240034,-2325.4281980190426
1711417240073,-2325.4281980190426
1711417240113,-3301.787616780959
1711417240153,-3301.787616780959
1711417240194,-3301.787616780959
1711417240234,-3301.787616780959
1711417240274,-3301.787616780959
1711417240314,-3301.787616780959
1711417240354,-3363.746326763183
1711417240394,-4175.264790461864
1711417240435,-4212.036913303658
1711417240474,-5000.5709829838015
1711417240514,-5132.078249596059
1711417240554,-5301.164112851489
1711417240594,-5333.510205579922
1711417240635,-5547.83556293603
1711417240675,-5739.618530695327
1711417240715,-5918.897521844599
1711417240755,-6364.485104406718
1711417240795,-7599.28992125066
1711417240836,-8147.94887938723
1711417240875,-8147.94887938723
1711417240915,-8147.94887938723
1711417240955,-8384.004933251534
1711417240995,-8590.029096913524
1711417241036,-8869.045727938414
1711417241075,-8953.73203295283
1711417241115,-9003.050466530956
1711417241156,-9167.478614071384
1711417241196,-9505.507781697903
1711417241236,-10072.962478608824
1711417241276,-10149.377270790283
1711417241316,-10803.235181797761
1711417241356,-11018.311567221768
1711417241396,-11569.53846219182
1711417241440,-13716.951124172192
1711417241476,-13716.951124172192
1711417241516,-13716.951124172192
1711417241556,-13716.951124172192
1711417241596,-13716.951124172192
1711417241637,-13879.756603316171
1711417241677,-13897.442745239008
1711417241717,-14399.797143662348
1711417241757,-14721.594600343145
1711417241797,-14831.436113719828
1711417241838,-15148.722239108756
1711417241877,-15565.842491859104
1711417241917,-15733.586068588775
1711417241957,-15901.750745644793
1711417241998,-15960.934510378633
1711417242038,-16275.048794182017
1711417242078,-16830.011671114713
1711417242118,-17110.56623963313
1711417242158,-17110.56623963313
1711417242198,-17110.56623963313
1711417242239,-17110.56623963313
1711417242278,-17110.56623963313
1711417242318,-17110.56623963313
1711417242358,-17110.56623963313
1711417242398,-17779.9112829566
1711417242439,-18252.056665757904
1711417242479,-19146.7221508394
1711417242519,-19470.53590152762
1711417242559,-19775.858283817302
1711417242599,-19470.53590152762
1711417242640,-19063.55963354651
1711417242679,-18670.387747477274
1711417242719,-18252.056665757904
1711417242759,-18039.471083493903
1711417242799,-17779.9112829566
1711417242840,-17361.565181450685
1711417242880,-17110.56623963313
1711417242920,-16140.561891207471
1711417242960,-15269.811461104546
1711417243000,-15269.811461104546
1711417243041,-15269.811461104546
1711417243080,-15269.811461104546
1711417243120,-15269.811461104546
1711417243160,-15269.811461104546
1711417243201,-14379.691837756429
1711417243241,-12561.719342488796
1711417243281,-10756.527590638027
1711417243321,-9220.721044461709
1711417243361,-8949.997918576468
1711417243401,-8909.64569858159
1711417243442,-8581.920289868722
1711417243481,-8232.598634354537
1711417243521,-8221.491832295898
1711417243562,-8006.0284835731145
1711417243602,-7642.275175967719
1711417243642,-7063.4354425931815
1711417243682,-6919.016776347067
1711417243722,-6219.611723174341
1711417243762,-5074.6771099991165
1711417243802,-5067.814079092117
1711417243843,-4849.381586238276
1711417243882,-4849.381586238276
1711417243923,-4849.381586238276
1711417243963,-4849.381586238276
1711417244003,-3468.8104349412024
1711417244044,-1947.2286920205224
1711417244083,-573.0217189535033
1711417244123,860.0750719108619
1711417244163,1798.078526317142
1711417244203,3522.950112798717
1711417244244,3527.4572250025813
1711417244284,3585.5433301357552
1711417244324,3824.894494584296
1711417244364,3853.955910611199
1711417244404,4301.02324171178
1711417244445,4367.616767796222
1711417244484,4968.342731449753
1711417244524,5217.140373795759
1711417244564,5377.027312238701
1711417244604,5833.413604215486
1711417244645,6480.305240544025
1711417244685,7033.972930629039
1711417244725,7297.030554667814
1711417244765,7297.030554667814
1711417244805,7297.030554667814
1711417244846,8455.154478510143
1711417244885,9787.34547611815
1711417244925,10921.07112645777
1711417244965,11777.216165409889
1711417245006,13128.707041343208
1711417245046,13224.00248564221
1711417245086,13588.982507384382
1711417245126,13686.615404926473
1711417245166,13765.153435295215
1711417245206,13802.07091361098
1711417245247,13802.912079392932
1711417245286,13884.048356282292
1711417245326,14331.752319245832
1711417245367,14354.194814066868
1711417245407,14559.33820497198
1711417245448,14990.94286864344
1711417245487,14992.340105515206
1711417245527,14992.340105515206
1711417245567,14992.340105515206
1711417245607,14992.340105515206
1711417245648,14992.340105515206
1711417245687,14992.340105515206
1711417245728,15813.12832967774
1711417245768,15813.12832967774
1711417245808,15813.12832967774
1711417245849,15813.12832967774
1711417245888,15813.12832967774
1711417245928,15813.12832967774
1711417245968,15813.12832967774
1711417246008,15813.12832967774
1711417246049,15813.12832967774
1711417246089,15813.12832967774
1711417246129,15813.12832967774
1711417246169,15989.96860933816
1711417246209,15989.96860933816
1711417246250,15989.96860933816
1711417246289,15989.96860933816
1711417246329,15989.96860933816
1711417246369,15989.96860933816
1711417246409,15989.96860933816
1711417246450,15989.96860933816
1711417246490,15379.587111530825
1711417246530,15015.47796758404
1711417246570,14955.068814164959
1711417246610,14921.919846191071
1711417246651,14921.919846191071
1711417246690,14921.919846191071
1711417246730,14921.919846191071
1711417246770,14921.919846191071
1711417246810,14921.919846191071
1711417246851,14921.919846191071
1711417246890,14921.919846191071
1711417246931,13411.274710440077
1711417246971,12657.878170222975
1711417247011,12657.878170222975
1711417247051,12657.878170222975
1711417247091,12657.878170222975
1711417247131,12657.878170222975
1711417247171,12657.878170222975
1711417247211,12657.878170222975
1711417247252,12657.878170222975
1711417247291,12360.526998046786
1711417247331,12059.500932730734
1711417247371,11950.12147951359
1711417247411,11768.169202447869
1711417247452,11477.089406435844
1711417247491,11392.932881039102
1711417247532,10809.424819789827
1711417247572,10809.424819789827
1711417247612,10809.424819789827
1711417247653,10809.424819789827
1711417247692,10563.434096339159
1711417247732,8608.883687715512
1711417247772,7474.358802862
1711417247812,7474.358802862
1711417247853,7474.358802862
1711417247892,7474.358802862
1711417247932,7474.358802862
1711417247972,7474.358802862
1711417248013,7474.358802862
1711417248053,7474.358802862
1711417248093,7474.358802862
1711417248133,7394.832842261996
1711417248173,6794.245496948715
1711417248213,6718.241836466361
1711417248254,6331.087383048609
1711417248293,6331.087383048609
1711417248333,6331.087383048609
1711417248373,6331.087383048609
1711417248413,6331.087383048609
1711417248454,6331.087383048609
1711417248494,6331.087383048609
1711417248533,6331.087383048609
1711417248574,4722.268439214211
1711417248614,3643.297466741875
1711417248654,3643.297466741875
1711417248694,3643.297466741875
1711417248734,3643.297466741875
1711417248774,3643.297466741875
1711417248814,3643.297466741875
1711417248855,3643.297466741875
1711417248894,3643.297466741875
1711417248934,3643.297466741875
1711417248974,3606.4804967949167
1711417249014,3313.728458588943
1711417249055,2731.558001807425
1711417249095,2731.558001807425
1711417249135,2731.558001807425
1711417249175,2731.558001807425
1711417249215,2731.558001807425
1711417249255,2731.558001807425
1711417249295,2731.558001807425
1711417249335,2731.558001807425
1711417249375,2731.558001807425
1711417249415,685.4033677233383
1711417249456,-460.2270594239235
1711417249495,-460.2270594239235
1711417249535,-460.2270594239235
1711417249576,-460.2270594239235
1711417249616,-460.2270594239235
1711417249656,-460.2270594239235
1711417249696,-460.2270594239235
1711417249736,-730.958147005178
1711417249776,-757.5822624005377
1711417249816,-1118.2963378010318
1711417249857,-1286.796515592374
1711417249896,-1566.1367005482316
1711417249936,-1782.4360225875862
1711417249976,-2155.077885793522
1711417250017,-2219.5757744880393
1711417250057,-2219.5757744880393
1711417250097,-2219.5757744880393
1711417250137,-2219.5757744880393
1711417250177,-3038.1074196402915
1711417250217,-5034.8890892490745
1711417250258,-6359.448621065356
1711417250297,-6359.448621065356
1711417250337,-6359.448621065356
1711417250377,-6359.448621065356
1711417250418,-6359.448621065356
1711417250458,-6359.448621065356
1711417250498,-6505.804398244247
1711417250538,-6628.8231815239415
1711417250578,-6898.91665106453
1711417250618,-7419.627127299085
1711417250659,-7452.014658931643
1711417250698,-8159.538198438007
1711417250738,-8297.893461975269
1711417250778,-8383.789041898213
1711417250819,-9026.305642081425
1711417250859,-9289.529457889497
1711417250899,-9466.067853700835
1711417250939,-10140.600496854633
1711417250979,-11837.055498927366
1711417251019,-11837.055498927366
1711417251060,-11837.055498927366
1711417251099,-11837.055498927366
1711417251139,-11837.055498927366
1711417251179,-11837.055498927366
1711417251219,-11837.055498927366
1711417251260,-12383.4126799535
1711417251300,-12945.699821589515
1711417251340,-13111.990433235653
1711417251380,-13480.310786641203
1711417251420,-13808.68227049848
1711417251461,-14047.08687922312
1711417251500,-14231.508875198662
1711417251540,-14501.4168148865
1711417251580,-15020.319868636783
1711417251620,-15109.504517251626
1711417251661,-15109.504517251626
1711417251700,-15708.21079265885
1711417251740,-15708.21079265885
1711417251780,-15708.21079265885
1711417251821,-15708.21079265885
1711417251861,-15708.21079265885
1711417251901,-15708.21079265885
1711417251941,-15708.21079265885
1711417251981,-15708.21079265885
1711417252021,-15708.21079265885
1711417252062,-16203.183605124243
1711417252101,-16768.988654154353
1711417252141,-16883.950800989754
1711417252181,-17028.848952412605
1711417252222,-17028.848952412605
1711417252262,-17028.848952412605
1711417252302,-17028.848952412605
1711417252342,-17028.848952412605
1711417252382,-16768.988654154353
1711417252422,-16590.498635099735
1711417252463,-16203.183605124243
1711417252502,-15539.199568931945
1711417252542,-15382.978166016284
1711417252582,-15382.978166016284
1711417252622,-15382.978166016284
1711417252663,-15382.978166016284
1711417252703,-15382.978166016284
1711417252743,-15382.978166016284
1711417252783,-15382.978166016284
1711417252823,-15382.978166016284
1711417252864,-14141.874980437104
1711417252903,-13055.611415793188
1711417252943,-12444.295124974567
1711417252983,-12024.710279434454
1711417253023,-11776.149369130377
1711417253064,-11620.373714334331
1711417253104,-11578.830477949232
1711417253144,-11542.278463939438
1711417253184,-11320.911521692295
1711417253224,-11200.593722959515
1711417253265,-10851.532277134713
1711417253304,-10398.445573201869
1711417253344,-10149.682523372583
1711417253384,-9525.011446751188
1711417253425,-8908.075615469832
1711417253465,-8251.11522697471
1711417253505,-8251.11522697471
1711417253545,-8251.11522697471
1711417253585,-8251.11522697471
1711417253625,-7100.755961049814
1711417253666,-6020.5076455164235
1711417253705,-4800.54467609711
1711417253745,-2965.479732172098
1711417253786,-2929.1060489607044
1711417253826,-2842.284477927955
1711417253866,-2836.6107782230247
1711417253906,-2413.0672333077528
1711417253946,-2221.0943069956265
1711417253986,-2105.924094047863
1711417254026,-2060.2881227538455
1711417254067,-1895.3819579347037
1711417254106,-1683.286933641415
1711417254147,-1157.185557744
1711417254187,-567.6652326083276
1711417254227,-44.771120503079146
1711417254267,478.3605783318635
1711417254307,478.3605783318635
1711417254347,478.3605783318635
1711417254387,2122.4614885549527
1711417254427,3019.524519602768
1711417254468,4360.601787684485
1711417254508,4365.485432869755
1711417254547,4504.986423501745
1711417254588,4707.410076677334
1711417254628,4707.410076677334
1711417254668,4738.659795034444
1711417254708,4911.3944787499495
1711417254748,5037.212659016252
1711417254788,5275.343609085772
1711417254828,5415.224496586248
1711417254869,5435.976447796682
1711417254909,5677.14904625481
1711417254949,5969.38989800564
1711417254989,6896.656311949249
1711417255029,6896.656311949249
1711417255119,6896.656311949249
1711417255158,6896.656311949249
1711417255198,6896.656311949249
1711417255238,7482.461888320744
1711417255278,7482.461888320744
1711417255319,7482.461888320744
1711417255358,7482.461888320744
1711417255399,7482.461888320744
1711417255438,7482.461888320744
1711417255479,7482.461888320744
1711417255520,7482.461888320744
1711417255559,7482.461888320744
1711417255599,7608.322996669449
1711417255639,7679.593159726821
1711417255679,7936.39876283356
1711417255720,7936.39876283356
1711417255759,7936.39876283356
1711417255799,7936.39876283356
1711417255840,7936.39876283356
1711417255880,7936.39876283356
1711417255920,7936.39876283356
1711417255960,7936.39876283356
1711417256000,7936.39876283356
1711417256040,7936.39876283356
1711417256080,7679.593159726821
1711417256121,7679.593159726821
1711417256160,7679.593159726821
1711417256200,7679.593159726821
1711417256241,7679.593159726821
1711417256281,7679.593159726821
1711417256321,7679.593159726821
1711417256361,7679.593159726821
1711417256401,7679.593159726821
1711417256441,7978.5003315825015
1711417256481,8280.256077755243
1711417256522,8280.256077755243
1711417256561,8280.256077755243
1711417256602,8280.256077755243
1711417256642,8280.256077755243
1711417256682,8280.256077755243
1711417256723,8280.256077755243
1711417256762,8280.256077755243
1711417256802,8280.256077755243
1711417256842,8195.132359734736
1711417256882,8195.132359734736
1711417256923,8195.132359734736
1711417256962,8195.132359734736
1711417257002,8195.132359734736
1711417257042,8195.132359734736
1711417257083,8195.132359734736
1711417257123,8195.132359734736
1711417257163,8195.132359734736
1711417257203,8195.132359734736
1711417257243,8195.132359734736
1711417257283,7953.172937382013
1711417257324,7953.172937382013
1711417257363,7953.172937382013
1711417257403,7953.172937382013
1711417257444,7953.172937382013
1711417257484,7953.172937382013
1711417257524,7953.172937382013
1711417257564,7729.2232136223465
1711417257604,7356.759401851334
1711417257644,7289.737595939543
1711417257684,7206.094008652959
1711417257725,7082.113341267221
1711417257764,6971.642860101536
1711417257804,6643.770205018111
1711417257844,6643.770205018111
1711417257885,6643.770205018111
1711417257926,6643.770205018111
1711417257965,6643.770205018111
1711417258005,5926.662409385666
1711417258045,4921.293304755818
1711417258085,4576.161278885324
1711417258126,4576.161278885324
1711417258165,4576.161278885324
1711417258205,4576.161278885324
1711417258245,4576.161278885324
1711417258286,4576.161278885324
1711417258326,4576.161278885324
1711417258366,4550.353459216654
1711417258406,4443.977269155439
1711417258446,4260.914982074872
1711417258486,4106.791067594662
1711417258527,4089.0461268937215
1711417258566,3624.211315309629
1711417258606,3488.851983915083
1711417258647,3427.0690199630335
1711417258686,3427.0690199630335
1711417258727,3427.0690199630335
1711417258767,3427.0690199630335
1711417258807,2927.105378688313
1711417258847,2250.9253769028
1711417258887,2250.9253769028
1711417258928,2250.9253769028
1711417258967,2250.9253769028
1711417259007,2250.9253769028
1711417259047,2250.9253769028
1711417259087,2250.9253769028
1711417259128,2250.9253769028
1711417259168,1698.1614768700674
1711417259208,1269.4441141569987
1711417259248,872.7631988502108
1711417259288,788.6150992829353
1711417259329,563.832639505621
1711417259368,367.85723133943975
1711417259408,367.85723133943975
1711417259449,367.85723133943975
1711417259489,367.85723133943975
1711417259529,367.85723133943975
1711417259569,330.01319910399616
1711417259609,-349.41135025722906
1711417259649,-596.0429793517105
1711417259689,-596.0429793517105
1711417259730,-596.0429793517105
1711417259769,-596.0429793517105
1711417259810,-596.0429793517105
1711417259850,-596.0429793517105
1711417259890,-596.0429793517105
1711417259931,-596.0429793517105
1711417259970,-596.0429793517105
1711417260010,-1024.6500548943877
1711417260050,-1205.8678013021126
1711417260091,-1617.2913353331387
1711417260131,-1617.2913353331387
1711417260171,-1617.2913353331387
1711417260211,-1617.2913353331387
1711417260251,-1617.2913353331387
1711417260291,-1617.2913353331387
1711417260332,-1617.2913353331387
1711417260371,-1617.2913353331387
1711417260411,-1734.919270919636
1711417260452,-1734.919270919636
1711417260492,-1734.919270919636
1711417260532,-1734.919270919636
1711417260572,-1734.919270919636
1711417260612,-1734.919270919636
1711417260652,-1734.919270919636
1711417260692,-1734.919270919636
1711417260733,-1831.25528149819
1711417260772,-2767.107741427608
1711417260813,-2943.0433395337313
1711417260853,-3107.893399089575
1711417260893,-3448.4005073131993
1711417260934,-3448.4005073131993
1711417260973,-3541.461870999541
1711417261013,-3741.648313962389
1711417261054,-3874.0711193047464
1711417261093,-3874.0711193047464
1711417261134,-3951.8672982212156
1711417261174,-4914.799443677999
1711417261214,-4914.799443677999
1711417261254,-4914.799443677999
1711417261294,-4914.799443677999
1711417261335,-4914.799443677999
1711417261374,-4914.799443677999
1711417261415,-4914.799443677999
1711417261455,-5497.0298031214625
1711417261495,-5649.907572776079
1711417261536,-5682.16306664329
1711417261575,-6225.374440547079
1711417261615,-6506.388715842739
1711417261655,-6564.775369809475
1711417261695,-6564.775369809475
1711417261736,-6841.328981759958
1711417261776,-6841.328981759958
1711417261816,-6841.328981759958
1711417261856,-6644.384555410594
1711417261896,-6225.374440547079
1711417261937,-6225.374440547079
1711417261976,-6225.374440547079
1711417262017,-6225.374440547079
1711417262056,-6225.374440547079
1711417262097,-6225.374440547079
1711417262138,-6225.374440547079
1711417262177,-6404.472052222118
1711417262217,-6644.384555410594
1711417262257,-7510.986113062128
1711417262297,-7688.910096602514
1711417262338,-7760.207822395023
1711417262377,-7760.207822395023
1711417262417,-7760.207822395023
1711417262457,-7760.207822395023
1711417262498,-7760.207822395023
1711417262538,-7760.207822395023
1711417262578,-7760.207822395023
1711417262618,-7760.207822395023
1711417262658,-9156.878227506764
1711417262698,-9156.878227506764
1711417262739,-9156.878227506764
1711417262778,-9156.878227506764
1711417262818,-9156.878227506764
1711417262858,-9156.878227506764
1711417262898,-9156.878227506764
1711417262939,-9304.997464546934
1711417262979,-10202.833208405413
1711417263019,-10261.305594705045
1711417263060,-10622.037217895966
1711417263100,-11069.834603675641
1711417263142,-11073.077758988366
1711417263181,-11073.077758988366
1711417263221,-11073.077758988366
1711417263261,-11073.077758988366
1711417263302,-11073.077758988366
1711417263343,-11073.077758988366
1711417263382,-12186.517657198943
1711417263422,-12186.517657198943
1711417263463,-12186.517657198943
1711417263503,-12186.517657198943
1711417263544,-12186.517657198943
1711417263583,-12186.517657198943
1711417263623,-12186.517657198943
1711417263664,-12186.517657198943
1711417263704,-12186.517657198943
1711417263745,-12186.517657198943
1711417263784,-12186.517657198943
1711417263825,-11325.173994844547
1711417263865,-10309.24189257808
1711417263905,-9751.275165048428
1711417263946,-9751.275165048428
1711417263985,-9693.319271499524
1711417264026,-9652.64888496045
1711417264066,-9557.200867794221
1711417264106,-9476.479281497654
1711417264147,-9372.662881463766
1711417264187,-9128.334129326278
1711417264227,-8907.581299666082
1711417264267,-8640.153714865912
1711417264307,-7554.393826325424
1711417264348,-7410.919397178106
1711417264388,-6919.2396117863245
1711417264428,-6919.2396117863245
1711417264468,-6919.2396117863245
1711417264508,-6919.2396117863245
1711417264550,-6919.2396117863245
1711417264589,-6017.99534377642
1711417264629,-5366.162496944424
1711417264670,-5267.744776285719
1711417264710,-5161.706067762338
1711417264751,-5161.706067762338
1711417264790,-5161.706067762338
1711417264830,-5161.706067762338
1711417264871,-5139.848395395093
1711417264911,-5075.692991642281
1711417264952,-5017.072126316372
1711417264991,-4181.84400672256
1711417265032,-3856.038586946437
1711417265072,-3714.3733810172416
1711417265112,-3344.598148632329
1711417265153,-2598.129603551235
1711417265193,-2598.129603551235
1711417265233,-2598.129603551235
1711417265273,-2598.129603551235
1711417265313,-2598.129603551235
1711417265354,-2598.129603551235
1711417265394,-1859.1315643691923
1711417265434,-1859.1315643691923
1711417265475,-1859.1315643691923
1711417265515,-1859.1315643691923
1711417265556,-1859.1315643691923
1711417265595,-1859.1315643691923
1711417265636,-1859.1315643691923
1711417265676,-1859.1315643691923
1711417265716,-1752.1822728880215
1711417265757,-1354.140626176726
1711417265797,-1223.6496887328103
1711417265837,-825.9784809947014
1711417265877,-256.611673186766
1711417265917,160.676611950621
1711417265958,160.676611950621
1711417265998,160.676611950621
1711417266038,160.676611950621
1711417266078,160.676611950621
1711417266118,160.676611950621
1711417266159,588.7475536712445
1711417266198,588.7475536712445
1711417266239,588.7475536712445
1711417266279,588.7475536712445
1711417266319,588.7475536712445
1711417266360,588.7475536712445
1711417266399,588.7475536712445
1711417266439,588.7475536712445
1711417266479,588.7475536712445
1711417266519,588.7475536712445
1711417266560,690.4354646764696
1711417266600,1390.5430982206017
1711417266640,1390.5430982206017
1711417266680,1390.5430982206017
1711417266720,1390.5430982206017
1711417266761,1390.5430982206017
1711417266801,1390.5430982206017
1711417266841,1390.5430982206017
1711417266881,1390.5430982206017
1711417266921,690.4354646764696
1711417266963,686.6359521709383
1711417267002,14.543284186162055
1711417267042,-240.13614781666547
1711417267083,-240.13614781666547
1711417267123,-240.13614781666547
1711417267162,-240.13614781666547
1711417267201,-240.13614781666547
1711417267240,-240.13614781666547
1711417267279,-240.13614781666547
1711417267318,-240.13614781666547
1711417267357,-787.72483582329
1711417267396,-787.72483582329
1711417267435,-787.72483582329
1711417267474,-787.72483582329
1711417267513,-787.72483582329
1711417267552,-787.72483582329
1711417267591,-787.72483582329
1711417267630,-787.72483582329
1711417267669,-1073.89110600017
1711417267708,-1509.2459264222998
1711417267747,-1680.124686173629
1711417267786,-2079.3304763976485
1711417267825,-2286.7562764119357
1711417267865,-2286.7562764119357
1711417267905,-2286.7562764119357
1711417267945,-2008.5831167986616
1711417267985,-1680.124686173629
1711417268025,-1509.2459264222998
1711417268065,-1073.89110600017
1711417268105,-753.9319183013868
1711417268145,-543.7066456640605
1711417268185,-140.43556103832088
1711417268225,426.82020718883723
1711417268265,426.82020718883723
1711417268305,426.82020718883723
1711417268345,-42.98846729914658
1711417268385,-543.7066456640605
1711417268425,-753.9319183013868
1711417268465,-1043.3044797643088
1711417268505,-1043.3044797643088
1711417268545,-870.1555758898612
1711417268585,-684.796954468824
1711417268625,-543.7066456640605
1711417268665,-42.98846729914658
1711417268705,-25.05308382632211
1711417268745,426.82020718883723
1711417268785,795.5790923528839
1711417268825,1036.9960164027289
1711417268865,1630.554051749874
1711417268905,1631.7587254936807
1711417268945,1631.7587254936807
1711417268985,1631.7587254936807
1711417269025,1631.7587254936807
1711417269065,1631.7587254936807
1711417269105,1631.7587254936807
1711417269145,2422.0212028133683
1711417269185,2722.963428094052
1711417269225,2946.0299843358807
1711417269265,2953.1711694123223
1711417269305,3067.86774088908
1711417269345,3234.4336693179794
1711417269385,3253.871239539236
1711417269425,3604.8136553848162
1711417269465,3747.919550832361
1711417269505,4151.8241503324825
1711417269545,4335.910020486917
1711417269585,4989.3628206551075
1711417269625,5356.3973158558365
1711417269665,5466.983564595692
1711417269705,5466.983564595692
1711417269745,5466.983564595692
1711417269785,5466.983564595692
1711417269825,6855.310904532671
1711417269865,6954.223992696032
