Timestamp,Cleaned PPG
1712814159828,0.0
1712814159868,0.0
1712814159908,0.0
1712814159948,0.0
1712814159988,0.0
1712814160029,0.0
1712814160068,0.0
1712814160108,0.0
1712814160149,0.0
1712814160189,0.0
1712814160230,0.0
1712814160269,0.0
1712814160309,0.0
1712814160349,0.0
1712814160390,0.0
1712814160431,0.0
1712814160470,0.0
1712814160510,0.0
1712814160550,0.0
1712814160590,0.0
1712814160631,0.0
1712814160670,0.0
1712814160710,0.0
1712814160751,0.0
1712814160791,0.0
1712814160832,0.0
1712814160871,0.0
1712814160911,0.0
1712814160951,0.0
1712814160994,0.0
1712814161033,0.0
1712814161072,0.0
1712814161112,1131887.137948042
1712814161152,1131887.137948042
1712814161192,1131887.137948042
1712814161233,1131887.137948042
1712814161272,1131887.137948042
1712814161313,1131887.137948042
1712814161353,1131887.137948042
1712814161393,1131887.137948042
1712814161434,1131887.137948042
1712814161473,1131887.137948042
1712814161513,1131887.137948042
1712814161553,1063134.9282206227
1712814161594,998317.7424208983
1712814161635,935751.5983144909
1712814161674,878545.043861059
1712814161714,825461.0304535481
1712814161754,775765.2498055226
1712814161794,728466.4134923287
1712814161835,682550.4267701181
1712814161875,639093.5961639853
1712814161915,597562.8454563527
1712814161955,559528.8651442281
1712814161995,523740.11271631205
1712814162036,491292.41333597153
1712814162075,462316.41482371977
1712814162115,437196.78093229653
1712814162156,413543.3899619924
1712814162196,391635.6522868965
1712814162237,367328.6034617205
1712814162276,348718.2745033363
1712814162316,329258.09833198506
1712814162356,314223.01369711873
1712814162396,291603.8813250209
1712814162438,267539.06259935396
1712814162477,247798.94149414124
1712814162517,227120.41263366956
1712814162557,218729.71243802528
1712814162597,204120.17309526633
1712814162638,198298.50061745057
1712814162677,189913.62831725064
1712814162717,188541.2516267388
1712814162757,188231.57313187816
1712814162797,186211.9415848432
1712814162838,172077.88063033903
1712814162877,153181.68706282438
1712814162918,132620.41338342056
1712814162958,131180.11255156156
1712814162998,129908.62511820882
1712814163039,126343.53342471551
1712814163078,121459.82927159127
1712814163118,115994.48656465951
1712814163158,109273.05632951576
1712814163201,105337.21970013762
1712814163239,99299.21058117505
1712814163279,86737.40249941498
1712814163319,60992.7558982647
1712814163359,43226.225519319065
1712814163399,35338.26472895034
1712814163440,35338.26472895034
1712814163479,35338.26472895034
1712814163519,35338.26472895034
1712814163559,33238.72940059798
1712814163599,26855.69079163065
1712814163641,26753.977924250998
1712814163680,24587.540607747156
1712814163720,18280.999720514752
1712814163760,18098.332494428847
1712814163800,18098.332494428847
1712814163841,18098.332494428847
1712814163880,18098.332494428847
1712814163920,18098.332494428847
1712814163960,18098.332494428847
1712814164001,18098.332494428847
1712814164042,18098.332494428847
1712814164081,18098.332494428847
1712814164121,18098.332494428847
1712814164161,18098.332494428847
1712814164201,15716.699603176676
1712814164242,15220.594809402712
1712814164281,15134.06797007937
1712814164321,14621.21283973474
1712814164362,10139.041137464345
1712814164402,10139.041137464345
1712814164443,10139.041137464345
1712814164482,10503.418650473002
1712814164522,10503.418650473002
1712814164562,10503.418650473002
1712814164602,8136.094910000451
1712814164643,8060.046617690474
1712814164683,7559.439667985775
1712814164723,7014.820215368643
1712814164763,6753.034657688346
1712814164803,5859.522939238697
1712814164844,5859.522939238697
1712814164883,5859.522939238697
1712814164923,5859.522939238697
1712814164964,6753.034657688346
1712814165004,6753.034657688346
1712814165045,6753.034657688346
1712814165084,5859.522939238697
1712814165124,4038.207432691008
1712814165164,3870.1469357591122
1712814165204,3479.8630439136177
1712814165245,2374.68133826321
1712814165284,1195.940660099499
1712814165325,398.2802797635086
1712814165365,11.03140632295981
1712814165405,-355.6558038839139
1712814165446,-2404.273387110792
1712814165485,-2956.019098592922
1712814165525,-6258.857744057663
1712814165565,-6862.239101829007
1712814165605,-7512.805771348067
1712814165647,-12145.960149575025
1712814165686,-12459.386063468643
1712814165726,-24767.475198177155
1712814165766,-27306.210588675924
1712814165806,-27306.210588675924
1712814165847,-27306.210588675924
1712814165886,-27306.210588675924
1712814165927,-27306.210588675924
1712814165967,-27306.210588675924
1712814166007,-27306.210588675924
1712814166048,-27306.210588675924
1712814166087,-27306.210588675924
1712814166127,-27306.210588675924
1712814166167,-27306.210588675924
1712814166207,-24010.954198036343
1712814166249,-19985.473928151652
1712814166288,-15597.65170217352
1712814166328,-15597.65170217352
1712814166368,-15597.65170217352
1712814166408,-14374.491355647333
1712814166449,-14374.491355647333
1712814166488,-14374.491355647333
1712814166529,-11090.441687150858
1712814166569,-10289.25105992565
1712814166609,-7747.493561545853
1712814166650,-5234.339781785384
1712814166689,-4675.604901560582
1712814166729,-4675.604901560582
1712814166769,-4675.604901560582
1712814166809,-3843.8729413696565
1712814166851,-2986.6226693401113
1712814166890,-2824.8682230655104
1712814166930,-4675.604901560582
1712814166970,-2824.8682230655104
1712814167010,-2824.8682230655104
1712814167051,-2824.8682230655104
1712814167091,-2824.8682230655104
1712814167131,-2824.8682230655104
1712814167171,-2824.8682230655104
1712814167211,-2824.8682230655104
1712814167252,-2824.8682230655104
1712814167291,-2824.8682230655104
1712814167331,-2824.8682230655104
1712814167372,-5206.817459059879
1712814167412,-5206.817459059879
1712814167453,-6088.633898535278
1712814167492,-6270.380563131534
1712814167532,-6270.380563131534
1712814167572,-6270.380563131534
1712814167613,-6270.380563131534
1712814167654,-6270.380563131534
1712814167693,-6270.380563131534
1712814167733,-6270.380563131534
1712814167773,-14332.878532857634
1712814167813,-22614.691456719767
1712814167855,-28652.53301161155
1712814167894,-31118.38537938427
1712814167934,-35744.70697585773
1712814167974,-35744.70697585773
1712814168014,-35744.70697585773
1712814168055,-28652.53301161155
1712814168094,-22614.691456719767
1712814168135,-3386.565466984175
1712814168175,17443.269030032214
1712814168215,21720.135333689395
1712814168256,21720.135333689395
1712814168295,21720.135333689395
1712814168336,21720.135333689395
1712814168375,21720.135333689395
1712814168416,17443.269030032214
1712814168457,5175.462445287034
1712814168496,5175.462445287034
1712814168536,5175.462445287034
1712814168576,5175.462445287034
1712814168616,17443.269030032214
1712814168657,20096.14706453588
1712814168696,21720.135333689395
1712814168736,26612.026248247363
1712814168776,33570.03620026726
1712814168817,33570.03620026726
1712814168858,33570.03620026726
1712814168897,36082.52074568486
1712814168937,33570.03620026726
1712814168977,23749.959464355838
1712814169017,20096.14706453588
1712814169058,20096.14706453588
1712814169097,23749.959464355838
1712814169137,37980.50367920613
1712814169178,41564.36271771602
1712814169218,51223.9625862469
1712814169259,60035.32742460817
1712814169298,62888.001819984056
1712814169338,65469.19622515701
1712814169378,65469.19622515701
1712814169418,62888.001819984056
1712814169459,60035.32742460817
1712814169498,41564.36271771602
1712814169539,37980.50367920613
1712814169579,29529.76243427396
1712814169619,29529.76243427396
1712814169660,32806.86982970731
1712814169699,35544.98350878572
1712814169739,32806.86982970731
1712814169779,32806.86982970731
1712814169819,32806.86982970731
1712814169860,32806.86982970731
1712814169900,29529.76243427396
1712814169940,27850.41537895566
1712814169980,22401.43602011446
1712814170020,19173.35570238903
1712814170061,14577.679158716463
1712814170100,9910.017533082515
1712814170140,8204.331651542336
1712814170180,2180.48649605643
1712814170221,2180.48649605643
1712814170262,8204.331651542336
1712814170301,9910.017533082515
1712814170341,14577.679158716463
1712814170381,19173.35570238903
1712814170421,17521.849685874768
1712814170462,14767.962861182634
1712814170501,11484.46873935312
1712814170541,9910.017533082515
1712814170582,9488.532376786694
1712814170622,8204.331651542336
1712814170663,7666.81495446898
1712814170702,7666.81495446898
1712814170742,7666.81495446898
1712814170782,7666.81495446898
1712814170822,7666.81495446898
1712814170863,7666.81495446898
1712814170902,7666.81495446898
1712814170942,5740.146068950184
1712814170983,5740.146068950184
1712814171023,5740.146068950184
1712814171064,5660.663271752186
1712814171103,4687.947614978068
1712814171143,3907.772708466742
1712814171183,3717.1899000545964
1712814171223,3323.0646276166663
1712814171264,2974.938488206826
1712814171303,2929.7506429702044
1712814171344,2601.4821934383363
1712814171384,2207.870393377263
1712814171424,976.0093870009296
1712814171465,-2384.1318910992704
1712814171504,-6097.144406844862
1712814171544,-13054.514730794355
1712814171584,-14229.964885274414
1712814171624,-14699.727517974563
1712814171665,-14699.727517974563
1712814171705,-14699.727517974563
1712814171745,-15050.7357692956
1712814171785,-15732.511779025197
1712814171825,-16143.500952729955
1712814171866,-16985.109155877493
1712814171905,-17086.1652147891
1712814171945,-17116.85953208618
1712814171985,-17116.85953208618
1712814172025,-17720.271418871824
1712814172067,-17720.271418871824
1712814172106,-17116.85953208618
1712814172146,-17107.99708707165
1712814172186,-17086.1652147891
1712814172226,-16985.109155877493
1712814172267,-16739.598662471864
1712814172306,-16432.280130563304
1712814172346,-15732.511779025197
1712814172387,-15050.7357692956
1712814172427,-14699.727517974563
1712814172468,-14542.752356843092
1712814172507,-14542.752356843092
1712814172547,-14542.752356843092
1712814172587,-12404.53733802773
1712814172627,-12189.378502614796
1712814172669,-12160.994446117431
1712814172708,-11826.062670753803
1712814172748,-11141.776751502417
1712814172788,-10773.862721944228
1712814172828,-10246.57011933066
1712814172869,-9684.1571714608
1712814172908,-9525.589530392084
1712814172948,-9457.43649893161
1712814172989,-8954.643050665502
1712814173029,-8730.27009216277
1712814173070,-7683.420718406793
1712814173109,-7000.31525370758
1712814173149,-6009.992031481117
1712814173189,-6009.992031481117
1712814173229,-6009.992031481117
1712814173271,-6175.241604953073
1712814173310,-6009.992031481117
1712814173350,-5487.681966103148
1712814173390,-4924.500650983304
1712814173430,-4206.32603927888
1712814173471,-3955.8268635859713
1712814173511,-3913.923698587343
1712814173550,-3252.91141049657
1712814173591,-2954.0610160678625
1712814173631,-2652.4215627377853
1712814173672,-2373.458420233801
1712814173711,-2136.666721786838
1712814173751,-1330.3825933001935
1712814173791,-533.4922338798642
1712814173832,-477.22108639311045
1712814173873,-477.22108639311045
1712814173912,-477.22108639311045
1712814173952,-726.8345169187523
1712814173992,-316.67452734708786
1712814174032,-89.40402344800532
1712814174074,194.76287349592894
1712814174113,589.6260380735621
1712814174153,754.9169295439497
1712814174193,1047.9536516182125
1712814174233,1356.960934566334
1712814174274,1582.572330695577
1712814174314,2014.2804350936785
1712814174354,2781.957780071534
1712814174394,2929.661326553207
1712814174434,3225.975754668005
1712814174475,4114.118630031124
1712814174514,3225.975754668005
1712814174554,2781.957780071534
1712814174594,2226.1046686694026
1712814174634,2014.2804350936785
1712814174675,1356.960934566334
1712814174715,1356.960934566334
1712814174755,1356.960934566334
1712814174795,1356.960934566334
1712814174835,1356.960934566334
1712814174876,1356.960934566334
1712814174915,1708.1617889637128
1712814174955,2014.2804350936785
1712814174995,2226.1046686694026
1712814175035,2226.1046686694026
1712814175077,2226.1046686694026
1712814175116,2226.1046686694026
1712814175156,2226.1046686694026
1712814175196,2226.1046686694026
1712814175236,1913.4252322623506
1712814175277,1708.1617889637128
1712814175316,739.3837161557749
1712814175356,-331.3734137797728
1712814175396,-429.83957228437066
1712814175437,-429.83957228437066
1712814175478,-429.83957228437066
1712814175517,-429.83957228437066
1712814175557,-429.83957228437066
1712814175597,-429.83957228437066
1712814175637,447.47901900019497
1712814175678,739.3837161557749
1712814175717,1473.4733432987705
1712814175757,1473.4733432987705
1712814175797,1473.4733432987705
1712814175837,1473.4733432987705
1712814175878,1473.4733432987705
1712814175918,1473.4733432987705
1712814175958,1473.4733432987705
1712814175998,1473.4733432987705
1712814176038,447.47901900019497
1712814176079,-144.35284706018865
1712814176118,-144.35284706018865
1712814176158,-144.35284706018865
1712814176198,-144.35284706018865
1712814176238,-144.35284706018865
1712814176280,-144.35284706018865
1712814176319,447.47901900019497
1712814176359,941.6442344831303
1712814176399,1473.4733432987705
1712814176439,1536.5911859967746
1712814176480,1567.8303664494306
1712814176519,2317.8244839329273
1712814176559,2317.8244839329273
1712814176599,2317.8244839329273
1712814176640,2317.8244839329273
1712814176681,1567.8303664494306
1712814176720,1536.5911859967746
1712814176760,1299.5471268082038
1712814176800,941.6442344831303
1712814176840,-144.35284706018865
1712814176881,-201.4354346441105
1712814176920,-201.4354346441105
1712814176960,-201.4354346441105
1712814177001,-180.64482967369258
1712814177041,260.9180742138997
1712814177082,941.6442344831303
1712814177121,1299.5471268082038
1712814177161,1425.4497679844499
1712814177201,1425.4497679844499
1712814177241,1425.4497679844499
1712814177282,1425.4497679844499
1712814177322,1425.4497679844499
1712814177362,1299.5471268082038
1712814177402,260.9180742138997
1712814177442,-180.64482967369258
1712814177483,-338.0214479989372
1712814177522,-834.6529541653581
1712814177562,-834.6529541653581
1712814177602,-834.6529541653581
1712814177642,-834.6529541653581
1712814177683,-834.6529541653581
1712814177723,-834.6529541653581
1712814177763,-820.2003891263157
1712814177803,-338.0214479989372
1712814177843,-338.0214479989372
1712814177884,-338.0214479989372
1712814177923,-338.0214479989372
1712814177964,-338.0214479989372
1712814178004,-338.0214479989372
1712814178044,-338.0214479989372
1712814178085,-338.0214479989372
1712814178124,-820.2003891263157
1712814178164,-1623.3556977319531
1712814178204,-1955.9628076720983
1712814178244,-2220.299917208962
1712814178285,-2220.299917208962
1712814178325,-1623.3556977319531
1712814178365,-1585.4623894719407
1712814178405,-1506.63918652758
1712814178445,-1054.3687499435619
1712814178486,-820.2003891263157
1712814178525,-214.62393103912473
1712814178565,94.4163895137608
1712814178605,298.19777192920446
1712814178646,811.87480719015
1712814178687,811.87480719015
1712814178726,811.87480719015
1712814178766,811.87480719015
1712814178806,811.87480719015
1712814178846,811.87480719015
1712814178887,94.4163895137608
1712814178927,-214.62393103912473
1712814178967,-214.62393103912473
1712814179007,-214.62393103912473
1712814179047,-214.62393103912473
1712814179088,-214.62393103912473
1712814179127,-214.62393103912473
1712814179167,647.1360931796953
1712814179207,811.87480719015
1712814179247,944.9244450503029
1712814179288,1613.2602033498697
1712814179328,1627.155531551689
1712814179368,2564.4175535934046
1712814179408,2835.7045440846123
1712814179448,2835.7045440846123
1712814179489,2835.7045440846123
1712814179528,2835.7045440846123
1712814179568,2037.4376078424975
1712814179609,1613.2602033498697
1712814179649,944.9244450503029
1712814179690,647.1360931796953
1712814179729,647.1360931796953
1712814179769,647.1360931796953
1712814179809,647.1360931796953
1712814179849,647.1360931796953
1712814179890,781.5432188138366
1712814179930,1387.5278779305518
1712814179970,1613.2602033498697
1712814180010,2037.4376078424975
1712814180050,2496.4885581210256
1712814180091,2496.4885581210256
1712814180131,2496.4885581210256
1712814180171,2496.4885581210256
1712814180211,2496.4885581210256
1712814180251,2496.4885581210256
1712814180292,2037.4376078424975
1712814180331,1998.2892149076797
1712814180372,1387.5278779305518
1712814180412,781.5432188138366
1712814180452,781.5432188138366
1712814180493,781.5432188138366
1712814180532,947.3055625660345
1712814180572,1387.5278779305518
1712814180612,1603.207859987393
1712814180652,1998.2892149076797
1712814180693,2130.642781634815
1712814180733,2496.4885581210256
1712814180773,2852.215567447711
1712814180813,3720.9126099697314
1712814180853,3941.595396235585
1712814180894,3941.595396235585
1712814180933,3941.595396235585
1712814180973,3941.595396235585
1712814181013,3941.595396235585
1712814181053,3026.2167351804674
1712814181094,2852.215567447711
1712814181133,2852.215567447711
1712814181174,2852.215567447711
1712814181214,2856.5811897208914
1712814181254,2856.5811897208914
1712814181295,2856.5811897208914
1712814181334,2856.5811897208914
1712814181374,3026.2167351804674
1712814181414,3402.213049249258
1712814181454,4122.129733159207
1712814181495,4540.444054744206
1712814181534,4942.057670013048
1712814181575,4942.057670013048
1712814181615,4942.057670013048
1712814181655,4942.057670013048
1712814181696,4942.057670013048
1712814181735,4942.057670013048
1712814181775,4942.057670013048
1712814181815,4942.057670013048
1712814181855,4197.370459876489
1712814181896,4197.370459876489
1712814181936,4197.370459876489
1712814181976,4197.370459876489
1712814182016,4197.370459876489
1712814182056,4197.370459876489
1712814182097,4418.7148212837055
1712814182136,4796.8384039406665
1712814182176,4942.057670013048
1712814182216,5461.413230409846
1712814182256,5514.980582145974
1712814182297,6235.049601282924
1712814182337,6235.049601282924
1712814182377,6235.049601282924
1712814182417,6235.049601282924
1712814182457,6235.049601282924
1712814182498,6235.049601282924
1712814182537,6235.049601282924
1712814182578,6235.049601282924
1712814182618,6235.049601282924
1712814182658,7323.547871419229
1712814182699,7323.547871419229
1712814182738,7323.547871419229
1712814182778,7323.547871419229
1712814182818,7323.547871419229
1712814182858,7323.547871419229
1712814182899,7323.547871419229
1712814182939,7323.547871419229
1712814182979,7547.155079963617
1712814183019,7861.934853667859
1712814183059,8463.396453196183
1712814183100,8484.77737711696
1712814183139,8484.77737711696
1712814183179,8484.77737711696
1712814183219,8484.77737711696
1712814183260,8484.77737711696
1712814183300,8484.77737711696
1712814183340,8484.77737711696
1712814183380,8484.77737711696
1712814183420,8463.396453196183
1712814183460,8340.614760074299
1712814183501,8340.614760074299
1712814183540,8340.614760074299
1712814183580,8340.614760074299
1712814183621,8340.614760074299
1712814183661,8340.614760074299
1712814183701,8340.614760074299
1712814183741,8340.614760074299
1712814183781,8340.614760074299
1712814183821,8340.614760074299
1712814183861,8340.614760074299
1712814183903,8340.614760074299
1712814183942,8340.614760074299
1712814183983,8340.614760074299
1712814184023,8340.614760074299
1712814184063,8340.614760074299
1712814184104,8340.614760074299
1712814184143,8340.614760074299
1712814184183,8005.36966782622
1712814184223,7980.37269072514
1712814184264,7885.359791924246
1712814184304,7885.359791924246
1712814184344,7978.060243557207
1712814184384,7980.37269072514
1712814184424,8366.101451897062
1712814184464,8410.92947964929
1712814184505,8604.134313037153
1712814184545,8701.23238344863
1712814184585,8731.49836886162
1712814184625,8972.706891103182
1712814184665,9000.062611100264
1712814184706,9627.94974940084
1712814184745,9933.44412065018
1712814184785,10014.300015821122
1712814184826,9933.44412065018
1712814184866,9724.602998525836
1712814184907,9627.94974940084
1712814184946,8972.706891103182
1712814184986,8972.706891103182
1712814185026,8972.706891103182
1712814185067,8972.706891103182
1712814185107,8972.706891103182
1712814185147,8972.706891103182
1712814185187,8972.706891103182
1712814185227,8972.706891103182
1712814185267,8509.69724143669
1712814185308,8509.69724143669
1712814185347,8509.69724143669
1712814185387,8509.69724143669
1712814185428,8509.69724143669
1712814185468,8509.69724143669
1712814185509,8509.69724143669
1712814185548,7710.071515739895
1712814185588,7360.194331810344
1712814185628,7296.761716044042
1712814185669,6973.347601581365
1712814185709,6898.456892548129
1712814185749,6220.581511292607
1712814185789,5942.366773955524
1712814185829,5942.366773955524
1712814185869,5942.366773955524
1712814185910,5942.366773955524
1712814185950,5942.366773955524
1712814185990,4963.0880527198315
1712814186030,3512.9642732758075
1712814186070,3512.9642732758075
1712814186111,3512.9642732758075
1712814186151,3512.9642732758075
1712814186190,3512.9642732758075
1712814186231,3512.9642732758075
1712814186271,3338.876178858336
1712814186312,2058.810824329965
1712814186351,1970.4549305289984
1712814186392,1874.2064127949998
1712814186432,1805.538466625847
1712814186471,1612.0258648246527
1712814186512,1565.142561269924
1712814186552,1122.5935694924556
1712814186592,1056.0096012977883
1712814186632,1000.8348094588146
1712814186672,905.3007040135562
1712814186713,363.9419945301488
1712814186752,-48.68742627650499
1712814186792,-48.68742627650499
1712814186832,-48.68742627650499
1712814186873,-48.68742627650499
1712814186913,-48.68742627650499
1712814186953,-48.68742627650499
1712814186993,-48.68742627650499
1712814187033,-48.68742627650499
1712814187073,-434.42746608983725
1712814187114,-623.4805977675132
1712814187153,-1148.4523867452517
1712814187193,-1753.9041747292504
1712814187234,-2138.1386536406353
1712814187274,-2192.7464729170315
1712814187314,-1781.95330534596
1712814187354,-1753.9041747292504
1712814187394,-657.8340016882867
1712814187434,-623.4805977675132
1712814187474,-398.4264859207906
1712814187515,-48.68742627650499
1712814187554,197.54815442068502
1712814187594,483.05818151589483
1712814187634,483.05818151589483
1712814187675,483.05818151589483
1712814187716,483.05818151589483
1712814187755,483.05818151589483
1712814187795,483.05818151589483
1712814187835,483.05818151589483
1712814187875,197.54815442068502
1712814187916,197.54815442068502
1712814187956,197.54815442068502
1712814187996,197.54815442068502
1712814188036,197.54815442068502
1712814188076,197.54815442068502
1712814188117,197.54815442068502
1712814188156,197.54815442068502
1712814188196,197.54815442068502
1712814188236,197.54815442068502
1712814188276,-278.76162132574245
1712814188317,-801.4946268405765
1712814188357,-801.4946268405765
1712814188397,-801.4946268405765
1712814188437,-801.4946268405765
1712814188477,-801.4946268405765
1712814188518,-801.4946268405765
1712814188557,-801.4946268405765
1712814188597,-801.4946268405765
1712814188638,-1041.4210073719732
1712814188678,-1079.2000396493822
1712814188718,-1520.1714341104962
1712814188758,-2124.686564799398
1712814188798,-2124.686564799398
1712814188838,-2124.686564799398
1712814188878,-2124.686564799398
1712814188919,-2124.686564799398
1712814188958,-2124.686564799398
1712814188998,-1967.622784910258
1712814189039,-1079.2000396493822
1712814189079,-1041.4210073719732
1712814189119,-801.4946268405765
1712814189159,-493.3784511657432
1712814189199,-493.3784511657432
1712814189239,-493.3784511657432
1712814189280,-493.3784511657432
1712814189320,-493.3784511657432
1712814189360,-493.3784511657432
1712814189400,-493.3784511657432
1712814189440,-493.3784511657432
1712814189480,-493.3784511657432
1712814189521,-493.3784511657432
1712814189560,-493.3784511657432
1712814189600,-493.3784511657432
1712814189641,-493.3784511657432
1712814189681,-493.3784511657432
1712814189721,-493.3784511657432
1712814189761,-493.3784511657432
1712814189801,-493.3784511657432
1712814189841,-493.3784511657432
1712814189881,-263.4806939214468
1712814189922,-263.4806939214468
1712814189961,-263.4806939214468
1712814190002,-263.4806939214468
1712814190042,-263.4806939214468
1712814190082,-263.4806939214468
1712814190123,-263.4806939214468
1712814190162,-263.4806939214468
1712814190202,-263.4806939214468
1712814190243,-539.8548855017871
1712814190282,-1193.0077542820945
1712814190323,-1193.0077542820945
1712814190363,-1193.0077542820945
1712814190403,-1193.0077542820945
1712814190443,-1193.0077542820945
1712814190483,-1193.0077542820945
1712814190524,-1193.0077542820945
1712814190563,-1193.0077542820945
1712814190604,-1193.0077542820945
1712814190644,-2897.3937006518245
1712814190684,-4448.325769281946
1712814190725,-4448.325769281946
1712814190764,-4448.325769281946
1712814190804,-4448.325769281946
1712814190845,-4448.325769281946
1712814190885,-4448.325769281946
1712814190925,-4448.325769281946
1712814190965,-4448.325769281946
1712814191005,-4448.325769281946
1712814191045,-4448.325769281946
1712814191086,-4460.608039046172
1712814191126,-5112.6593703492545
1712814191166,-5112.6593703492545
1712814191206,-5112.6593703492545
1712814191246,-5112.6593703492545
1712814191286,-5112.6593703492545
1712814191327,-5112.6593703492545
1712814191366,-5112.6593703492545
1712814191406,-5112.6593703492545
1712814191447,-4448.325769281946
1712814191487,-4327.601565529592
1712814191528,-3335.4230329375714
1712814191567,-3105.0443840455264
1712814191607,-3105.0443840455264
1712814191647,-3105.0443840455264
1712814191688,-3105.0443840455264
1712814191728,-3105.0443840455264
1712814191768,-3105.0443840455264
1712814191808,-3105.0443840455264
1712814191848,-3105.0443840455264
1712814191888,-3096.4231113600545
1712814191929,-2044.8545777276158
1712814191968,-1900.108799493406
1712814192008,-1900.108799493406
1712814192049,-1900.108799493406
1712814192089,-1773.7794875297695
1712814192130,-1597.7591045638546
1712814192169,-1481.220965076238
1712814192209,-1258.0409177266993
1712814192249,-969.1709769340232
1712814192290,-852.5723281921819
1712814192330,-493.2900200812146
1712814192370,-58.341410112567246
1712814192410,351.881749490276
1712814192450,727.388628740795
1712814192490,727.388628740795
1712814192531,727.388628740795
1712814192570,727.388628740795
1712814192610,727.388628740795
1712814192650,727.388628740795
1712814192690,727.388628740795
1712814192731,727.388628740795
1712814192771,727.388628740795
1712814192811,727.388628740795
1712814192851,727.388628740795
1712814192891,907.6361240847036
1712814192932,1365.7849118527956
1712814192971,1677.026154738851
1712814193011,1739.9032938671298
1712814193051,2205.958219105378
1712814193091,2602.5047560771927
1712814193132,2602.5047560771927
1712814193172,2602.5047560771927
1712814193212,2602.5047560771927
1712814193252,2602.5047560771927
1712814193292,2602.5047560771927
1712814193333,2602.5047560771927
1712814193372,2205.958219105378
1712814193412,1779.0992306917906
1712814193452,1779.0992306917906
1712814193493,1779.0992306917906
1712814193533,2205.958219105378
1712814193573,2301.2431927770376
1712814193613,2312.679969803896
1712814193653,2508.5769448457286
1712814193693,2602.5047560771927
1712814193734,3218.368253983557
1712814193773,3365.215173930861
1712814193813,3721.1606944864616
1712814193853,3786.5586531092413
1712814193893,4030.4277285151184
1712814193934,4660.609254173469
1712814193974,4854.049196589738
1712814194014,5066.17278470099
1712814194054,5066.17278470099
1712814194094,5066.17278470099
1712814194135,4660.609254173469
1712814194174,4660.609254173469
1712814194214,4660.609254173469
1712814194254,4660.609254173469
1712814194294,4660.609254173469
1712814194335,4660.609254173469
1712814194375,4660.609254173469
1712814194415,4660.609254173469
1712814194455,5393.975234682672
1712814194495,5393.975234682672
1712814194536,5651.345374478959
1712814194575,5990.799685229547
1712814194615,6076.3777385926805
1712814194655,6279.459602000192
1712814194696,7132.120700255502
1712814194736,7322.446212448645
1712814194776,7322.446212448645
1712814194816,7322.446212448645
1712814194856,7083.093875607476
1712814194896,6279.459602000192
1712814194937,4552.620868157595
1712814194976,4552.620868157595
1712814195016,4552.620868157595
1712814195057,4552.620868157595
1712814195097,4552.620868157595
1712814195137,4552.620868157595
1712814195177,4552.620868157595
1712814195217,4552.620868157595
1712814195257,4552.620868157595
1712814195297,2944.388122295961
1712814195338,2944.388122295961
1712814195377,2944.388122295961
1712814195418,2944.388122295961
1712814195458,2944.388122295961
1712814195498,2691.679188778624
1712814195539,2511.9915705607273
1712814195578,2444.8653696421534
1712814195618,1473.01122171944
1712814195658,1196.240317165386
1712814195698,1092.1410643127747
1712814195739,986.9304200420156
1712814195779,649.9187351958826
1712814195819,649.9187351958826
1712814195859,649.9187351958826
1712814195899,649.9187351958826
1712814195939,486.4386069253087
1712814195978,486.4386069253087
1712814196019,486.4386069253087
1712814196059,486.4386069253087
1712814196099,486.4386069253087
1712814196140,486.4386069253087
1712814196179,486.4386069253087
1712814196219,277.0417054328136
1712814196259,-994.0800762092695
1712814196299,-1077.8949566381052
1712814196340,-1077.8949566381052
1712814196380,-1077.8949566381052
1712814196420,-1077.8949566381052
1712814196460,-1077.8949566381052
1712814196500,-1077.8949566381052
1712814196541,-1077.8949566381052
1712814196580,-994.0800762092695
1712814196621,-994.0800762092695
1712814196661,-994.0800762092695
1712814196701,-988.8939035981894
1712814196742,-807.9793165875599
1712814196781,494.2868088851683
1712814196821,494.2868088851683
1712814196862,1136.750216589775
1712814196902,1136.750216589775
1712814196943,1136.750216589775
1712814196982,1136.750216589775
1712814197022,1012.8353128731251
1712814197062,1451.232757567428
1712814197103,1451.232757567428
1712814197143,1976.65357486438
1712814197183,3119.2956889551133
1712814197223,3178.724981502164
1712814197263,3178.724981502164
1712814197303,3491.020946756471
1712814197344,3491.020946756471
1712814197384,4072.9729306055233
1712814197424,4091.229980976321
1712814197464,4362.410068622325
1712814197504,4362.410068622325
1712814197545,4362.410068622325
1712814197584,4091.229980976321
1712814197625,4072.9729306055233
1712814197665,3986.166082174983
1712814197705,3876.6516823312268
1712814197746,3491.020946756471
1712814197785,3491.020946756471
1712814197825,3491.020946756471
1712814197865,3876.6516823312268
1712814197906,3986.166082174983
1712814197947,4091.229980976321
1712814197986,4091.229980976321
1712814198026,5487.688941102009
1712814198066,5659.741466075648
1712814198106,6253.586659040768
1712814198147,7715.315602152143
1712814198187,7858.714190843981
1712814198227,8081.382059504278
1712814198267,8422.255463476293
1712814198307,8877.020460717846
1712814198348,8318.81231830595
1712814198387,8318.81231830595
1712814198428,8318.81231830595
1712814198468,8877.020460717846
1712814198508,9334.244897095487
1712814198549,9334.244897095487
1712814198588,9334.244897095487
1712814198628,9334.244897095487
1712814198668,9334.244897095487
1712814198708,9334.244897095487
1712814198749,9334.244897095487
1712814198788,9334.244897095487
1712814198828,8318.81231830595
1712814198869,8298.75533613097
1712814198909,8041.973628098145
1712814198949,8041.022923998535
1712814198989,5577.143607651815
1712814199029,5525.330932115205
1712814199069,5052.292559714057
1712814199109,4722.52749423217
1712814199150,4274.67496799957
1712814199189,3934.0619142740034
1712814199229,3592.6100012911484
1712814199270,3568.3916544625536
1712814199310,1819.1006696373224
1712814199350,1233.6720404159278
1712814199390,1233.6720404159278
1712814199430,1233.6720404159278
1712814199470,1233.6720404159278
1712814199510,565.1570103326812
1712814199551,128.03127310983837
1712814199590,-379.71665365993977
1712814199631,-506.3800934883766
1712814199671,-905.2584676989354
1712814199711,-1045.6586535531096
1712814199752,-2794.2548199919984
1712814199791,-2798.996891397517
1712814199831,-3278.895139983855
1712814199871,-4136.6898833671585
1712814199911,-4321.227679377887
1712814199952,-4965.965214584954
1712814199991,-4965.965214584954
1712814200031,-4965.965214584954
1712814200072,-4965.965214584954
1712814200112,-4965.965214584954
1712814200153,-4965.965214584954
1712814200192,-4965.965214584954
1712814200232,-4965.965214584954
1712814200272,-4965.965214584954
1712814200312,-4965.965214584954
1712814200353,-4965.965214584954
1712814200393,-3287.143303000368
1712814200433,27430.725481785834
1712814200473,27757.747540200595
1712814200513,27757.747540200595
1712814200554,31965.767694696784
1712814200593,32082.148934134748
1712814200633,34960.77237484371
1712814200673,36496.77722159866
1712814200714,39466.30542156147
1712814200754,40895.62097766157
1712814200794,44016.84287757613
1712814200834,44016.84287757613
1712814200874,44016.84287757613
1712814200914,44016.84287757613
1712814200955,44016.84287757613
1712814200994,44016.84287757613
1712814201034,44016.84287757613
1712814201075,44016.84287757613
1712814201115,44016.84287757613
1712814201156,45474.10483790934
1712814201195,46070.11469145026
1712814201235,49064.42945354385
1712814201275,51616.66123201698
1712814201316,51616.66123201698
1712814201356,51616.66123201698
1712814201396,51616.66123201698
1712814201436,51616.66123201698
1712814201476,51616.66123201698
1712814201516,48111.49273107294
1712814201557,54168.477173727006
1712814201596,59117.43059137324
1712814201636,59647.30006318865
1712814201676,63079.88883750746
1712814201716,64593.04691788042
1712814201757,70817.6940832641
1712814201797,70817.6940832641
1712814201837,70817.6940832641
1712814201877,72103.60430621076
1712814201917,74422.07773551252
1712814201958,74422.07773551252
1712814201997,74422.07773551252
1712814202038,72103.60430621076
1712814202078,71002.66315534525
1712814202118,69343.73123934865
1712814202159,69343.73123934865
1712814202198,69343.73123934865
1712814202238,69343.73123934865
1712814202278,69343.73123934865
1712814202318,69343.73123934865
1712814202359,69343.73123934865
1712814202399,69343.73123934865
1712814202439,61493.08809504844
1712814202479,59083.568859574385
1712814202519,56855.25865838025
1712814202560,54839.923572843894
1712814202599,41448.96620421158
1712814202639,35863.62923235493
1712814202679,35458.195184017066
1712814202719,34318.608742679935
1712814202760,33825.842631885316
1712814202800,30944.648216435686
1712814202840,30439.64724544715
1712814202880,27762.767837942578
1712814202920,25859.40534819616
1712814202961,19064.11503159022
1712814203000,9402.727311123163
1712814203041,-22.34638538211584
1712814203081,-4674.334641543683
1712814203121,-4674.334641543683
1712814203162,-4674.334641543683
1712814203201,-4674.334641543683
1712814203241,-4674.334641543683
1712814203281,-4674.334641543683
1712814203321,-4674.334641543683
1712814203362,-4674.334641543683
1712814203402,-4674.334641543683
1712814203442,-4674.334641543683
1712814203482,-4674.334641543683
1712814203522,1844.989855665248
1712814203563,11896.540767299943
1712814203603,14612.183509083465
1712814203643,14612.183509083465
1712814203683,14612.183509083465
1712814203723,14612.183509083465
1712814203764,14612.183509083465
1712814203803,14612.183509083465
1712814203843,14612.183509083465
1712814203883,15915.836174392141
1712814203924,15963.27764020767
1712814203965,16103.990564288106
1712814204004,16195.339281597175
1712814204044,16195.339281597175
1712814204084,16103.990564288106
1712814204124,15963.27764020767
1712814204165,15915.836174392141
1712814204205,14612.183509083465
1712814204245,14252.150293585379
1712814204285,9973.865373130888
1712814204325,9828.787105075084
1712814204366,4200.052096297964
1712814204405,2966.6624018102884
1712814204446,-219.353066239506
1712814204486,-758.1267214543186
1712814204526,-2351.6564093148336
1712814204567,-19485.474616348278
1712814204606,-19485.474616348278
1712814204646,-19485.474616348278
1712814204686,-21243.747131395154
1712814204726,-30548.66179389786
1712814204767,-36598.27269244101
1712814204807,-54492.537884539925
1712814204847,-58809.07192578446
1712814204887,-58820.664770089556
1712814204927,-67642.88805652363
1712814204968,-68368.83645638172
1712814205007,-68853.22426025663
1712814205047,-68368.83645638172
1712814205087,-68155.48935539275
1712814205127,-67642.88805652363
1712814205168,-66935.70800215285
1712814205207,-64934.44106717734
1712814205247,-64920.601976199076
1712814205288,-64920.601976199076
1712814205328,-64934.44106717734
1712814205369,-64934.44106717734
1712814205408,-64934.44106717734
1712814205448,-64934.44106717734
1712814205488,-64934.44106717734
1712814205528,-64934.44106717734
1712814205569,-64934.44106717734
1712814205608,-64920.601976199076
1712814205649,-64140.7372364765
1712814205689,-64140.7372364765
1712814205729,-63943.65035914024
1712814205770,-63823.390091094654
1712814205809,-44027.17927399697
1712814205849,-44027.17927399697
1712814205889,-44027.17927399697
1712814205929,-44027.17927399697
1712814205970,-44027.17927399697
1712814206010,-44027.17927399697
1712814206050,-40664.21846767608
1712814206090,-39582.141420716885
1712814206130,-39582.141420716885
1712814206171,-34377.63375573186
1712814206210,-33059.00526768481
1712814206250,-29466.308377164416
1712814206290,-29466.308377164416
1712814206330,-29466.308377164416
1712814206372,-29466.308377164416
1712814206411,-29466.308377164416
1712814206451,-29466.308377164416
1712814206491,-29466.308377164416
1712814206531,-29466.308377164416
1712814206572,-29466.308377164416
1712814206611,-29466.308377164416
1712814206651,-29318.277536385227
1712814206692,-26387.352345199324
1712814206732,-25614.8992233756
1712814206773,-24146.875927824527
1712814206812,-21987.50129513163
1712814206852,-19245.95107884286
1712814206892,-19139.087254598737
1712814206932,-19032.447233397514
1712814206973,-18555.642934661824
1712814207012,-17669.5523661389
1712814207053,-17378.23186894227
1712814207093,-17355.22503834963
1712814207133,-17100.909564386588
1712814207174,-16947.395362941083
1712814207213,-15977.774473810568
1712814207253,-15564.508602338843
1712814207293,-14263.348679839633
1712814207334,-13563.354808246251
1712814207375,-11581.732833337039
1712814207414,-10910.961897625588
1712814207454,-10609.365471820347
1712814207494,-10601.204783422407
1712814207534,-10074.149713873863
1712814207575,-9378.759331500158
1712814207614,-9018.61033966858
1712814207655,-8896.810261697974
1712814207695,-8853.325435383711
1712814207735,-8548.508004067466
1712814207776,-8283.52097113058
1712814207815,-7873.586103858426
1712814207855,-7540.888666462153
1712814207895,-7517.831292755902
1712814207935,-7430.893081318121
1712814207979,-6955.038212441839
1712814208019,-6955.038212441839
1712814208059,-6457.1641480783
1712814208099,-6093.460060925223
1712814208139,-5999.678596004844
1712814208180,-5999.678596004844
1712814208219,-5803.93295364175
1712814208259,-5662.480087317526
1712814208299,-5533.7281885091215
1712814208339,-5414.2348128613085
1712814208381,-5398.326101092156
1712814208420,-5015.344009463675
1712814208460,-4951.573889520951
1712814208500,-4884.503341985401
1712814208540,-4884.503341985401
1712814208581,-4884.503341985401
1712814208620,-4884.503341985401
1712814208661,-4884.503341985401
1712814208701,-5015.344009463675
1712814208741,-5139.858906467911
1712814208782,-5139.858906467911
1712814208821,-5139.858906467911
1712814208861,-5139.858906467911
1712814208902,-5139.858906467911
1712814208941,-5139.858906467911
1712814208983,-5398.326101092156
1712814209022,-5139.858906467911
1712814209062,-4612.818925382104
1712814209102,-4462.974520495627
1712814209142,-4237.298600754701
1712814209183,-3076.9946830179542
1712814209222,-3076.9946830179542
1712814209263,-3076.9946830179542
1712814209303,-3076.9946830179542
1712814209343,-3076.9946830179542
1712814209384,-3076.9946830179542
1712814209423,-3076.9946830179542
1712814209463,1872.2040058425628
1712814209503,7819.205437594093
1712814209543,8571.854337853845
1712814209584,13219.296620249748
1712814209624,13219.296620249748
1712814209664,13219.296620249748
1712814209704,13219.296620249748
1712814209744,13219.296620249748
1712814209785,13219.296620249748
1712814209824,13219.296620249748
1712814209865,13219.296620249748
1712814209905,13219.296620249748
1712814209945,13219.296620249748
1712814209986,13219.296620249748
1712814210025,9593.832689763978
1712814210065,9593.832689763978
1712814210106,9593.832689763978
1712814210146,9593.832689763978
1712814210187,9593.832689763978
1712814210226,9593.832689763978
1712814210266,9593.832689763978
1712814210306,9593.832689763978
1712814210346,9593.832689763978
1712814210387,9593.832689763978
1712814210426,9593.832689763978
1712814210467,17698.69680405408
1712814210507,17698.69680405408
1712814210547,17698.69680405408
1712814210588,17698.69680405408
1712814210627,17698.69680405408
1712814210667,17698.69680405408
1712814210707,17698.69680405408
1712814210747,17698.69680405408
1712814210788,17698.69680405408
1712814210827,17698.69680405408
1712814210867,17698.69680405408
1712814210908,15240.818642227445
1712814210948,6943.4635616615415
1712814210989,-2511.51636248501
1712814211028,-3162.438896703534
1712814211068,-9251.614225022495
1712814211108,-13628.152445606887
1712814211148,-19137.370036645327
1712814211189,-22243.032131666318
1712814211228,-22326.302909216844
1712814211268,-22326.302909216844
1712814211309,-22326.302909216844
1712814211349,-22326.302909216844
1712814211389,-22326.302909216844
1712814211429,-24216.658839495387
1712814211469,-27359.35139872227
1712814211509,-34504.720488321036
1712814211549,-40343.82513519004
1712814211590,-41222.56302864943
1712814211629,-42583.42369011324
1712814211670,-43300.06153886579
1712814211710,-46861.68950376846
1712814211750,-47352.6645968887
1712814211791,-47352.6645968887
1712814211830,-47560.60848937137
1712814211870,-47560.60848937137
1712814211910,-47352.6645968887
1712814211950,-46861.68950376846
1712814211991,-46861.68950376846
1712814212031,-46861.68950376846
1712814212070,-46861.68950376846
1712814212111,-46861.68950376846
1712814212151,-46861.68950376846
1712814212191,-46861.68950376846
1712814212231,-46861.68950376846
1712814212271,-46702.96689430531
1712814212311,-44962.489299756475
1712814212351,-43156.24128920492
1712814212392,-33277.37555414438
1712814212431,-32684.11164854467
1712814212472,-30846.868983525317
1712814212512,-28090.802832123358
1712814212552,-28090.802832123358
1712814212593,-28090.802832123358
1712814212632,-28090.802832123358
1712814212672,-28090.802832123358
1712814212712,-26533.66076730378
1712814212752,-24377.941320265643
1712814212793,-19405.50624689646
1712814212832,-17768.81380902184
1712814212873,-16160.750832318328
1712814212913,-16152.418555459939
1712814212953,-15670.19160737563
1712814212994,-12553.260967239272
1712814213033,-12448.313933756202
1712814213073,-12448.313933756202
1712814213113,-12448.313933756202
1712814213153,-12448.313933756202
1712814213194,-12448.313933756202
1712814213234,-12448.313933756202
1712814213274,-12553.260967239272
1712814213314,-12553.260967239272
1712814213354,-12553.260967239272
1712814213395,-12553.260967239272
1712814213434,-12553.260967239272
1712814213474,-12553.260967239272
1712814213514,-12553.260967239272
1712814213554,-15676.433875118848
1712814213595,-15676.433875118848
1712814213635,-15676.433875118848
1712814213675,-14090.764554481022
1712814213715,-14090.764554481022
1712814213755,-14090.764554481022
1712814213796,-14090.764554481022
1712814213835,-14090.764554481022
1712814213875,-14090.764554481022
1712814213915,-14090.764554481022
1712814213956,-14090.764554481022
1712814213996,-14090.764554481022
1712814214036,-14090.764554481022
1712814214076,-14090.764554481022
1712814214116,-13747.98037937656
1712814214156,-13747.98037937656
1712814214197,-13747.98037937656
1712814214236,-12931.79649430979
1712814214276,-12747.588325475343
1712814214317,-12619.129969375208
1712814214357,-12127.551741830539
1712814214398,-11958.621799437795
1712814214437,-11566.75183629524
1712814214477,-11444.119406088721
1712814214517,-11433.245276202448
1712814214557,-11148.71569674369
1712814214598,-10873.172679160722
1712814214638,-10719.388969500083
1712814214678,-10719.388969500083
1712814214718,-10459.380685971119
1712814214758,-10113.444150471594
1712814214799,-9967.857465778012
1712814214838,-9948.681860144716
1712814214878,-9272.590181666426
1712814214919,-8820.240368193015
1712814214959,-8597.57929020049
1712814215000,-8422.105859497562
1712814215039,-8105.327441339381
1712814215079,-7683.57339169085
1712814215119,-7189.752963934094
1712814215160,-7135.718155731447
1712814215200,-6814.4282916360535
1712814215240,-6388.123620023951
1712814215280,-6262.6006117668
1712814215320,-6117.752716799732
1712814215360,-5592.305875186808
1712814215401,-5592.305875186808
1712814215440,-5545.742336343043
1712814215481,-5123.623286649585
1712814215521,-4027.9778259396553
1712814215561,-3740.1081200679764
1712814215602,-3359.527374193538
1712814215641,-3298.741109231487
1712814215681,-2885.718346006237
1712814215722,-2003.3711584853008
1712814215762,-1480.1683145519346
1712814215803,-1364.1266259821132
1712814215842,-1090.6306942594238
1712814215882,-1085.2852008612826
1712814215922,-1071.6593110971153
1712814215962,-765.2262183381245
1712814216003,-731.4667132841423
1712814216043,-731.4667132841423
1712814216083,-352.88084297068417
1712814216123,-352.88084297068417
1712814216166,-352.88084297068417
1712814216204,-352.88084297068417
1712814216244,-352.88084297068417
1712814216284,-352.88084297068417
1712814216324,-346.2230447428301
1712814216364,-252.36888588406146
1712814216405,-64.70023202244192
1712814216444,59.082238383591175
1712814216485,550.0056954449974
1712814216525,620.4747959980741
1712814216565,622.4492079657502
1712814216606,1400.3926996411756
1712814216645,1514.3456428316422
1712814216685,1589.9262009402737
1712814216725,1589.9262009402737
1712814216765,1400.3926996411756
1712814216806,863.4266927223653
1712814216846,622.4492079657502
1712814216886,620.4747959980741
1712814216926,620.4747959980741
1712814216966,620.4747959980741
1712814217007,620.4747959980741
1712814217046,620.4747959980741
1712814217086,620.4747959980741
1712814217126,620.4747959980741
1712814217166,620.4747959980741
1712814217207,-60.83421564567834
1712814217247,-565.692682955414
1712814217287,-565.692682955414
1712814217327,-565.692682955414
1712814217367,-565.692682955414
1712814217408,-859.8747291052714
1712814217447,-1245.4399093957618
1712814217487,-1465.1852653604
1712814217527,-1493.1071811853908
1712814217568,-1874.8498125215992
1712814217608,-1877.530308034271
1712814217648,-1970.4923120811582
1712814217688,-1970.4923120811582
1712814217728,-2124.610260898713
1712814217768,-2210.0153016829863
1712814217809,-3172.4854715610854
1712814217848,-4930.50469112955
1712814217888,-4930.50469112955
1712814217929,-4930.50469112955
1712814217969,-4930.50469112955
1712814218009,-4930.50469112955
1712814218049,-4930.50469112955
1712814218089,-5520.063809260726
1712814218129,-5677.132829672657
1712814218169,-5857.223618139047
1712814218210,-5883.569136495236
1712814218249,-5944.002703853417
1712814218290,-6075.276228587143
1712814218330,-6075.276228587143
1712814218373,-6075.276228587143
1712814218411,-6075.276228587143
1712814218450,-5883.569136495236
1712814218490,-5857.223618139047
1712814218530,-5677.132829672657
1712814218570,-5520.063809260726
1712814218611,-4930.50469112955
1712814218651,-4480.335570784286
1712814218691,-4394.296701760031
1712814218731,-4394.296701760031
1712814218771,-4401.338905964978
1712814218812,-4480.335570784286
1712814218851,-5438.570857117884
1712814218891,-5857.223618139047
1712814218931,-6498.83965339046
1712814218972,-6498.83965339046
1712814219013,-6498.83965339046
1712814219052,-6498.83965339046
1712814219092,-6498.83965339046
1712814219132,-5564.301173916552
1712814219172,-5438.570857117884
1712814219213,-4480.335570784286
1712814219253,-4401.338905964978
1712814219293,-4137.660194151569
1712814219333,-4137.660194151569
1712814219373,-4137.660194151569
1712814219414,-3999.2706743977033
1712814219453,-4401.338905964978
1712814219493,-5438.570857117884
1712814219533,-5564.301173916552
1712814219573,-5892.904755173251
1712814219614,-7073.7578284167685
1712814219654,-7265.155037196819
1712814219694,-7168.051057053264
1712814219734,-7168.051057053264
1712814219774,-7168.051057053264
1712814219815,-7073.7578284167685
1712814219855,-6344.0580785069615
1712814219895,-5892.904755173251
1712814219935,-5564.301173916552
1712814219975,-4658.744574717246
1712814220013,-4658.744574717246
1712814220052,-4658.744574717246
1712814220092,-5892.904755173251
1712814220132,-6344.0580785069615
1712814220173,-6352.447090353817
1712814220213,-7128.404077921528
1712814220253,-7128.404077921528
1712814220293,-7128.404077921528
1712814220333,-6553.372526399326
1712814220373,-6352.447090353817
1712814220414,-6344.0580785069615
1712814220454,-6344.0580785069615
1712814220494,-6344.0580785069615
1712814220534,-6336.883501280099
1712814220574,-6265.834192578681
1712814220615,-5264.978271356784
1712814220654,-4658.744574717246
1712814220694,-4632.848639103584
1712814220735,-4632.848639103584
1712814220775,-4632.848639103584
1712814220816,-5264.978271356784
1712814220855,-5419.618176302873
1712814220895,-6180.0582263236865
1712814220935,-6180.0582263236865
1712814220975,-6180.0582263236865
1712814221016,-5419.618176302873
1712814221056,-5264.978271356784
1712814221096,-4995.276997364126
1712814221136,-4995.276997364126
1712814221176,-4926.109566596337
1712814221217,-4926.109566596337
1712814221257,-4600.576366534457
1712814221297,-4542.525890438817
1712814221337,-4154.050095516257
1712814221377,-3485.2725473260507
1712814221418,-3485.2725473260507
1712814221457,-3485.2725473260507
1712814221497,-3485.2725473260507
1712814221538,-4542.525890438817
1712814221578,-4600.576366534457
1712814221619,-4926.109566596337
1712814221658,-4925.584774224088
1712814221698,-4600.576366534457
1712814221738,-4542.525890438817
1712814221779,-4220.1000066054985
1712814221819,-4150.414624016732
1712814221859,-3928.911733988207
1712814221899,-3821.224265806377
1712814221939,-3472.4648756915703
1712814221979,-2856.2186638135463
1712814222020,-2726.3990205698647
1712814222059,-2569.1867369906977
1712814222100,-2569.1867369906977
1712814222140,-2569.1867369906977
1712814222180,-2569.1867369906977
1712814222221,-2569.1867369906977
1712814222260,-2569.1867369906977
1712814222300,-2569.1867369906977
1712814222340,-1754.1552611300722
1712814222381,-1754.1552611300722
1712814222421,-1754.1552611300722
1712814222461,-1609.7445728583261
1712814222501,-1327.1195826656185
1712814222541,-1143.2764536873437
1712814222581,-1143.2764536873437
1712814222622,-1123.7238594307564
1712814222661,-1055.697774861008
1712814222701,-714.3619169490412
1712814222741,-424.85506425611675
1712814222781,-258.70072619011626
1712814222822,398.47198054380715
1712814222862,398.47198054380715
1712814222902,398.47198054380715
1712814222942,398.47198054380715
1712814222982,398.47198054380715
1712814223023,398.47198054380715
1712814223062,80.17278101295233
1712814223102,80.17278101295233
1712814223142,80.17278101295233
1712814223182,80.17278101295233
1712814223223,80.17278101295233
1712814223263,80.17278101295233
1712814223303,80.17278101295233
1712814223343,80.17278101295233
1712814223383,80.17278101295233
1712814223424,80.17278101295233
1712814223463,80.17278101295233
1712814223503,-1155.483631230425
1712814223543,-1155.483631230425
1712814223583,-1155.483631230425
1712814223624,-1155.483631230425
1712814223663,-1155.483631230425
1712814223704,-1155.483631230425
1712814223744,-1226.4354836093262
1712814223784,-1749.621394939255
1712814223825,-2120.3077357001603
1712814223864,-2458.0095440852456
1712814223904,-2584.0774650676176
1712814223944,-2781.5425257142633
1712814223984,-2781.5425257142633
1712814224025,-2781.5425257142633
1712814224065,-2781.5425257142633
1712814224105,-2781.5425257142633
1712814224145,-2781.5425257142633
1712814224185,-2781.5425257142633
1712814224226,-2781.5425257142633
1712814224265,-2120.3077357001603
1712814224305,-2120.3077357001603
1712814224345,-2120.3077357001603
1712814224386,-2120.3077357001603
1712814224426,-2120.3077357001603
1712814224466,-2120.3077357001603
1712814224506,-2120.3077357001603
1712814224546,-2319.377139281947
1712814224586,-2532.488685874734
1712814224627,-2532.488685874734
1712814224666,-2532.488685874734
1712814224706,-2319.377139281947
1712814224747,-2071.854273254052
1712814224787,-2012.2598230051808
1712814224828,-1900.945073689334
1712814224867,-1850.2302151387557
1712814224907,-1555.201610690914
1712814224947,-1312.2650568010285
1712814224987,-1289.9277302743867
1712814225028,-687.9705706965178
1712814225068,-687.9705706965178
1712814225108,-490.7920645973645
1712814225148,-490.7920645973645
1712814225188,-490.7920645973645
1712814225229,-490.7920645973645
1712814225268,-920.6080745821819
1712814225308,-1289.9277302743867
1712814225349,-920.6080745821819
1712814225389,-594.0005812360905
1712814225430,-490.7920645973645
1712814225469,33.322144008241594
1712814225509,57.41116782044992
1712814225549,148.42305485531688
1712814225589,259.435096972622
1712814225630,341.1831927159801
1712814225670,538.2341946903616
1712814225710,868.4437416289002
1712814225750,1214.084467038978
1712814225790,1227.9404619177803
1712814225831,1227.9404619177803
1712814225870,868.4437416289002
1712814225910,538.2341946903616
1712814225951,341.1831927159801
1712814225991,259.435096972622
1712814226032,148.42305485531688
1712814226071,148.42305485531688
1712814226111,148.42305485531688
1712814226151,148.42305485531688
1712814226191,148.42305485531688
1712814226232,259.435096972622
1712814226272,341.1831927159801
1712814226312,538.2341946903616
1712814226352,608.7335700457916
1712814226392,868.4437416289002
1712814226433,1487.936921239365
1712814226473,1487.936921239365
1712814226513,1487.936921239365
1712814226553,1487.936921239365
1712814226593,1487.936921239365
1712814226634,608.7335700457916
1712814226673,-821.7487316420302
1712814226713,608.7335700457916
1712814226754,12087.248668381013
1712814226794,14514.729196544737
1712814226835,16800.238551555667
1712814226874,19520.738121216185
1712814226914,22209.155326183885
1712814226954,23946.56201383751
1712814226994,25304.37248285394
1712814227035,28591.719648765866
1712814227075,31552.60121289827
1712814227115,31552.60121289827
1712814227155,31552.60121289827
1712814227195,31552.60121289827
1712814227236,35190.15203221422
1712814227275,35190.15203221422
1712814227316,35190.15203221422
1712814227356,35190.15203221422
1712814227396,35190.15203221422
1712814227437,35190.15203221422
1712814227476,35190.15203221422
1712814227516,35190.15203221422
1712814227557,35190.15203221422
1712814227597,21630.85616028635
1712814227638,7078.7354071242735
1712814227677,4950.9061419512145
1712814227717,-7292.744006946683
1712814227757,-10407.032183122821
1712814227798,-13132.642047117464
1712814227838,-13924.441749230027
1712814227878,-29035.36369611323
1712814227918,-29035.36369611323
1712814227958,-29035.36369611323
1712814227998,-29035.36369611323
1712814228039,-29035.36369611323
1712814228078,-29035.36369611323
1712814228118,-29035.36369611323
1712814228159,-29035.36369611323
1712814228199,-29035.36369611323
1712814228239,-29035.36369611323
1712814228279,-29035.36369611323
1712814228319,-17212.91047638096
1712814228359,-5142.899691944011
1712814228399,8550.678162097
1712814228440,9403.962675939314
1712814228479,11861.765959432349
1712814228519,14198.669800811447
1712814228559,14217.456874886993
1712814228600,15729.05772568006
1712814228640,16670.795769966207
1712814228680,17065.140096647665
1712814228720,23378.030260638334
1712814228760,32272.80846874742
1712814228800,47778.44379545376
1712814228841,58129.31262558326
1712814228880,64323.13562360499
1712814228920,64323.13562360499
1712814228960,64323.13562360499
1712814229001,64323.13562360499
1712814229041,68744.41270145308
1712814229081,69793.97462833207
1712814229121,70469.60399671458
1712814229161,76568.8616103651
1712814229201,78210.03653471032
1712814229242,78210.03653471032
1712814229281,78210.03653471032
1712814229321,78210.03653471032
1712814229361,78210.03653471032
1712814229401,76568.8616103651
1712814229442,69793.97462833207
1712814229482,68941.93314134981
1712814229522,68744.41270145308
1712814229562,68229.8345599547
1712814229602,68229.8345599547
1712814229643,68229.8345599547
1712814229682,66498.84818011522
1712814229722,65763.87640360929
1712814229762,65763.87640360929
1712814229802,65763.87640360929
1712814229843,65763.87640360929
1712814229883,64360.118868332356
1712814229923,61499.10258970503
1712814229963,58368.882278985344
1712814230003,56665.51010479778
1712814230044,51748.403447899036
1712814230083,49335.77594482899
1712814230123,47913.5897280667
1712814230163,34302.2136949976
1712814230203,1038.622327761259
1712814230244,-7960.718359772116
1712814230284,-10008.234457684215
1712814230324,-10008.234457684215
1712814230364,-10780.220037799329
1712814230404,-10780.220037799329
1712814230445,-11050.423860049807
1712814230484,-11490.450379014015
1712814230524,-11626.717148183845
1712814230565,-12531.916544978973
1712814230605,-13499.645503605716
1712814230645,-13576.53692143783
1712814230685,-14540.487845150288
1712814230725,-14540.487845150288
1712814230765,-14540.487845150288
1712814230805,-13576.53692143783
1712814230846,-13499.645503605716
1712814230885,-12531.916544978973
1712814230926,-12531.916544978973
1712814230966,-12531.916544978973
1712814231006,-12285.40728019178
1712814231047,-11626.717148183845
1712814231086,-11626.717148183845
1712814231126,-12285.40728019178
1712814231166,-13576.53692143783
1712814231206,-14540.487845150288
1712814231247,-14865.769473378547
1712814231287,-15799.836889001075
1712814231327,-17062.143512780312
1712814231367,-18144.904595151078
1712814231407,-18144.904595151078
1712814231447,-18597.477959936485
1712814231487,-21297.98586247675
1712814231527,-24693.91392738279
1712814231567,-25768.474183787126
1712814231607,-25768.474183787126
1712814231648,-25768.474183787126
1712814231688,-25768.474183787126
1712814231728,-25768.474183787126
1712814231768,-25768.474183787126
1712814231808,-26218.64646964241
1712814231849,-32512.573933092877
1712814231888,-38332.20516778715
1712814231928,-38332.20516778715
1712814231968,-38332.20516778715
1712814232009,-38332.20516778715
1712814232048,-38332.20516778715
1712814232088,-33459.01769131981
1712814232128,-26218.64646964241
1712814232168,-25534.669830777682
1712814232208,-24681.74129977962
1712814232249,-23640.70572709851
1712814232288,-23219.34323843103
1712814232329,-22497.474309730344
1712814232369,-22231.952468824107
1712814232409,-21091.629538898356
1712814232450,-13732.823886503465
1712814232489,-11191.013650179375
1712814232529,-10411.146078093909
1712814232569,-10411.146078093909
1712814232610,-10411.146078093909
1712814232651,-4346.05654557934
1712814232690,-1191.9283606633544
1712814232730,2214.057130554691
1712814232770,11817.342475991696
1712814232810,13947.362202202901
1712814232851,13947.362202202901
1712814232891,13947.362202202901
1712814232931,13947.362202202901
1712814232971,13947.362202202901
1712814233011,13947.362202202901
1712814233052,13947.362202202901
1712814233092,14813.707753893454
1712814233132,24641.415142391343
1712814233172,24641.415142391343
1712814233212,24641.415142391343
1712814233253,24641.415142391343
1712814233292,24641.415142391343
1712814233332,22546.436606264673
1712814233372,22546.436606264673
1712814233413,22546.436606264673
1712814233454,21245.46546773892
1712814233493,21228.185684367083
1712814233533,19339.045949744992
1712814233573,18982.13309567049
1712814233613,18982.13309567049
1712814233654,18982.13309567049
1712814233694,19339.045949744992
1712814233734,19498.259787206538
1712814233774,20155.244634338655
1712814233814,20155.244634338655
1712814233855,20155.244634338655
1712814233894,20155.244634338655
1712814233935,19498.259787206538
1712814233975,19339.045949744992
1712814234015,19290.50428358745
1712814234056,19290.50428358745
1712814234095,19290.50428358745
1712814234135,19290.50428358745
1712814234175,18982.13309567049
1712814234216,18439.72247570008
1712814234256,17088.57979404833
1712814234296,14904.268511518836
1712814234336,13935.25688943686
1712814234376,13859.393248330802
1712814234416,13705.907496914268
1712814234457,13580.632285195403
1712814234496,13423.753043818288
1712814234536,12988.66478094086
1712814234576,12319.890689839609
1712814234616,12238.718901594635
1712814234657,12058.77190715354
1712814234697,12000.642637032084
1712814234737,11488.644248459022
1712814234777,11313.211170998402
1712814234817,10807.779909521341
1712814234858,10763.423848259263
1712814234897,9153.590905103832
1712814234937,7917.786802814808
1712814234977,6536.030298023485
1712814235018,5640.684632301796
1712814235058,5640.684632301796
1712814235098,5625.618706404697
1712814235138,5419.901956352405
1712814235178,4440.134782273788
1712814235218,4420.345338420477
1712814235259,4222.488063292578
1712814235298,3952.870908372104
1712814235338,3881.189574918244
1712814235378,3734.9077928955667
1712814235418,3667.6454704748467
1712814235459,3655.6108295088634
1712814235499,3618.4178536883555
1712814235539,3604.9236075803638
1712814235579,1812.5534914815798
1712814235619,1005.6809499608353
1712814235660,1005.6809499608353
1712814235699,1005.6809499608353
1712814235739,1005.6809499608353
1712814235779,1005.6809499608353
1712814235819,836.393248740118
1712814235860,336.1304537560791
1712814235900,313.69456146936864
1712814235940,211.50050064362586
1712814235980,-233.14564475603402
1712814236020,-478.6402016011998
1712814236061,-915.6862411894836
1712814236100,-915.6862411894836
1712814236140,-915.6862411894836
1712814236181,-915.6862411894836
1712814236221,-915.6862411894836
1712814236261,-953.2277378696017
1712814236301,-1667.3978221863508
1712814236341,-1667.3978221863508
1712814236381,-1667.3978221863508
1712814236421,-1667.3978221863508
1712814236462,-1667.3978221863508
1712814236501,-1667.3978221863508
1712814236541,-1667.3978221863508
1712814236582,-1667.3978221863508
1712814236622,-2022.0738760326058
1712814236662,-2176.3442097082734
1712814236702,-2753.6502338647842
1712814236742,-2931.154532247223
1712814236782,-2931.154532247223
1712814236822,-2931.154532247223
1712814236863,-2931.154532247223
1712814236902,-2931.154532247223
1712814236943,-2931.154532247223
1712814236983,-2931.154532247223
1712814237023,-2753.6502338647842
1712814237064,-2176.3442097082734
1712814237103,-2120.985758784227
1712814237143,-2120.985758784227
1712814237183,-2120.985758784227
1712814237223,-2120.985758784227
1712814237264,-2931.154532247223
1712814237304,-3386.4693429218605
1712814237344,-3794.566522603389
1712814237384,-3855.7425319999456
1712814237424,-4089.8976621697657
1712814237465,-4267.526200356893
1712814237504,-4639.167192382272
1712814237545,-4639.167192382272
1712814237584,-4434.965975014493
1712814237625,-4267.526200356893
1712814237666,-4003.2049601431936
1712814237705,-3855.7425319999456
1712814237745,-3794.566522603389
1712814237785,-3539.6604259251617
1712814237825,-3539.6604259251617
1712814237866,-3539.6604259251617
1712814237906,-3794.566522603389
1712814237946,-4003.2049601431936
1712814237986,-4434.965975014493
1712814238026,-4725.870380087756
1712814238067,-4731.900167812593
1712814238106,-4811.852067559026
1712814238146,-4811.852067559026
1712814238186,-4811.852067559026
1712814238226,-4794.038197556045
1712814238267,-4731.900167812593
1712814238307,-4725.870380087756
1712814238347,-4525.455229010433
1712814238387,-4434.965975014493
1712814238427,-4003.2049601431936
1712814238468,-3539.6604259251617
1712814238508,-3363.8536044126377
1712814238548,-3363.8536044126377
1712814238588,-3363.8536044126377
1712814238628,-4181.589557396248
1712814238668,-4525.455229010433
1712814238708,-4725.870380087756
1712814238748,-4794.038197556045
1712814238788,-4794.038197556045
1712814238828,-4794.038197556045
1712814238869,-4794.038197556045
1712814238909,-4794.038197556045
1712814238949,-4525.455229010433
1712814238989,-4181.589557396248
1712814239029,-3891.7333954824135
1712814239070,-3363.8536044126377
1712814239109,-3177.875973631162
1712814239149,-2987.4229465564713
1712814239189,-2987.4229465564713
1712814239230,-2987.4229465564713
1712814239270,-3177.875973631162
1712814239310,-3891.7333954824135
1712814239350,-4181.589557396248
1712814239390,-4342.206021883991
1712814239430,-5398.923547307029
1712814239471,-5407.485355056357
1712814239510,-5398.923547307029
1712814239551,-5096.56504881382
1712814239591,-4508.174543585163
1712814239631,-4342.206021883991
1712814239672,-4259.598731112666
1712814239711,-4088.671050586272
1712814239751,-3891.7333954824135
1712814239791,-3823.492743294686
1712814239832,-3823.492743294686
1712814239873,-3823.492743294686
1712814239912,-3823.492743294686
1712814239952,-4088.671050586272
1712814239992,-4259.598731112666
1712814240032,-4342.206021883991
1712814240073,-4508.174543585163
1712814240113,-5096.56504881382
1712814240153,-5096.56504881382
1712814240193,-5096.56504881382
1712814240233,-5096.56504881382
1712814240274,-4519.561135889962
1712814240313,-4508.174543585163
1712814240353,-4259.598731112666
1712814240394,-4088.671050586272
1712814240434,-3823.492743294686
1712814240474,-3660.011120285839
1712814240514,-3477.0283344271593
1712814240554,-3477.0283344271593
1712814240594,-3477.0283344271593
1712814240634,-3660.011120285839
1712814240675,-4186.636110979598
1712814240714,-4519.561135889962
1712814240754,-5289.679279180244
1712814240794,-5289.679279180244
1712814240834,-5289.679279180244
1712814240875,-5289.679279180244
1712814240915,-5289.679279180244
1712814240955,-5289.679279180244
1712814240995,-5236.293633341789
1712814241035,-4519.561135889962
1712814241076,-4211.952771721408
1712814241115,-4186.636110979598
1712814241155,-4186.636110979598
1712814241195,-4186.636110979598
1712814241235,-4186.636110979598
1712814241276,-4186.636110979598
1712814241316,-4186.636110979598
1712814241356,-4211.952771721408
1712814241396,-5236.293633341789
1712814241436,-5460.734419902787
1712814241477,-5508.134093155153
1712814241516,-5508.134093155153
1712814241556,-5508.134093155153
1712814241596,-5508.134093155153
1712814241637,-5460.734419902787
1712814241677,-5390.9559912756085
1712814241717,-5236.293633341789
1712814241757,-4985.143287781626
1712814241797,-4352.70401997678
1712814241837,-4211.952771721408
1712814241878,-4169.749279879499
1712814241917,-4169.749279879499
1712814241958,-4169.749279879499
1712814241998,-4169.749279879499
1712814242038,-4169.749279879499
1712814242079,-4169.749279879499
1712814242118,-4169.749279879499
1712814242158,-3550.521579353139
1712814242198,-3469.3316581100225
1712814242239,-3045.561319622677
1712814242279,-2897.9799141767435
1712814242319,-2896.748504961841
1712814242359,-2671.4857892738655
1712814242399,-2084.8647211566567
1712814242439,-2058.9755051741377
1712814242480,-1902.7223509945907
1712814242519,-1880.472674109973
1712814242559,-1445.0573023743927
1712814242600,-1348.466322299093
1712814242640,-509.0995582868345
1712814242680,-177.11964110657573
1712814242720,-177.11964110657573
1712814242760,-177.11964110657573
1712814242800,-282.3203691197559
1712814242840,-509.0995582868345
1712814242881,-509.0995582868345
1712814242921,-509.0995582868345
1712814242961,-282.3203691197559
1712814243001,-177.11964110657573
1712814243041,68.8760863575153
1712814243082,459.59469568077475
1712814243121,1222.0732879526913
1712814243161,1535.5339091951028
1712814243202,1669.815494322218
1712814243242,1738.4430002225563
1712814243282,2920.292809288949
1712814243322,2922.5441906652413
1712814243362,2922.5441906652413
1712814243402,2922.5441906652413
1712814243442,2922.5441906652413
1712814243483,2920.292809288949
1712814243523,2488.6607718104497
1712814243563,2488.6607718104497
1712814243603,2488.6607718104497
1712814243643,2488.6607718104497
1712814243684,2488.6607718104497
1712814243723,2488.6607718104497
1712814243763,2920.292809288949
1712814243804,2929.7253511794843
1712814243844,3137.9911799775437
1712814243884,3648.9112465819344
1712814243924,3929.541381116491
1712814243964,3929.541381116491
1712814244004,4187.313415150158
1712814244044,4187.313415150158
1712814244086,4187.313415150158
1712814244125,4187.313415150158
1712814244166,4187.313415150158
1712814244206,4187.313415150158
1712814244246,4130.370987414848
1712814244287,3648.9112465819344
1712814244326,4130.370987414848
1712814244366,4130.370987414848
1712814244407,4130.370987414848
1712814244447,4130.370987414848
1712814244487,4130.370987414848
1712814244527,4130.370987414848
1712814244567,4130.370987414848
1712814244607,4272.72808026569
1712814244647,4295.070286878385
1712814244688,4299.5465403860435
1712814244728,5153.834139193408
1712814244768,5153.834139193408
1712814244808,5153.834139193408
1712814244848,5153.834139193408
1712814244889,5153.834139193408
1712814244928,4295.070286878385
1712814244968,4272.72808026569
1712814245009,4130.370987414848
1712814245049,4111.473419901915
1712814245089,3922.761563291773
1712814245129,3922.761563291773
1712814245169,3739.552303051576
1712814245209,3739.552303051576
1712814245250,3739.552303051576
1712814245290,3739.552303051576
1712814245330,3739.552303051576
1712814245370,3739.552303051576
1712814245410,3666.7170172436163
1712814245450,3666.7170172436163
1712814245491,3666.7170172436163
1712814245530,3666.7170172436163
1712814245571,3666.7170172436163
1712814245611,3634.1837812252343
1712814245651,3523.0510576302186
1712814245692,3498.6126992409118
1712814245731,3454.7055957783014
1712814245771,3284.528555629775
1712814245811,3167.6144670369104
1712814245852,3167.6144670369104
1712814245893,3167.6144670369104
1712814245932,3167.6144670369104
1712814245972,2872.3393966816366
1712814246012,1606.668465564493
1712814246052,-2048.0842329827137
1712814246093,-2317.9035627408884
1712814246133,-2785.222449854482
1712814246173,-2785.222449854482
1712814246213,-2785.222449854482
1712814246253,-2785.222449854482
1712814246293,-2899.9315302483737
1712814246333,-2963.7689504427835
1712814246373,-3018.650091648102
1712814246413,-3043.456093961373
1712814246453,-3355.116037656553
1712814246494,-3374.249921807088
1712814246533,-3427.5508539485745
1712814246574,-3571.1430468987674
1712814246613,-3755.340087881312
1712814246654,-4163.101431959309
1712814246695,-5269.281892076135
1712814246734,-5976.747818695381
1712814246774,-7340.246138744988
1712814246814,-7340.246138744988
1712814246854,-7340.246138744988
1712814246895,-7340.246138744988
1712814246934,-7340.246138744988
1712814246974,-7340.246138744988
1712814247014,-7340.246138744988
1712814247055,-8343.57038617786
1712814247095,-8453.921227818355
1712814247135,-8734.96865038015
1712814247175,-8747.168348583393
1712814247215,-8953.21931460686
1712814247255,-8747.168348583393
1712814247296,-8734.96865038015
1712814247335,-8592.654772282578
1712814247375,-8453.921227818355
1712814247416,-8021.9143376126885
1712814247455,-7992.176908057649
1712814247496,-7560.638838076033
1712814247536,-7340.246138744988
1712814247576,-7152.433696644381
1712814247616,-7061.642634643707
1712814247656,-6931.57555625122
1712814247697,-6931.57555625122
1712814247736,-7152.433696644381
1712814247776,-7560.638838076033
1712814247816,-7992.176908057649
1712814247857,-8021.9143376126885
1712814247897,-8021.9143376126885
1712814247937,-8021.9143376126885
1712814247977,-8021.9143376126885
1712814248017,-8021.9143376126885
1712814248057,-7992.176908057649
1712814248098,-7784.904065082781
1712814248137,-7560.638838076033
1712814248177,-6931.57555625122
1712814248218,-6827.926409969106
1712814248258,-5838.307310751174
1712814248298,-5838.307310751174
1712814248338,-5838.307310751174
1712814248378,-5838.307310751174
1712814248418,-5838.307310751174
1712814248458,-6827.926409969106
1712814248499,-6916.716310182586
1712814248538,-7202.696280808188
1712814248578,-7202.696280808188
1712814248619,-6916.716310182586
1712814248659,-6865.198291149922
1712814248699,-5838.307310751174
1712814248739,-5367.890319764148
1712814248779,-5119.390005044639
1712814248819,-4751.910786730237
1712814248859,-4178.362167895772
1712814248900,-3960.05391792953
1712814248940,-3321.5259619639255
1712814248980,-3180.26733637508
1712814249020,-3180.26733637508
1712814249060,-3180.26733637508
1712814249101,-3321.5259619639255
1712814249140,-3960.05391792953
1712814249180,-4104.124138784595
1712814249221,-4751.910786730237
1712814249261,-4751.910786730237
1712814249301,-4751.910786730237
1712814249341,-4721.752152883448
1712814249381,-4104.124138784595
1712814249421,-4008.6914541912265
1712814249461,-3960.05391792953
1712814249502,-3572.482292681467
1712814249541,-3180.26733637508
1712814249582,-2372.853244408034
1712814249622,-1911.1201081858017
1712814249662,-1911.1201081858017
1712814249703,-1911.1201081858017
1712814249742,-1911.1201081858017
1712814249782,-1911.1201081858017
1712814249822,-1911.1201081858017
1712814249862,-1911.1201081858017
1712814249903,-1606.299241525121
1712814249943,-1606.299241525121
1712814249983,-1497.6357366023585
1712814250023,-1232.0886646034196
1712814250063,-597.6995922625065
1712814250104,-590.8848963789642
1712814250143,-434.6657560421154
1712814250183,-278.85120774712414
1712814250223,616.7336423425004
1712814250264,921.2547995541245
1712814250304,929.1538561419584
1712814250344,1583.8996904953383
1712814250384,1658.8583481730893
1712814250424,2326.3449270194396
1712814250464,2474.4522289186716
1712814250505,2474.4522289186716
1712814250545,2474.4522289186716
1712814250585,3420.0680969711393
1712814250625,4999.142088025808
1712814250665,6082.907037008554
1712814250706,6650.049561326858
1712814250745,6823.792083338834
1712814250785,6897.5557867940515
1712814250825,7315.69031161163
1712814250865,7448.575302485377
1712814250906,7497.695003534667
1712814250946,7519.458197671454
1712814250986,7625.997307681013
1712814251026,7703.691142829135
1712814251066,8549.475262048189
1712814251107,8587.352681886405
1712814251146,9103.806138403248
1712814251186,9621.237555833533
1712814251227,9621.237555833533
1712814251267,9621.237555833533
1712814251307,9621.237555833533
1712814251347,9621.237555833533
1712814251387,9621.237555833533
1712814251427,9621.237555833533
1712814251467,9621.237555833533
1712814251508,9621.237555833533
1712814251548,9621.237555833533
1712814251588,9621.237555833533
1712814251628,9621.237555833533
1712814251668,9621.237555833533
1712814251709,9621.237555833533
1712814251748,9679.130370063707
1712814251788,9679.130370063707
1712814251829,9679.130370063707
1712814251869,9679.130370063707
1712814251910,9679.130370063707
1712814251949,9679.130370063707
1712814251989,9679.130370063707
1712814252029,9679.130370063707
1712814252069,9679.130370063707
1712814252110,9387.670538825449
1712814252150,9314.363260081038
1712814252190,9267.208728703205
1712814252230,9267.208728703205
1712814252270,9267.208728703205
1712814252311,9267.208728703205
1712814252350,9180.04798908066
1712814252390,9096.086571424734
1712814252430,9083.683956967667
1712814252471,8861.060337905772
1712814252511,8861.060337905772
1712814252551,8123.540989164263
1712814252591,8123.540989164263
1712814252631,8123.540989164263
1712814252671,8123.540989164263
1712814252712,8123.540989164263
1712814252751,8123.540989164263
1712814252791,8016.243283265736
1712814252832,7640.987273802981
1712814252871,7584.169274404645
1712814252912,7536.693605685607
1712814252952,7461.914622230455
1712814252992,7225.639856603928
1712814253032,7223.187567229848
1712814253072,7223.187567229848
1712814253113,7223.187567229848
1712814253152,7223.187567229848
1712814253192,7223.187567229848
1712814253232,6214.45652214624
1712814253272,6214.45652214624
1712814253313,6214.45652214624
1712814253353,6214.45652214624
1712814253393,6214.45652214624
1712814253433,6214.45652214624
1712814253473,6214.45652214624
1712814253514,6214.45652214624
1712814253553,6117.9624042594805
1712814253593,6083.298713281751
1712814253634,6066.281288364902
1712814253674,6062.643698066007
1712814253714,6062.643698066007
1712814253754,6062.643698066007
1712814253794,5894.756760888733
1712814253834,5575.893713145517
1712814253874,5575.893713145517
1712814253915,5152.98953875294
1712814253954,4859.023859845009
1712814253994,3358.114981483668
1712814254035,3358.114981483668
1712814254075,3358.114981483668
1712814254116,3358.114981483668
1712814254155,3173.2884899894707
1712814254195,3136.2736817523837
1712814254235,2824.0831947042607
1712814254276,2584.552708009258
1712814254316,2540.561892259866
1712814254356,2515.362965481356
1712814254396,2498.3550894521177
1712814254436,2494.043465490453
1712814254476,2443.30287880823
1712814254517,1854.9373859735206
1712814254556,1629.6241486906074
1712814254596,1138.3310939446092
1712814254636,-1774.4916089144535
1712814254676,-1774.4916089144535
1712814254717,-1774.4916089144535
1712814254757,-1774.4916089144535
1712814254797,-1774.4916089144535
1712814254837,-1774.4916089144535
1712814254877,-2516.042863880284
1712814254918,-3040.6536079263315
1712814254957,-3233.0739993345924
1712814254997,-3243.4010417792015
1712814255038,-3536.2007170952857
1712814255078,-3676.913878223859
1712814255119,-3689.0114601803944
1712814255158,-3689.0114601803944
1712814255198,-3689.0114601803944
1712814255238,-3689.0114601803944
1712814255278,-3843.473741502501
1712814255319,-4859.33105398668
1712814255359,-4859.33105398668
1712814255399,-4859.33105398668
1712814255439,-4859.33105398668
1712814255479,-4859.33105398668
1712814255520,-4859.33105398668
1712814255559,-4859.33105398668
1712814255599,-4859.33105398668
1712814255639,-4859.33105398668
1712814255679,-5917.4513307898305
1712814255720,-5929.128366241232
1712814255760,-5947.928778006695
1712814255800,-5947.928778006695
1712814255840,-5947.928778006695
1712814255880,-5947.928778006695
1712814255921,-5947.928778006695
1712814255961,-5947.928778006695
1712814256001,-5947.928778006695
1712814256041,-5917.4513307898305
1712814256081,-5781.15804475965
1712814256123,-4859.33105398668
1712814256162,-4428.516070012003
1712814256202,-4428.516070012003
1712814256242,-4428.516070012003
1712814256283,-4428.516070012003
1712814256324,-4428.516070012003
1712814256363,-4428.516070012003
1712814256403,-4428.516070012003
1712814256443,-4428.516070012003
1712814256483,-4380.684189618565
1712814256524,-4380.684189618565
1712814256564,-4380.684189618565
1712814256604,-4380.684189618565
1712814256644,-4380.684189618565
1712814256684,-4380.684189618565
1712814256725,-4380.684189618565
1712814256765,-4380.684189618565
1712814256805,-4380.684189618565
1712814256845,-4208.838238671888
1712814256885,-4017.930793507956
1712814256926,-3154.0823918129317
1712814256965,-3154.0823918129317
1712814257006,-3154.0823918129317
1712814257046,-3154.0823918129317
1712814257086,-3154.0823918129317
1712814257127,-3154.0823918129317
1712814257166,-3154.0823918129317
1712814257206,-3154.0823918129317
1712814257246,-3154.0823918129317
1712814257287,-2516.5527249034494
1712814257327,-1672.6985302027315
1712814257367,-1672.6985302027315
1712814257407,-960.3873801557347
1712814257447,-960.3873801557347
1712814257487,-960.3873801557347
1712814257528,-960.3873801557347
1712814257568,-916.7802239772864
1712814257608,-862.6363881984726
1712814257648,-379.2349432464689
1712814257688,-131.75591478776187
1712814257729,277.3971072579734
1712814257769,556.3602151433006
1712814257809,1161.048110073898
1712814257849,1731.6937198187225
1712814257889,1731.6937198187225
1712814257930,1731.6937198187225
1712814257969,1731.6937198187225
1712814258010,1731.6937198187225
1712814258049,1731.6937198187225
1712814258089,2391.7058081151918
1712814258130,4005.7711852309294
1712814258170,4005.7711852309294
1712814258210,4005.7711852309294
1712814258250,4005.7711852309294
1712814258290,4005.7711852309294
1712814258331,4005.7711852309294
1712814258370,4005.7711852309294
1712814258410,4005.7711852309294
1712814258450,4005.7711852309294
1712814258491,4065.6844988949597
1712814258531,4200.365537056234
1712814258571,4360.733235042542
1712814258611,4360.733235042542
1712814258651,4360.733235042542
1712814258691,4360.733235042542
1712814258732,4360.733235042542
1712814258771,4360.733235042542
1712814258811,4360.733235042542
1712814258852,4360.733235042542
1712814258892,4360.733235042542
1712814258932,4360.733235042542
1712814258972,5491.562199854758
1712814259012,5491.562199854758
1712814259052,5491.562199854758
1712814259092,5491.562199854758
1712814259133,5491.562199854758
1712814259172,5491.562199854758
1712814259213,5491.562199854758
1712814259253,5491.562199854758
1712814259293,5491.562199854758
1712814259334,5491.562199854758
1712814259373,5491.562199854758
1712814259413,4443.65004386846
1712814259453,4443.65004386846
1712814259493,4443.65004386846
1712814259534,4443.65004386846
1712814259574,4443.65004386846
1712814259614,4443.65004386846
1712814259654,4443.65004386846
1712814259694,4443.65004386846
1712814259735,4443.65004386846
1712814259774,4443.65004386846
1712814259814,4443.65004386846
1712814259854,4969.562665675767
1712814259894,4969.562665675767
1712814259935,4969.562665675767
1712814259975,4969.562665675767
1712814260015,4969.562665675767
1712814260055,4969.562665675767
1712814260095,4969.562665675767
1712814260136,4969.562665675767
1712814260175,4969.562665675767
1712814260215,4969.562665675767
1712814260255,5174.890986876562
1712814260296,5184.533609701786
1712814260336,5184.533609701786
1712814260376,5184.533609701786
1712814260416,5184.533609701786
1712814260456,5184.533609701786
1712814260496,5184.533609701786
1712814260537,5184.533609701786
1712814260576,5184.533609701786
1712814260616,5184.533609701786
1712814260657,5174.890986876562
1712814260697,4875.956125486642
1712814260737,4714.75142259337
1712814260777,4714.75142259337
1712814260817,4714.75142259337
1712814260857,4517.6245629223995
1712814260897,4517.6245629223995
1712814260938,4514.125663975719
1712814260977,4514.125663975719
1712814261018,4514.125663975719
1712814261058,3711.5589516516775
1712814261098,2797.753790461924
1712814261139,2797.753790461924
1712814261178,2797.753790461924
1712814261218,2797.753790461924
1712814261258,2797.753790461924
1712814261298,2797.753790461924
1712814261339,2797.753790461924
1712814261379,2797.753790461924
1712814261419,2797.753790461924
1712814261459,2319.1996602788568
1712814261499,2283.868451902643
1712814261540,2220.5447415653616
1712814261579,2143.5247276835144
1712814261620,1738.6858400758356
1712814261660,1474.236732000485
1712814261700,1474.236732000485
1712814261741,1191.0558690251783
1712814261780,1125.326688164845
1712814261820,1125.326688164845
1712814261860,1125.326688164845
1712814261900,698.9800210501999
1712814261941,698.9800210501999
1712814261981,698.9800210501999
1712814262021,698.9800210501999
1712814262061,698.9800210501999
1712814262101,698.9800210501999
1712814262142,698.9800210501999
1712814262181,698.9800210501999
1712814262222,698.9800210501999
1712814262262,698.9800210501999
1712814262302,698.9800210501999
1712814262343,1281.4225785764866
1712814262382,1281.4225785764866
1712814262422,1281.4225785764866
1712814262462,1281.4225785764866
1712814262502,1281.4225785764866
1712814262543,1281.4225785764866
1712814262583,1281.4225785764866
1712814262623,1281.4225785764866
1712814262663,1281.4225785764866
1712814262703,1281.4225785764866
1712814262744,1281.4225785764866
1712814262783,278.94896171055734
1712814262824,278.94896171055734
1712814262864,278.94896171055734
1712814262904,278.94896171055734
1712814262945,278.94896171055734
1712814262984,278.94896171055734
1712814263024,278.94896171055734
1712814263065,278.94896171055734
1712814263105,278.94896171055734
1712814263145,278.94896171055734
1712814263185,278.94896171055734
1712814263225,-44.9971664743498
1712814263265,-44.9971664743498
1712814263306,-44.9971664743498
1712814263346,-44.9971664743498
1712814263386,-44.9971664743498
1712814263426,-44.9971664743498
1712814263466,-44.9971664743498
1712814263506,-44.9971664743498
1712814263547,-44.9971664743498
1712814263586,-44.9971664743498
1712814263627,-44.9971664743498
1712814263667,-2019.8923750603572
1712814263707,-2098.1509991204366
1712814263748,-2098.1509991204366
1712814263787,-2098.1509991204366
1712814263827,-2098.1509991204366
1712814263867,-2098.1509991204366
1712814263908,-2098.1509991204366
1712814263948,-2098.1509991204366
1712814263988,-2098.1509991204366
1712814264028,-2098.1509991204366
1712814264068,-2605.4513532747515
1712814264108,-2866.2728646253236
1712814264149,-2912.669663065113
1712814264188,-3002.5598958926275
1712814264228,-3002.5598958926275
1712814264268,-3002.5598958926275
1712814264308,-3002.5598958926275
1712814264349,-3002.5598958926275
1712814264389,-3002.5598958926275
1712814264429,-3002.5598958926275
1712814264469,-3002.5598958926275
1712814264509,-4646.347108033486
1712814264550,-5689.235182846896
1712814264589,-5692.3888460421
1712814264629,-5692.3888460421
1712814264669,-5692.3888460421
1712814264709,-5692.3888460421
1712814264750,-5692.3888460421
1712814264790,-5692.3888460421
1712814264830,-5692.3888460421
1712814264870,-5692.3888460421
1712814264910,-6217.250941320322
1712814264951,-6590.530379889067
1712814264990,-6705.427093943115
1712814265030,-6705.427093943115
1712814265070,-7174.469971305691
1712814265111,-7174.469971305691
1712814265151,-7174.469971305691
1712814265191,-7174.469971305691
1712814265231,-7174.469971305691
1712814265271,-7174.469971305691
1712814265311,-7174.469971305691
1712814265352,-8630.39874094259
1712814265391,-10547.822882700711
1712814265431,-10547.822882700711
1712814265472,-10547.822882700711
1712814265512,-10547.822882700711
1712814265552,-10547.822882700711
1712814265592,-10547.822882700711
1712814265632,-10547.822882700711
1712814265672,-10547.822882700711
1712814265712,-10846.871788393706
1712814265753,-11341.476766251959
1712814265792,-11426.786300291773
1712814265833,-11662.530154707376
1712814265873,-12178.15483233612
1712814265913,-12280.07433899492
1712814265954,-12280.07433899492
1712814265993,-12280.07433899492
1712814266033,-12280.07433899492
1712814266073,-12280.07433899492
1712814266113,-12280.07433899492
1712814266154,-13427.415723632555
1712814266194,-13427.415723632555
1712814266234,-13427.415723632555
1712814266274,-13427.415723632555
1712814266314,-13427.415723632555
1712814266355,-13427.415723632555
1712814266394,-13427.415723632555
1712814266434,-13427.415723632555
1712814266474,-13427.415723632555
1712814266514,-13427.415723632555
1712814266555,-13661.548888651188
1712814266595,-13862.222992441151
1712814266635,-13666.082949463278
1712814266675,-13666.082949463278
1712814266715,-13666.082949463278
1712814266756,-13661.548888651188
1712814266795,-13655.636122712865
1712814266835,-13652.393280840479
1712814266875,-13507.31097898446
1712814266916,-12995.974151926115
1712814266956,-12903.31181009626
1712814266996,-12353.151411548257
1712814267036,-12274.933199962601
1712814267076,-12274.933199962601
1712814267116,-12274.933199962601
1712814267157,-12274.933199962601
1712814267196,-12274.933199962601
1712814267236,-12903.31181009626
1712814267277,-12995.974151926115
1712814267317,-13507.31097898446
1712814267358,-13652.393280840479
1712814267397,-13652.393280840479
1712814267437,-13652.393280840479
1712814267477,-13652.393280840479
1712814267518,-13652.393280840479
1712814267558,-13507.31097898446
1712814267598,-12995.974151926115
1712814267638,-12918.451598125044
1712814267678,-12328.791343123652
1712814267718,-12274.933199962601
1712814267759,-11649.939489733428
1712814267798,-11649.939489733428
1712814267838,-11649.939489733428
1712814267879,-11649.939489733428
1712814267919,-11649.939489733428
1712814267960,-12156.361513240263
1712814267999,-12328.791343123652
1712814268039,-12918.451598125044
1712814268079,-12328.791343123652
1712814268119,-12318.56978256395
1712814268159,-12156.361513240263
1712814268199,-11649.939489733428
1712814268239,-11286.364092953503
1712814268279,-10898.451189419255
1712814268319,-10799.12890306767
1712814268360,-10775.417544870637
1712814268399,-10413.422685311176
1712814268439,-10177.465116433334
1712814268480,-10065.368716433644
1712814268520,-9157.838542491663
1712814268560,-9098.824555909727
1712814268600,-8582.320386983454
1712814268640,-8582.320386983454
1712814268680,-8582.320386983454
1712814268721,-8850.744195869192
1712814268761,-8850.744195869192
1712814268801,-8431.800952807069
1712814268841,-8414.685941028409
1712814268881,-8021.604171415791
1712814268921,-7776.306218786165
1712814268962,-7576.47690620739
1712814269001,-7553.735283459537
1712814269041,-6673.863871404901
1712814269082,-6597.173438439146
1712814269122,-6489.004812685773
1712814269162,-5226.897881491575
1712814269202,-5203.473208492622
1712814269242,-4506.659243226517
1712814269282,-4506.659243226517
1712814269322,-4506.659243226517
1712814269363,-4506.659243226517
1712814269403,-4506.659243226517
1712814269443,-3702.897557353601
1712814269483,-3702.897557353601
1712814269523,-3702.897557353601
1712814269564,-3702.897557353601
1712814269603,-3702.897557353601
1712814269643,-3702.897557353601
1712814269684,-3476.2399777397513
1712814269724,-3104.7362699387595
1712814269765,-2633.805724629201
1712814269804,-2270.4408630821854
1712814269844,-1683.134034436196
1712814269884,-1626.320892243646
1712814269925,-1165.6444551665336
1712814269965,-382.5621686447412
1712814270005,-52.925851774867624
1712814270045,-52.925851774867624
1712814270085,-52.925851774867624
1712814270125,-52.925851774867624
1712814270166,-52.925851774867624
1712814270205,-52.925851774867624
1712814270245,1331.0839981976897
1712814270285,1331.0839981976897
1712814270325,1331.0839981976897
1712814270366,1331.0839981976897
1712814270406,1331.0839981976897
1712814270446,1331.0839981976897
1712814270486,1331.0839981976897
1712814270526,1331.0839981976897
1712814270567,1331.0839981976897
1712814270606,1774.0630263732746
1712814270646,2013.5143709592521
1712814270686,2637.0805655135773
1712814270726,3754.190352708567
1712814270767,3956.0712232780643
1712814270807,3956.0712232780643
1712814270847,3956.0712232780643
1712814270887,3956.0712232780643
1712814270927,3956.0712232780643
1712814270968,3956.0712232780643
1712814271007,3956.0712232780643
1712814271047,3956.0712232780643
1712814271087,5220.349347488489
1712814271127,5610.025151835289
1712814271168,5610.025151835289
1712814271208,5610.025151835289
1712814271248,5610.025151835289
1712814271288,5871.152150779497
1712814271328,6101.8611314101145
1712814271369,6101.8611314101145
1712814271408,6201.436445763335
1712814271448,6287.101958067156
1712814271488,6476.207336463034
1712814271528,6589.401446477976
1712814271569,7697.205149052199
1712814271609,7887.446566296741
1712814271649,8093.682788613252
1712814271689,8093.682788613252
1712814271729,8093.682788613252
1712814271770,8093.682788613252
1712814271809,8093.682788613252
1712814271849,8093.682788613252
1712814271889,8093.682788613252
1712814271929,9917.950237228535
1712814271970,10679.738649001345
1712814272010,10833.25885798037
1712814272050,11211.286465333775
1712814272090,11846.781608072575
1712814272130,11846.781608072575
1712814272171,11846.781608072575
1712814272210,11846.781608072575
1712814272250,11846.781608072575
1712814272291,11949.581410260871
1712814272331,12288.600229120813
1712814272371,12425.563865766395
1712814272411,12856.985733882524
1712814272451,13198.540249065962
1712814272491,13198.540249065962
1712814272531,13198.540249065962
1712814272572,13198.540249065962
1712814272612,13198.540249065962
1712814272652,13198.540249065962
1712814272692,13198.540249065962
1712814272732,13198.540249065962
1712814272773,13765.431924014818
1712814272812,13765.431924014818
1712814272852,13765.431924014818
1712814272892,13765.431924014818
1712814272932,13765.431924014818
1712814272973,13765.431924014818
1712814273012,13765.431924014818
1712814273053,13765.431924014818
1712814273093,13765.431924014818
1712814273133,13765.431924014818
1712814273174,13765.431924014818
1712814273213,12363.733916618861
1712814273253,12363.733916618861
1712814273293,12363.733916618861
1712814273333,12363.733916618861
1712814273374,12363.733916618861
1712814273414,12363.733916618861
1712814273454,12363.733916618861
1712814273494,12363.733916618861
1712814273534,12363.733916618861
1712814273575,11779.284485329874
1712814273614,11182.706129543018
1712814273655,10876.188834912144
1712814273695,10867.356067320332
1712814273735,10867.356067320332
1712814273776,10867.356067320332
1712814273815,10867.356067320332
1712814273855,10867.356067320332
1712814273895,10867.356067320332
1712814273935,10867.356067320332
1712814273976,10867.356067320332
1712814274016,9569.99591447832
1712814274056,9419.314735713415
1712814274096,8558.801205745898
1712814274136,8158.805125143845
1712814274177,8158.805125143845
1712814274216,8158.805125143845
1712814274256,8158.805125143845
1712814274296,8158.805125143845
1712814274337,7957.854814349674
1712814274378,7941.675524518359
1712814274417,7829.588486157358
1712814274457,7807.589528678916
1712814274497,7723.73812688794
1712814274537,7541.2515624179505
1712814274578,7497.672474104911
1712814274618,7180.007746534422
1712814274658,7179.65708341822
1712814274698,7112.712037540972
1712814274738,7025.49409516342
1712814274779,6160.177833023947
1712814274818,4263.580274827313
1712814274859,2925.1983363991603
1712814274899,1969.3093690807
1712814274939,1925.3576215179637
1712814274980,1925.3576215179637
1712814275019,1925.3576215179637
1712814275059,1783.2318035848439
1712814275100,1781.0322453635745
1712814275140,1669.5561082717031
1712814275180,1646.930457483977
1712814275220,1597.4897971036844
1712814275260,1569.2649452951737
1712814275300,1559.165293562226
1712814275341,1098.7008718932047
1712814275381,999.2420661854558
1712814275421,994.9357862556353
1712814275461,866.7150178002194
1712814275501,-690.1071445895359
1712814275541,-3103.226961662993
1712814275582,-4953.3750364515
1712814275621,-6628.876226792578
1712814275662,-6628.876226792578
1712814275702,-6628.876226792578
1712814275742,-6628.876226792578
1712814275783,-6641.019145634025
1712814275822,-6877.565384024754
1712814275862,-7272.607109718025
1712814275902,-7288.099494218826
1712814275943,-7615.989658440463
1712814275983,-7894.0794233083725
1712814276023,-8262.388530726079
1712814276063,-8281.343200258445
1712814276103,-8851.377346776426
1712814276143,-8932.518438942265
1712814276184,-9314.56762567535
1712814276223,-9720.577414000407
1712814276263,-11661.040833548643
1712814276303,-14141.696526063606
1712814276346,-14205.105019741692
1712814276384,-14205.105019741692
1712814276424,-14205.105019741692
1712814276464,-14205.105019741692
1712814276504,-14841.755892361514
1712814276544,-15487.575600167736
1712814276585,-15828.142634618096
1712814276624,-16443.75554776471
1712814276664,-16492.79537274223
1712814276704,-16823.272335167974
1712814276744,-17009.91656212788
1712814276785,-17403.771635564044
1712814276825,-17590.77414223738
1712814276865,-17590.77414223738
1712814276905,-17590.77414223738
1712814276945,-17590.77414223738
1712814276986,-19152.56738128187
1712814277025,-19152.56738128187
1712814277065,-19152.56738128187
1712814277105,-19152.56738128187
1712814277146,-19152.56738128187
1712814277186,-19152.56738128187
1712814277226,-19152.56738128187
1712814277266,-19152.56738128187
1712814277306,-19152.56738128187
1712814277346,-19152.56738128187
1712814277387,-19152.56738128187
1712814277426,-19065.3440580843
1712814277466,-18943.45552749792
1712814277507,-18735.23732244782
1712814277547,-18463.919147280976
1712814277588,-18384.639897082
1712814277627,-18093.125226621516
1712814277667,-17880.60686660558
1712814277707,-17186.49414330162
1712814277747,-16949.177893534303
1712814277788,-16245.301649754867
1712814277828,-15468.708319232333
1712814277868,-14628.51034704363
1712814277908,-14575.189021204598
1712814277948,-14128.51154486183
1712814277989,-14128.51154486183
1712814278028,-14128.51154486183
1712814278068,-14128.51154486183
1712814278108,-12572.001643377356
1712814278148,-10832.318294431083
1712814278189,-10391.057350710034
1712814278229,-9098.260105881374
1712814278269,-9044.491655397695
1712814278309,-8931.518628700636
1712814278349,-8874.542389598675
1712814278390,-8587.815708545968
1712814278429,-8227.456801031716
1712814278469,-7862.991760804318
1712814278509,-7488.656048222445
1712814278552,-7042.9963453784585
1712814278591,-7025.249596983194
1712814278630,-6670.863335297909
1712814278670,-6407.567956368905
1712814278710,-5138.274994263891
1712814278750,-5138.274994263891
1712814278791,-5138.274994263891
1712814278831,-5138.274994263891
1712814278871,-5138.274994263891
1712814278911,-5138.274994263891
1712814278951,-3979.2994933528826
1712814278992,-2648.452000968624
1712814279031,-1212.3636166471988
1712814279071,-807.0938132377341
1712814279112,-807.0938132377341
1712814279152,-807.0938132377341
1712814279193,-807.0938132377341
1712814279232,-699.7096673133783
1712814279272,-699.7096673133783
1712814279312,-508.7244092244655
1712814279352,-334.18549333978444
1712814279393,327.2331225397065
1712814279433,693.9858454759233
1712814279473,1339.195075861644
1712814279513,1402.707670734264
1712814279553,1402.707670734264
1712814279594,1402.707670734264
1712814279633,1402.707670734264
1712814279674,1402.707670734264
1712814279714,1402.707670734264
1712814279754,1402.707670734264
1712814279795,1402.707670734264
1712814279834,2322.561881769914
1712814279874,3918.3988571176305
1712814279915,5531.605578283779
1712814279954,5531.605578283779
1712814279995,5531.605578283779
1712814280035,5531.605578283779
1712814280075,5531.605578283779
1712814280115,5531.605578283779
1712814280155,5531.605578283779
1712814280195,5679.195513292681
1712814280234,6588.734623581171
1712814280275,6624.335900010541
1712814280315,6885.998824826442
1712814280355,7267.7713772282
1712814280396,7583.810012976639
1712814280435,7583.810012976639
1712814280475,7583.810012976639
1712814280516,7583.810012976639
1712814280556,7583.810012976639
1712814280597,7583.810012976639
1712814280636,7583.810012976639
1712814280676,7583.810012976639
1712814280716,8607.73161839787
1712814280757,9598.71675544884
1712814280797,9598.71675544884
1712814280837,9598.71675544884
1712814280877,9598.71675544884
1712814280917,9598.71675544884
1712814280957,9598.71675544884
1712814280998,9598.71675544884
1712814281037,9598.71675544884
1712814281078,9598.71675544884
1712814281118,9598.71675544884
1712814281158,10122.119271942414
1712814281199,10400.87388527207
1712814281238,10400.87388527207
1712814281278,10400.87388527207
1712814281319,10400.87388527207
1712814281359,10400.87388527207
1712814281399,10400.87388527207
1712814281439,10400.87388527207
1712814281479,10400.87388527207
1712814281519,10400.87388527207
1712814281559,10400.87388527207
1712814281600,10423.965449089184
1712814281640,10423.965449089184
1712814281680,10423.965449089184
1712814281720,10423.965449089184
1712814281760,10423.965449089184
1712814281801,10423.965449089184
1712814281840,10423.965449089184
1712814281880,10423.965449089184
1712814281920,10423.965449089184
1712814281960,10423.965449089184
1712814282001,10423.965449089184
1712814282041,8466.630656963214
1712814282081,7096.5116824684665
1712814282121,6126.3430374721065
1712814282161,6126.3430374721065
1712814282202,6126.3430374721065
1712814282241,6126.3430374721065
1712814282281,6126.3430374721065
1712814282321,6126.3430374721065
1712814282361,6126.3430374721065
1712814282402,6126.3430374721065
1712814282442,6126.3430374721065
1712814282482,5435.335078059696
1712814282522,5392.959453508258
1712814282562,4985.05489929812
1712814282603,4985.05489929812
1712814282642,4985.05489929812
1712814282682,4985.05489929812
1712814282722,4985.05489929812
1712814282763,4985.05489929812
1712814282803,4985.05489929812
1712814282843,4985.05489929812
1712814282883,4985.05489929812
1712814282923,2796.0084462049417
1712814282963,1807.3565268125385
1712814283004,1078.0182403009385
1712814283043,1078.0182403009385
1712814283083,1078.0182403009385
1712814283123,1078.0182403009385
1712814283164,1078.0182403009385
1712814283204,1078.0182403009385
1712814283244,1078.0182403009385
1712814283284,1000.5543790673837
1712814283324,607.4750805576332
1712814283364,479.83616106119007
1712814283405,128.2470260830596
1712814283444,-117.03556381957605
1712814283484,-381.81098245829344
1712814283525,-820.743876052089
1712814283565,-924.7799432487227
1712814283606,-925.7694768160582
1712814283645,-925.7694768160582
1712814283685,-925.7694768160582
1712814283725,-1211.9002471589483
1712814283765,-2977.3801529165357
1712814283806,-3175.110443793237
1712814283845,-3175.110443793237
1712814283886,-3175.110443793237
1712814283926,-3175.110443793237
1712814283966,-3175.110443793237
1712814284007,-3328.829390869476
1712814284046,-3986.6102942340076
1712814284086,-4119.509840973187
1712814284126,-4527.060237184633
1712814284166,-4809.68492978299
1712814284207,-4897.060039686039
1712814284247,-5035.192529585678
1712814284287,-5069.044923041016
1712814284327,-5069.044923041016
1712814284367,-5087.7316237906925
1712814284408,-5087.7316237906925
1712814284447,-5163.463235314935
1712814284487,-7030.684990096837
1712814284527,-7030.684990096837
1712814284568,-7030.684990096837
1712814284609,-7030.684990096837
1712814284648,-7030.684990096837
1712814284688,-7030.684990096837
1712814284728,-7030.684990096837
1712814284768,-7030.684990096837
1712814284809,-7087.258515733294
1712814284849,-7892.5893565225415
1712814284889,-7940.418783063069
1712814284929,-8119.422842275351
1712814284969,-8314.574889147189
1712814285010,-8314.574889147189
1712814285049,-8314.574889147189
1712814285089,-8314.574889147189
1712814285129,-8314.574889147189
1712814285170,-8314.574889147189
1712814285211,-8851.73299625516
1712814285250,-8851.73299625516
1712814285290,-8851.73299625516
1712814285330,-8851.73299625516
1712814285370,-8851.73299625516
1712814285411,-8851.73299625516
1712814285451,-8851.73299625516
1712814285491,-8851.73299625516
1712814285531,-9040.850554451346
1712814285571,-9102.887743471656
1712814285612,-9702.533082631417
1712814285651,-10661.009477877524
1712814285691,-10696.684774334542
1712814285731,-10696.684774334542
1712814285772,-10696.684774334542
1712814285813,-10696.684774334542
1712814285852,-10696.684774334542
1712814285892,-10120.086693302728
1712814285932,-9702.533082631417
1712814285972,-9153.855154994875
1712814286013,-9102.887743471656
1712814286053,-9102.887743471656
1712814286093,-9102.887743471656
1712814286133,-9102.887743471656
1712814286173,-9102.887743471656
1712814286214,-9102.887743471656
1712814286253,-9102.887743471656
1712814286294,-9102.887743471656
1712814286334,-9102.887743471656
1712814286374,-8993.627560188528
1712814286415,-8993.627560188528
1712814286454,-8993.627560188528
1712814286494,-8993.627560188528
1712814286535,-8993.627560188528
1712814286574,-8993.627560188528
1712814286615,-8993.627560188528
1712814286655,-8993.627560188528
1712814286695,-8993.627560188528
1712814286735,-8125.020879213698
1712814286775,-7626.584113784134
1712814286816,-7321.107982366346
1712814286856,-7321.107982366346
1712814286896,-7321.107982366346
1712814286936,-7321.107982366346
1712814286976,-7321.107982366346
1712814287017,-7321.107982366346
1712814287056,-7321.107982366346
1712814287096,-7321.107982366346
1712814287137,-7321.107982366346
1712814287177,-6564.263182406779
1712814287218,-5375.2525704633445
1712814287257,-3731.442599094007
1712814287297,-3326.1207345062867
1712814287337,-3326.1207345062867
1712814287378,-3326.1207345062867
1712814287418,-3061.198610920459
1712814287458,-2567.9333603936248
1712814287498,-2542.0342092392966
1712814287538,-2318.729852124583
1712814287578,-2282.6629735771567
1712814287619,-1548.7744367057458
1712814287658,-1430.7769902925938
1712814287698,-1410.521925658919
1712814287739,-939.2051698826253
1712814287778,-108.88187060737982
1712814287819,9.264125478919595
1712814287859,9.264125478919595
1712814287899,9.264125478919595
1712814287939,9.264125478919595
1712814287979,9.264125478919595
1712814288020,9.264125478919595
1712814288059,1157.639871602878
1712814288100,2291.159539309796
1712814288140,3425.0395956002176
1712814288180,3425.0395956002176
1712814288221,3425.0395956002176
1712814288260,3425.0395956002176
1712814288300,3425.0395956002176
1712814288340,3425.0395956002176
1712814288380,3425.0395956002176
1712814288421,3425.0395956002176
1712814288461,3852.654530147556
1712814288501,4167.552718089428
1712814288541,4550.747279217932
1712814288581,4964.4070293279365
1712814288622,4964.4070293279365
1712814288661,4964.4070293279365
1712814288701,4964.4070293279365
1712814288741,4964.4070293279365
1712814288781,4964.4070293279365
1712814288822,4964.4070293279365
1712814288862,4964.4070293279365
1712814288902,4964.4070293279365
1712814288942,4964.4070293279365
1712814288982,5329.140366205946
1712814289023,6387.064204972703
1712814289062,6387.064204972703
1712814289102,6387.064204972703
1712814289142,6387.064204972703
1712814289183,6387.064204972703
1712814289223,6387.064204972703
1712814289263,6387.064204972703
1712814289303,6387.064204972703
1712814289343,6387.064204972703
1712814289383,6837.366787448525
1712814289424,7384.841553494334
1712814289463,7479.165793842636
1712814289504,7479.165793842636
1712814289544,7479.165793842636
1712814289584,7479.165793842636
1712814289625,7479.165793842636
1712814289664,7479.165793842636
1712814289704,7479.165793842636
1712814289744,7479.165793842636
1712814289785,7479.165793842636
1712814289825,8063.056690745056
1712814289865,8899.177536324132
1712814289905,9652.289766459726
1712814289945,9652.289766459726
1712814289985,9652.289766459726
1712814290026,9652.289766459726
1712814290065,9652.289766459726
1712814290105,9652.289766459726
1712814290146,9652.289766459726
1712814290186,9652.289766459726
1712814290226,9943.416712353937
1712814290266,10115.698858601041
1712814290306,10148.960468074307
1712814290346,10231.851660088636
1712814290386,10231.851660088636
1712814290427,10231.851660088636
1712814290467,10231.851660088636
1712814290507,10231.851660088636
1712814290547,10231.851660088636
1712814290587,10231.851660088636
1712814290628,10231.851660088636
1712814290667,10231.851660088636
1712814290707,10231.851660088636
1712814290748,10984.583822641522
1712814290788,10984.583822641522
1712814290828,10984.583822641522
1712814290868,10984.583822641522
1712814290908,10984.583822641522
1712814290948,10984.583822641522
1712814290988,10984.583822641522
1712814291029,10984.583822641522
1712814291069,10984.583822641522
1712814291109,10984.583822641522
1712814291149,10984.583822641522
1712814291189,10647.723185173236
1712814291230,9847.083829050884
1712814291269,9847.083829050884
1712814291309,9847.083829050884
1712814291350,9847.083829050884
1712814291390,9847.083829050884
1712814291430,9847.083829050884
1712814291470,9847.083829050884
1712814291510,9847.083829050884
1712814291550,9503.317546746228
1712814291590,9224.897388004698
1712814291631,8741.469914778136
1712814291671,8610.923302352428
1712814291711,8577.19489466399
1712814291751,8577.19489466399
1712814291791,8577.19489466399
1712814291832,8577.19489466399
1712814291871,8577.19489466399
1712814291911,8577.19489466399
1712814291952,8577.19489466399
1712814291992,7715.635032750666
1712814292033,7187.781528908294
1712814292072,6916.637223003898
1712814292112,6916.637223003898
1712814292152,6916.637223003898
1712814292193,6916.637223003898
1712814292233,6916.637223003898
1712814292273,6880.769524273463
1712814292313,6396.367331671994
1712814292353,6171.247228893917
1712814292393,6072.777346462943
1712814292434,5778.406969949603
1712814292474,5582.449960325845
1712814292514,5446.614313528407
1712814292554,5446.141462337226
1712814292594,5444.687383395154
1712814292635,5162.93024369562
1712814292674,5137.7719521876425
1712814292714,4225.265979331918
1712814292755,2718.426075901836
1712814292795,2718.426075901836
1712814292836,2718.426075901836
1712814292875,2718.426075901836
1712814292915,2718.426075901836
1712814292955,2718.426075901836
1712814292996,2583.8616246595047
1712814293036,2111.774215493351
1712814293076,1996.7132549080998
1712814293116,1635.6547417850234
1712814293156,1467.6665396559983
1712814293196,1306.6692287512124
1712814293237,1151.0194114008918
1712814293276,1149.0399584854022
1712814293316,1078.3330896310508
1712814293356,1078.3330896310508
1712814293397,1078.3330896310508
1712814293437,957.9490522090346
1712814293477,-442.3863759730011
1712814293517,-1201.7279071360826
1712814293557,-1201.7279071360826
1712814293597,-1201.7279071360826
1712814293638,-1201.7279071360826
1712814293677,-1201.7279071360826
1712814293717,-1201.7279071360826
1712814293757,-1413.2030814997852
1712814293797,-2090.741921084933
1712814293838,-2202.5358194801956
1712814293878,-2482.8137516835704
1712814293918,-2730.2690942985937
1712814293958,-2927.5922166565433
1712814293998,-3010.8550064573064
1712814294039,-3107.607164452318
1712814294078,-3346.9398623080924
1712814294118,-3346.9398623080924
1712814294158,-3520.9263354172
1712814294198,-3685.656640181318
1712814294239,-4406.815802448429
1712814294279,-4406.815802448429
1712814294319,-4406.815802448429
1712814294359,-4406.815802448429
1712814294399,-4406.815802448429
1712814294440,-4406.815802448429
1712814294479,-4406.815802448429
1712814294519,-4406.815802448429
1712814294559,-4406.815802448429
1712814294600,-5174.515979801305
1712814294640,-5458.590255671646
1712814294680,-6180.81171510322
1712814294720,-6180.81171510322
1712814294760,-6180.81171510322
1712814294800,-6180.81171510322
1712814294841,-6180.81171510322
1712814294880,-6180.81171510322
1712814294920,-5174.515979801305
1712814294961,-5005.140033824835
1712814295001,-4406.815802448429
1712814295041,-4383.676985323429
1712814295081,-4316.888255640399
1712814295121,-4316.888255640399
1712814295161,-4316.888255640399
1712814295201,-4316.888255640399
1712814295242,-4316.888255640399
1712814295281,-4316.888255640399
1712814295322,-4316.888255640399
1712814295362,-4316.888255640399
1712814295402,-3221.387843030039
1712814295443,-2220.9829895710573
1712814295482,-2220.9829895710573
1712814295522,-2220.9829895710573
1712814295562,-2220.9829895710573
1712814295602,-2220.9829895710573
1712814295643,-2220.9829895710573
1712814295683,-2220.9829895710573
1712814295723,-2220.9829895710573
1712814295763,-2187.027199706994
1712814295803,-2092.735053394921
1712814295844,-1555.2582940012217
1712814295883,-1264.714273889549
1712814295924,-713.2312256689183
1712814295964,-713.2312256689183
1712814296004,-713.2312256689183
1712814296045,-713.2312256689183
1712814296084,-713.2312256689183
1712814296124,-713.2312256689183
1712814296164,-713.2312256689183
1712814296204,-713.2312256689183
1712814296245,-170.98013365641236
1712814296285,1180.1574430326
1712814296325,2345.2257395237684
1712814296365,2431.4336095936596
1712814296405,2431.4336095936596
1712814296446,2432.499961549416
1712814296485,2541.2231049458496
1712814296526,2541.2231049458496
1712814296566,2541.2231049458496
1712814296606,2541.2231049458496
1712814296647,2541.2231049458496
1712814296686,2726.56191576086
1712814296726,3637.8829786959104
1712814296767,3661.6763982903212
1712814296807,3723.5792083959095
1712814296847,3723.5792083959095
1712814296887,3723.5792083959095
1712814296927,3723.5792083959095
1712814296967,3723.5792083959095
1712814297007,3723.5792083959095
1712814297048,3723.5792083959095
1712814297087,3723.5792083959095
1712814297128,3723.5792083959095
1712814297168,4817.9884520005435
1712814297208,4817.9884520005435
1712814297249,4817.9884520005435
1712814297288,4817.9884520005435
1712814297328,4817.9884520005435
1712814297369,4817.9884520005435
1712814297409,4817.9884520005435
1712814297449,4817.9884520005435
1712814297489,4817.9884520005435
1712814297529,4817.9884520005435
1712814297569,4817.9884520005435
1712814297609,4810.557086752262
1712814297650,3853.5995512916707
1712814297690,3853.5995512916707
1712814297730,3853.5995512916707
1712814297770,3853.5995512916707
1712814297810,3853.5995512916707
1712814297851,3853.5995512916707
1712814297890,3853.5995512916707
1712814297930,3853.5995512916707
1712814297971,3853.5995512916707
1712814298011,3853.5995512916707
1712814298052,3853.5995512916707
1712814298091,3824.8881829911843
1712814298131,3824.8881829911843
1712814298171,3824.8881829911843
1712814298212,3824.8881829911843
1712814298252,3824.8881829911843
1712814298292,3824.8881829911843
1712814298332,3824.8881829911843
1712814298372,3824.8881829911843
1712814298412,3824.8881829911843
1712814298453,3824.8881829911843
1712814298493,3823.858641751576
1712814298533,3823.858641751576
1712814298573,3823.858641751576
1712814298613,3823.858641751576
1712814298654,3823.858641751576
1712814298693,3823.858641751576
1712814298733,3823.858641751576
1712814298774,3823.858641751576
1712814298814,3823.858641751576
1712814298854,3633.1041612401605
1712814298894,3168.1992858005688
1712814298934,2596.426480844617
1712814298974,2381.616990122013
1712814299014,2307.1972611462697
1712814299055,2307.1972611462697
1712814299094,2307.1972611462697
1712814299134,2307.1972611462697
1712814299175,2307.1972611462697
1712814299215,2307.1972611462697
1712814299255,2307.1972611462697
1712814299295,2307.1972611462697
1712814299335,2307.1972611462697
1712814299375,2307.1972611462697
1712814299415,2307.1972611462697
1712814299456,2307.1972611462697
1712814299495,2307.1972611462697
1712814299536,2307.1972611462697
1712814299576,2023.7279098331928
1712814299616,1738.8033541305922
1712814299657,1482.2550340490416
1712814299696,1234.5341740772128
1712814299736,1055.3852736293338
1712814299776,1055.3852736293338
1712814299816,1055.3852736293338
1712814299857,877.400581038557
1712814299897,877.400581038557
1712814299936,877.400581038557
1712814299977,1234.5341740772128
1712814300017,1453.6572713209316
1712814300058,1691.6528822779655
1712814300097,1691.6528822779655
1712814300137,1691.6528822779655
1712814300177,1691.6528822779655
1712814300217,1691.6528822779655
1712814300258,1691.6528822779655
1712814300297,1691.6528822779655
1712814300337,1689.7083886843175
1712814300378,1453.6572713209316
1712814300418,786.1419670754112
1712814300458,786.1419670754112
1712814300498,786.1419670754112
1712814300538,786.1419670754112
1712814300578,786.1419670754112
1712814300618,786.1419670754112
1712814300659,786.1419670754112
1712814300699,786.1419670754112
1712814300739,786.1419670754112
1712814300779,1193.0446066213772
1712814300819,1193.0446066213772
1712814300860,1193.0446066213772
1712814300899,1193.0446066213772
1712814300939,1193.0446066213772
1712814300979,1193.0446066213772
1712814301019,1193.0446066213772
1712814301060,1193.0446066213772
1712814301100,1193.0446066213772
1712814301140,374.79899193998426
1712814301180,160.61619511339813
1712814301220,-377.09699336392805
1712814301261,-377.09699336392805
1712814301300,-377.09699336392805
1712814301341,-377.09699336392805
1712814301380,-377.09699336392805
1712814301421,-377.09699336392805
1712814301462,-377.09699336392805
1712814301501,-377.09699336392805
1712814301541,-377.09699336392805
1712814301581,-1661.0742107811384
1712814301621,-1661.0742107811384
1712814301662,-1661.0742107811384
1712814301702,-1661.0742107811384
1712814301742,-1661.0742107811384
1712814301782,-1661.0742107811384
1712814301822,-1661.0742107811384
1712814301863,-1661.0742107811384
1712814301902,-1661.0742107811384
1712814301942,-1661.0742107811384
1712814301982,-1661.0742107811384
1712814302022,-1678.9702428258024
1712814302063,-1678.9702428258024
1712814302103,-1678.9702428258024
1712814302143,-1678.9702428258024
1712814302183,-1678.9702428258024
1712814302223,-1678.9702428258024
1712814302264,-1678.9702428258024
1712814302303,-1678.9702428258024
1712814302343,-1678.9702428258024
1712814302383,-1678.9702428258024
1712814302424,-1593.6243458073586
1712814302464,-1593.6243458073586
1712814302504,-1593.6243458073586
1712814302544,-1593.6243458073586
1712814302584,-1593.6243458073586
1712814302624,-1593.6243458073586
1712814302665,-1593.6243458073586
1712814302704,-1593.6243458073586
1712814302745,-1593.6243458073586
1712814302785,-1593.6243458073586
1712814302825,-1593.6243458073586
1712814302866,-1135.2480543022975
1712814302905,-1011.4504608437419
1712814302945,-1011.4504608437419
1712814302985,-1011.4504608437419
1712814303025,-1011.4504608437419
1712814303066,-1011.4504608437419
1712814303106,-1011.4504608437419
1712814303146,-1011.4504608437419
1712814303186,-995.3184645855799
1712814303226,-556.4182694545016
1712814303267,-25.75489683263004
1712814303306,368.6336603453383
1712814303346,368.6336603453383
1712814303387,368.6336603453383
1712814303427,368.6336603453383
1712814303467,368.6336603453383
1712814303507,368.6336603453383
1712814303547,368.6336603453383
1712814303587,368.6336603453383
1712814303627,368.6336603453383
1712814303668,783.1615790706128
1712814303707,783.1615790706128
1712814303748,783.1615790706128
1712814303788,783.1615790706128
1712814303828,783.1615790706128
1712814303869,783.1615790706128
1712814303908,783.1615790706128
1712814303948,783.1615790706128
1712814303989,783.1615790706128
1712814304029,783.1615790706128
1712814304070,783.1615790706128
1712814304109,783.1615790706128
1712814304149,783.1615790706128
1712814304189,783.1615790706128
1712814304230,783.1615790706128
1712814304270,783.1615790706128
1712814304310,783.1615790706128
1712814304350,783.1615790706128
1712814304390,783.1615790706128
1712814304430,783.1615790706128
1712814304471,532.260364654474
1712814304510,460.6176700219512
1712814304551,347.7705773347989
1712814304591,299.2985761705786
1712814304631,216.21518786344677
1712814304672,210.88926661666483
1712814304711,210.88926661666483
1712814304751,210.88926661666483
1712814304791,402.34167882287875
1712814304832,532.260364654474
1712814304872,944.6074422504753
1712814304912,1336.3288513938896
1712814304952,1556.5392142320052
1712814304992,1556.5392142320052
1712814305032,1556.5392142320052
1712814305073,1556.5392142320052
1712814305112,1556.5392142320052
1712814305152,1556.5392142320052
1712814305193,1556.5392142320052
1712814305233,1556.5392142320052
1712814305273,944.6074422504753
1712814305313,944.6074422504753
1712814305353,944.6074422504753
1712814305393,944.6074422504753
1712814305433,944.6074422504753
1712814305474,944.6074422504753
1712814305513,944.6074422504753
1712814305553,944.6074422504753
1712814305594,944.6074422504753
1712814305634,944.6074422504753
1712814305675,682.4771407777444
1712814305714,682.4771407777444
1712814305754,682.4771407777444
1712814305794,682.4771407777444
1712814305834,682.4771407777444
1712814305875,682.4771407777444
1712814305915,682.4771407777444
1712814305955,682.4771407777444
1712814305995,553.2167554874904
1712814306035,475.35571834398434
1712814306076,340.18197530321777
1712814306115,289.79224017169327
1712814306155,-158.95257882773876
1712814306195,-190.28170401696116
1712814306235,-222.67152864858508
1712814306276,-468.6700523956679
1712814306315,-468.6700523956679
1712814306356,-468.6700523956679
1712814306396,-468.6700523956679
1712814306436,-460.30618793331087
1712814306477,-460.30618793331087
1712814306516,-460.30618793331087
1712814306556,-460.30618793331087
1712814306596,-460.30618793331087
1712814306636,-460.30618793331087
1712814306677,-460.30618793331087
1712814306717,-622.1342847128399
1712814306757,-666.6429691743106
1712814306797,-1121.5805600085296
1712814306837,-1265.1813245019875
1712814306878,-1447.931675247848
1712814306917,-1447.931675247848
1712814306957,-1447.931675247848
1712814306998,-1447.931675247848
1712814307037,-1447.931675247848
1712814307078,-1456.6779820127413
1712814307118,-1510.2944799419492
