Timestamp,Cleaned PPG
1711604681579,0.0
1711604681621,0.0
1711604681662,0.0
1711604681700,0.0
1711604681740,0.0
1711604681780,0.0
1711604681821,0.0
1711604681860,0.0
1711604681901,0.0
1711604681941,0.0
1711604681981,0.0
1711604682022,0.0
1711604682061,0.0
1711604682101,0.0
1711604682141,0.0
1711604682181,0.0
1711604682223,0.0
1711604682262,0.0
1711604682302,0.0
1711604682342,0.0
1711604682382,0.0
1711604682423,0.0
1711604682462,0.0
1711604682502,0.0
1711604682542,0.0
1711604682582,0.0
1711604682623,0.0
1711604682662,0.0
1711604682703,0.0
1711604682743,0.0
1711604682783,0.0
1711604682824,0.0
1711604682863,1115593.132294438
1711604682903,1115593.132294438
1711604682943,1115593.132294438
1711604682983,1115593.132294438
1711604683024,1115593.132294438
1711604683064,1115593.132294438
1711604683104,1115593.132294438
1711604683144,1115593.132294438
1711604683184,1115593.132294438
1711604683225,1115593.132294438
1711604683264,1115593.132294438
1711604683304,1045920.817715568
1711604683344,980955.6051995642
1711604683385,920097.7896824887
1711604683426,863129.7261680292
1711604683465,809926.5030712634
1711604683505,759934.894844362
1711604683545,712118.082339827
1711604683585,667300.8441338367
1711604683626,626411.4581312486
1711604683665,588411.5840645214
1711604683705,551739.5674784149
1711604683746,515186.7453662297
1711604683786,476636.538815442
1711604683827,439189.0481088632
1711604683869,402457.48138310434
1711604683906,367257.34853932075
1711604683946,333256.33063583565
1711604683986,310728.8272445947
1711604684027,294665.8444530396
1711604684066,276957.4718326605
1711604684107,267100.16067758854
1711604684147,266350.39053779375
1711604684187,261136.352210148
1711604684228,248736.8337683305
1711604684267,229495.18264111714
1711604684307,226332.8659073105
1711604684347,219306.64028824563
1711604684387,152041.53350180434
1711604684428,127525.17201449815
1711604684468,124754.29560189042
1711604684508,94345.52758897189
1711604684548,92501.77993380977
1711604684588,59348.60855395184
1711604684629,55853.476142246276
1711604684668,51006.68468782352
1711604684708,44868.24790440127
1711604684749,32050.30983145791
1711604684789,32050.30983145791
1711604684830,32050.30983145791
1711604684869,32050.30983145791
1711604684909,32050.30983145791
1711604684949,32050.30983145791
1711604684989,32050.30983145791
1711604685030,32050.30983145791
1711604685069,32050.30983145791
1711604685110,32050.30983145791
1711604685150,32050.30983145791
1711604685190,39940.135017351015
1711604685231,39940.135017351015
1711604685270,49791.980312053114
1711604685310,50338.98027287866
1711604685350,56271.57297454076
1711604685390,56465.55875980668
1711604685432,57218.32789961272
1711604685471,68929.28354645078
1711604685511,68929.28354645078
1711604685551,68929.28354645078
1711604685591,68929.28354645078
1711604685632,69286.71535679372
1711604685671,77718.47559076501
1711604685712,78080.64744285075
1711604685752,78080.64744285075
1711604685792,78080.64744285075
1711604685833,78080.64744285075
1711604685872,81591.38656918658
1711604685912,83949.34853665344
1711604685952,83949.34853665344
1711604685992,83949.34853665344
1711604686033,83949.34853665344
1711604686075,83949.34853665344
1711604686113,81591.38656918658
1711604686153,78080.64744285075
1711604686193,64458.82776399166
1711604686234,57218.32789961272
1711604686273,53775.24394224724
1711604686313,53124.33795798407
1711604686354,49670.13874387788
1711604686394,32943.121447988786
1711604686435,15630.07250631554
1711604686474,1527.5714210129809
1711604686514,-11842.340822881088
1711604686554,-24203.080881336704
1711604686594,-30196.382401322015
1711604686635,-38302.22940726485
1711604686675,-41288.85987616982
1711604686715,-42605.21966634877
1711604686755,-46269.52527361782
1711604686795,-47819.62018765835
1711604686836,-48129.09841176681
1711604686875,-48129.09841176681
1711604686915,-48129.09841176681
1711604686955,-48129.09841176681
1711604686996,-48129.09841176681
1711604687037,-48129.09841176681
1711604687076,-48129.09841176681
1711604687116,-47819.62018765835
1711604687156,-46269.52527361782
1711604687196,-41288.85987616982
1711604687237,-40593.24109180877
1711604687277,-38302.22940726485
1711604687317,-36616.90627734084
1711604687357,-25463.613674094435
1711604687397,-10283.376524611376
1711604687438,-592.3375433832407
1711604687477,9629.91892747255
1711604687517,12301.720837778877
1711604687558,12301.720837778877
1711604687598,13253.206476961263
1711604687639,13253.206476961263
1711604687678,13253.206476961263
1711604687718,13253.206476961263
1711604687758,13253.206476961263
1711604687798,13253.206476961263
1711604687839,13253.206476961263
1711604687879,13253.206476961263
1711604687919,12301.720837778877
1711604687959,10642.45701508061
1711604687999,9629.91892747255
1711604688040,10642.45701508061
1711604688079,10642.45701508061
1711604688120,10642.45701508061
1711604688160,10642.45701508061
1711604688200,10642.45701508061
1711604688241,10642.45701508061
1711604688280,8454.083912441973
1711604688320,5813.51122856047
1711604688361,4712.649199131178
1711604688401,1045.7111937478185
1711604688442,355.23151146573946
1711604688481,-1102.3823074307293
1711604688521,-6382.464718936011
1711604688561,-14143.436036923435
1711604688602,-14265.229976060335
1711604688642,-14265.229976060335
1711604688682,-14143.436036923435
1711604688722,-14143.436036923435
1711604688762,-11856.791454961523
1711604688802,-11856.791454961523
1711604688843,-11856.791454961523
1711604688882,-11856.791454961523
1711604688922,-11856.791454961523
1711604688963,-11856.791454961523
1711604689003,-14143.436036923435
1711604689043,-14265.229976060335
1711604689083,-15789.554122125264
1711604689123,-15789.554122125264
1711604689163,-15789.554122125264
1711604689203,-14143.436036923435
1711604689244,-11856.791454961523
1711604689283,-10699.702761345077
1711604689323,-8999.113566284068
1711604689364,-4866.184173322283
1711604689404,-1843.2674378771335
1711604689445,-1349.4999014274217
1711604689484,2103.796258735005
1711604689524,2733.4608389679343
1711604689564,13606.108437826857
1711604689604,18462.63483833894
1711604689645,19951.332144076005
1711604689684,21307.9388400577
1711604689724,27013.907621498685
1711604689765,29088.02487251023
1711604689805,29088.02487251023
1711604689845,29975.072196056135
1711604689885,30918.813997704536
1711604689925,30961.914683726616
1711604689965,30961.914683726616
1711604690005,30961.914683726616
1711604690046,30918.813997704536
1711604690085,29975.072196056135
1711604690126,29088.02487251023
1711604690166,27013.907621498685
1711604690206,27013.907621498685
1711604690247,27013.907621498685
1711604690286,29088.02487251023
1711604690326,30918.813997704536
1711604690366,30918.813997704536
1711604690407,30918.813997704536
1711604690447,30140.96932982467
1711604690487,24441.077461529523
1711604690527,23743.176195602864
1711604690567,18401.717353120912
1711604690607,18401.717353120912
1711604690648,18401.717353120912
1711604690687,18232.061620636377
1711604690727,17855.40247098077
1711604690768,17851.46675354801
1711604690808,17710.196758680046
1711604690848,15494.008085877169
1711604690888,14941.50384500157
1711604690928,14784.834309682716
1711604690968,14784.834309682716
1711604691009,14784.834309682716
1711604691049,14784.834309682716
1711604691089,14941.50384500157
1711604691129,14784.834309682716
1711604691169,13704.814998576418
1711604691209,12610.665114203468
1711604691250,11852.947958230972
1711604691289,10086.12417083513
1711604691329,8850.119086947292
1711604691370,7501.848101597279
1711604691410,7501.848101597279
1711604691450,7501.848101597279
1711604691490,7501.848101597279
1711604691530,7501.848101597279
1711604691570,7501.848101597279
1711604691610,8369.824461650569
1711604691651,8431.083457444794
1711604691690,8850.119086947292
1711604691731,9989.183733664919
1711604691771,10086.12417083513
1711604691811,10566.350116318092
1711604691852,10566.350116318092
1711604691891,10566.350116318092
1711604691931,10086.12417083513
1711604691972,9989.183733664919
1711604692012,9989.183733664919
1711604692053,9989.183733664919
1711604692092,8850.119086947292
1711604692133,8431.083457444794
1711604692175,8369.824461650569
1711604692215,8369.824461650569
1711604692256,8294.47822826868
1711604692295,7713.0601623822
1711604692336,6784.634587809909
1711604692376,6344.144881409593
1711604692416,6344.144881409593
1711604692457,6344.144881409593
1711604692497,6320.054002692923
1711604692537,5948.255824735388
1711604692577,5589.827179534361
1711604692617,5047.022297014482
1711604692658,5016.300338604022
1711604692698,4667.794189866632
1711604692738,4272.9536800626665
1711604692778,4260.803487933241
1711604692819,3405.665155862458
1711604692860,3090.3827784238383
1711604692899,2800.502753134817
1711604692943,2740.4609783953056
1711604692983,2033.3516451781616
1711604693023,2033.3516451781616
1711604693064,1916.1245304346085
1711604693103,1916.1245304346085
1711604693144,1589.519592971541
1711604693184,1360.8700594697148
1711604693224,1360.8700594697148
1711604693265,1360.8700594697148
1711604693304,1360.8700594697148
1711604693344,1324.6720767780207
1711604693384,890.6833428312093
1711604693425,679.1379985855892
1711604693466,679.1379985855892
1711604693505,679.1379985855892
1711604693545,679.1379985855892
1711604693585,679.1379985855892
1711604693624,1203.5527277477086
1711604693663,1360.8700594697148
1711604693702,1360.8700594697148
1711604693741,1559.293210014701
1711604693780,1559.293210014701
1711604693819,1695.4665734907612
1711604693858,1695.4665734907612
1711604693897,2413.000039692037
1711604693936,3128.8206025199033
1711604693975,3162.913581534289
1711604694014,3392.777875865344
1711604694054,3392.777875865344
1711604694094,3392.777875865344
1711604694134,3392.777875865344
1711604694174,3875.132062428631
1711604694214,3875.132062428631
1711604694254,3875.132062428631
1711604694294,3875.132062428631
1711604694334,3875.132062428631
1711604694374,3875.132062428631
1711604694414,4826.401003189385
1711604694454,4833.735135777853
1711604694494,6290.934923930559
1711604694534,6407.791941540316
1711604694574,7837.152923104353
1711604694614,8676.214639207348
1711604694654,7837.152923104353
1711604694694,6290.934923930559
1711604694734,6290.934923930559
1711604694774,6290.934923930559
1711604694814,6290.934923930559
1711604694854,2212.8961336854845
1711604694894,401.4634428387508
1711604694934,-2390.8034384385683
1711604694974,-4124.009629231878
1711604695014,-6897.759208437521
1711604695054,-10702.0377586768
1711604695094,-13467.809718773235
1711604695134,-26722.347013620194
1711604695174,-52677.22994608246
1711604695214,-81366.6024736329
1711604695254,-81366.6024736329
1711604695294,-82214.2236896418
1711604695334,-82214.2236896418
1711604695374,-82214.2236896418
1711604695414,-82214.2236896418
1711604695454,-82214.2236896418
1711604695494,-82214.2236896418
1711604695534,-82214.2236896418
1711604695574,-82214.2236896418
1711604695614,-82214.2236896418
1711604695654,-81366.6024736329
1711604695694,-76570.49427581625
1711604695734,-76102.58191532968
1711604695774,-70377.0118358573
1711604695814,-57871.47857122403
1711604695854,-48673.92828948423
1711604695894,-42522.212188926525
1711604695934,-40426.16813763697
1711604695974,-38056.035799740814
1711604696014,-34090.873375309166
1711604696054,-28932.63743764814
1711604696094,-20009.20417309599
1711604696134,-17502.78369777929
1711604696174,-14566.520235410891
1711604696214,-12482.78861834528
1711604696254,-10667.845961671788
1711604696294,-10602.764547302853
1711604696334,-4742.970401443541
1711604696374,5956.410105179064
1711604696414,13886.318743835203
1711604696454,40535.27953036595
1711604696494,70570.2657788936
1711604696534,71176.6562837218
1711604696574,71176.6562837218
1711604696614,71176.6562837218
1711604696654,71176.6562837218
1711604696694,71176.6562837218
1711604696734,71176.6562837218
1711604696774,71176.6562837218
1711604696814,71176.6562837218
1711604696854,71176.6562837218
1711604696894,71176.6562837218
1711604696934,71176.6562837218
1711604696974,70717.92544845212
1711604697014,60246.17808559537
1711604697054,49435.230042373296
1711604697094,37382.2805501204
1711604697134,33623.943649914116
1711604697174,32552.768109269906
1711604697214,28499.974607380107
1711604697254,26730.139053056017
1711604697294,26669.19061766658
1711604697334,26146.875538662076
1711604697374,25102.220682210755
1711604697414,25102.220682210755
1711604697454,22450.304451463744
1711604697494,17095.698234422598
1711604697534,14945.245156695135
1711604697574,13924.41699963715
1711604697614,13291.193805684336
1711604697654,12192.930332158692
1711604697694,11845.30803038599
1711604697734,10043.665615956765
1711604697774,9850.397375191562
1711604697814,9726.80298213521
1711604697854,8800.749302849174
1711604697894,6958.931163571309
1711604697934,5135.5507990391925
1711604697974,2491.604040053673
1711604698014,-5484.2825371176
1711604698054,-9933.63239665702
1711604698094,-10592.842240743805
1711604698134,-11015.534230533987
1711604698174,-12207.385832823347
1711604698214,-14802.349717253353
1711604698254,-14868.62903899746
1711604698294,-14868.62903899746
1711604698334,-14868.62903899746
1711604698374,-14868.62903899746
1711604698414,-14868.62903899746
1711604698454,-14868.62903899746
1711604698494,-14868.62903899746
1711604698534,-14868.62903899746
1711604698574,-14868.62903899746
1711604698614,-14868.62903899746
1711604698654,-14868.62903899746
1711604698694,-342.45775343477726
1711604698734,7937.864544555545
1711604698774,9263.245470131747
1711604698814,9263.245470131747
1711604698854,9263.245470131747
1711604698894,10953.39393388573
1711604698934,10953.39393388573
1711604698974,10953.39393388573
1711604699014,10953.39393388573
1711604699054,10953.39393388573
1711604699094,10953.39393388573
1711604699134,10953.39393388573
1711604699174,10953.39393388573
1711604699214,10953.39393388573
1711604699254,10953.39393388573
1711604699294,10953.39393388573
1711604699334,10953.39393388573
1711604699374,10953.39393388573
1711604699414,10953.39393388573
1711604699454,10953.39393388573
1711604699494,10953.39393388573
1711604699534,10953.39393388573
1711604699574,10953.39393388573
1711604699614,10481.804292962886
1711604699654,10481.804292962886
1711604699694,10481.804292962886
1711604699734,10213.665758327581
1711604699774,5723.423922729678
1711604699814,2579.8186000604182
1711604699854,375.7216970976442
1711604699894,-4480.496873178054
1711604699934,-5179.518515911885
1711604699974,-18090.670546952635
1711604700014,-29581.79326163046
1711604700054,-38427.340597205795
1711604700094,-39881.071333498694
1711604700134,-41889.597913342994
1711604700174,-45200.06967483554
1711604700214,-47228.87138296664
1711604700254,-49068.40086332429
1711604700294,-49446.647336126305
1711604700334,-49446.647336126305
1711604700374,-49446.647336126305
1711604700414,-49446.647336126305
1711604700454,-49501.614575223764
1711604700494,-49919.259965226986
1711604700534,-49919.259965226986
1711604700574,-49919.259965226986
1711604700614,-49919.259965226986
1711604700654,-49919.259965226986
1711604700694,-49501.614575223764
1711604700734,-49446.647336126305
1711604700774,-49183.98000470642
1711604700814,-49068.40086332429
1711604700854,-48232.53333241679
1711604700894,-47448.181766357506
1711604700934,-47064.50940044341
1711604700974,-44444.92120959959
1711604701014,-41717.080622877926
1711604701054,-40469.47232976137
1711604701094,-40121.2635864811
1711604701134,-39343.72246810328
1711604701174,-39046.59274549503
1711604701214,-38155.01833168091
1711604701254,-37994.17214959394
1711604701294,-36939.88737358642
1711604701334,-35898.78535373509
1711604701374,-34614.34374487121
1711604701414,-33236.409080582205
1711604701454,-33038.678717112634
1711604701494,-31089.86835250887
1711604701534,-28063.42581439833
1711604701574,-26900.568722329568
1711604701614,-26900.568722329568
1711604701654,-26793.168576229364
1711604701694,-26380.487346114824
1711604701734,-26128.074545262847
1711604701774,-25835.100792131852
1711604701814,-25705.282780202804
1711604701854,-25687.26385710528
1711604701894,-25529.536639041267
1711604701934,-25070.53951419983
1711604701974,-24312.59555749502
1711604702014,-24281.32765714242
1711604702054,-24281.32765714242
1711604702094,-23127.82320936164
1711604702134,-20784.01988585526
1711604702174,-20676.72274981672
1711604702214,-20157.777380888117
1711604702254,-20150.09939622879
1711604702294,-19913.957501411205
1711604702334,-19684.70782932965
1711604702374,-19536.30980265187
1711604702414,-19344.868272945983
1711604702454,-18888.800285269506
1711604702494,-18813.996648564935
1711604702534,-18768.80609983555
1711604702574,-18243.140329243615
1711604702614,-17466.531446058303
1711604702654,-16634.298562902026
1711604702694,-15878.710097763687
1711604702734,-14501.372291994747
1711604702774,-14457.331409478094
1711604702814,-14121.532143306453
1711604702854,-13733.703482521
1711604702894,-13387.713797996053
1711604702934,-13140.352642104495
1711604702974,-13107.408124980517
1711604703014,-13102.164344009012
1711604703054,-13102.164344009012
1711604703094,-13102.164344009012
1711604703134,-13102.164344009012
1711604703174,-13102.164344009012
1711604703214,-13107.408124980517
1711604703254,-13140.352642104495
1711604703294,-13331.18214782793
1711604703334,-13331.18214782793
1711604703374,-13331.18214782793
1711604703414,-13331.18214782793
1711604703454,-13375.615375265712
1711604703494,-13331.18214782793
1711604703534,-13331.18214782793
1711604703574,-13375.615375265712
1711604703614,-13387.893444528338
1711604703654,-13486.291712341597
1711604703694,-13514.173636660445
1711604703734,-13812.10059729917
1711604703774,-13823.408204473555
1711604703814,-14021.954894583905
1711604703854,-14436.232981043868
1711604703894,-14597.825875795446
1711604703934,-14617.317222463666
1711604703974,-14617.317222463666
1711604704014,-14617.317222463666
1711604704054,-14820.453452656046
1711604704094,-15459.484060939867
1711604704134,-15459.484060939867
1711604704174,-16030.80051143188
1711604704214,-16049.606460316572
1711604704254,-16105.202075100038
1711604704294,-16448.684215802234
1711604704334,-16584.03395123314
1711604704374,-16792.21469348832
1711604704414,-16923.99304434564
1711604704454,-17163.558457516134
1711604704494,-17587.13997634803
1711604704534,-17587.13997634803
1711604704574,-17587.13997634803
1711604704614,-17743.584787139436
1711604704654,-18947.81999608944
1711604704694,-19173.865813365206
1711604704734,-19890.061698245583
1711604704774,-19942.934706909582
1711604704814,-20006.94221461471
1711604704854,-20551.05006302474
1711604704894,-20944.891840092605
1711604704934,-21121.689215480117
1711604704974,-21546.69134445465
1711604705014,-21752.43686922919
1711604705054,-21939.372362127062
1711604705094,-22164.98072204087
1711604705134,-22693.707048111595
1711604705174,-25355.299528220203
1711604705214,-32754.32704375265
1711604705254,-34818.16743916925
1711604705294,-36631.96432499122
1711604705334,-37662.626831708476
1711604705374,-38645.53445719136
1711604705414,-38814.58427768992
1711604705454,-39178.86396150477
1711604705494,-39474.604250929784
1711604705534,-40246.18710875325
1711604705574,-40297.45657942258
1711604705672,-41605.38021511119
1711604705713,-43594.56722415285
1711604705752,-47807.88671170082
1711604705792,-48218.542705843225
1711604705832,-49551.404070131015
1711604705872,-49703.87559402827
1711604705913,-49991.29965658765
1711604705952,-50036.90875074896
1711604705992,-50408.15548864938
1711604706033,-50453.71736408351
1711604706073,-50581.27208957262
1711604706113,-50690.66365084471
1711604706153,-50929.4212537664
1711604706193,-51049.30994675821
1711604706233,-51049.30994675821
1711604706273,-50929.4212537664
1711604706314,-50916.24093750445
1711604706353,-50690.66365084471
1711604706393,-50690.66365084471
1711604706434,-50690.66365084471
1711604706474,-50916.24093750445
1711604706514,-52463.310179211665
1711604706554,-52660.85111617227
1711604706594,-52720.30166917853
1711604706634,-53695.79965852294
1711604706674,-53695.79965852294
1711604706715,-53695.79965852294
1711604706755,-52720.30166917853
1711604706795,-52660.36904921685
1711604706835,-52463.310179211665
1711604706875,-50916.24093750445
1711604706916,-50441.02886096388
1711604706955,-49266.636184972245
1711604706995,-49010.37635394349
1711604707035,-47699.26058207685
1711604707075,-47199.84663801873
1711604707116,-45511.84526983299
1711604707156,-45326.19088438945
1711604707196,-45248.15450188052
1711604707236,-42402.1015450689
1711604707276,-40849.488946156576
1711604707317,-40444.71571888868
1711604707356,-40397.58162414236
1711604707396,-40257.54742078483
1711604707436,-40003.26983720949
1711604707476,-39395.78242656076
1711604707517,-38561.223830529954
1711604707557,-38453.123958199285
1711604707597,-38009.38589263242
1711604707637,-37989.59712336655
1711604707677,-36880.10828572977
1711604707718,-35935.98424160527
1711604707757,-35508.06896561198
1711604707797,-34396.10268594674
1711604707838,-33649.94166428037
1711604707878,-31286.99571714038
1711604707918,-30482.180628983304
1711604707958,-30036.566430790816
1711604707998,-29614.709159408463
1711604708038,-29365.73887929693
1711604708078,-28364.689610988833
1711604708119,-28272.090671808925
1711604708158,-28006.754385069944
1711604708198,-26703.90816281666
1711604708239,-25334.11705737794
1711604708279,-25268.152639497304
1711604708320,-25233.379742785357
1711604708359,-23561.916086131707
1711604708399,-23288.212372509763
1711604708439,-22332.862956692465
1711604708480,-21219.1950051398
1711604708520,-21038.363547610585
1711604708559,-21013.951632454526
1711604708600,-20348.482391247293
1711604708640,-19675.641612514388
1711604708680,-19508.967930404237
1711604708721,-18782.359554678667
1711604708760,-18631.977479066234
1711604708800,-17830.885245431447
1711604708841,-16205.314216597471
1711604708880,-15861.29498654441
1711604708921,-15784.657104881713
1711604708961,-14725.653393769637
1711604709001,-13973.521310837008
1711604709041,-13188.85665061418
1711604709081,-13148.552734263707
1711604709122,-12326.244701347314
1711604709161,-12220.672184912488
1711604709201,-11555.999336176086
1711604709242,-11311.702812795527
1711604709282,-10628.923717434984
1711604709323,-10462.876773221884
1711604709362,-10326.124205951346
1711604709402,-9226.001276331954
1711604709442,-8684.912806370994
1711604709482,-7614.688186217565
1711604709523,-7227.913349764654
1711604709563,-6507.77779094642
1711604709603,-6115.426237368723
1711604709643,-4846.9256768224295
1711604709684,-4203.888983648969
1711604709725,-4056.9170830224175
1711604709764,-3493.6426506105345
1711604709805,-3274.3489484800957
1711604709845,-3162.0420402055606
1711604709885,-2119.7784001957625
1711604709926,-1908.5278571518138
1711604709965,-1225.2873179365415
1711604710006,-1225.2873179365415
1711604710046,-1225.2873179365415
1711604710086,-1148.4497872379143
1711604710131,-1148.4497872379143
1711604710171,-1148.4497872379143
1711604710211,-1130.7500287531875
1711604710251,-737.6451181992888
1711604710292,-616.6280388967134
1711604710332,260.36733975214884
1711604710372,288.2344726771116
1711604710412,355.46254327264614
1711604710452,1146.5292340153828
1711604710492,1426.5735529400408
1711604710533,1426.5735529400408
1711604710573,1426.5735529400408
1711604710613,1146.5292340153828
1711604710653,355.46254327264614
1711604710693,288.2344726771116
1711604710734,57.041593928355724
1711604710773,-0.5793518023565412
1711604710813,-20.973002321552485
1711604710854,-0.5793518023565412
1711604710894,-0.5793518023565412
1711604710935,-0.5793518023565412
1711604710974,57.041593928355724
1711604711014,205.50772761111148
1711604711055,205.50772761111148
1711604711095,205.50772761111148
1711604711136,205.50772761111148
1711604711175,205.50772761111148
1711604711215,205.50772761111148
1711604711256,205.50772761111148
1711604711296,205.50772761111148
1711604711336,205.50772761111148
1711604711376,6016.545738251647
1711604711416,14054.917914983816
1711604711456,17060.98420493817
1711604711497,17274.22525720927
1711604711538,17826.92507270025
1711604711577,24213.323678655317
1711604711617,35148.50166573771
1711604711657,37342.56112749502
1711604711698,37342.56112749502
1711604711739,37342.56112749502
1711604711778,37342.56112749502
1711604711818,37342.56112749502
1711604711859,37342.56112749502
1711604711899,37342.56112749502
1711604711940,37342.56112749502
1711604711980,37342.56112749502
1711604712020,37342.56112749502
1711604712060,37342.56112749502
1711604712100,34683.616254860535
1711604712141,34109.491096980404
1711604712181,32921.05750713544
1711604712221,31840.66343265446
1711604712261,30785.43027604581
1711604712301,29247.82173040975
1711604712343,28479.730828394182
1711604712382,26390.352818375686
1711604712422,26390.352818375686
1711604712463,26390.352818375686
1711604712503,23241.35918382951
1711604712544,23241.35918382951
1711604712583,22898.981685614213
1711604712623,22898.981685614213
1711604712664,22898.981685614213
1711604712704,22898.981685614213
1711604712745,22898.981685614213
1711604712784,23241.35918382951
1711604712825,23774.69148944039
1711604712865,25394.617464290932
1711604712905,26390.352818375686
1711604712947,26996.865512759425
1711604712986,27180.88637032546
1711604713026,27728.695206899196
1711604713067,27728.695206899196
1711604713107,30407.487586436328
1711604713148,30842.421258723363
1711604713188,30842.421258723363
1711604713228,30842.421258723363
1711604713268,30842.421258723363
1711604713308,30842.421258723363
1711604713349,30842.421258723363
1711604713389,30842.421258723363
1711604713429,30842.421258723363
1711604713469,30842.421258723363
1711604713509,30842.421258723363
1711604713550,30614.624354274478
1711604713590,30407.487586436328
1711604713630,29194.086155196186
1711604713671,28991.576950933784
1711604713711,28727.744150483515
1711604713752,28655.078383491375
1711604713791,28587.5087003035
1711604713831,28477.450669910293
1711604713872,27640.202431685524
1711604713912,27149.031299429946
1711604713953,26457.258874366526
1711604713992,25519.16571580991
1711604714032,24907.100769706536
1711604714072,24290.474480144912
1711604714113,24071.4561848687
1711604714154,21763.0314308824
1711604714193,21371.628610693384
1711604714234,21271.658913410036
1711604714274,20633.73456622404
1711604714314,20478.57631861465
1711604714355,20478.57631861465
1711604714394,20478.57631861465
1711604714434,20478.57631861465
1711604714475,20460.93366453168
1711604714515,20327.719991220627
1711604714556,20270.00840945891
1711604714595,20110.2201427985
1711604714635,20096.57546443958
1711604714675,20080.822433646536
1711604714716,20057.040866262745
1711604714757,19937.989591351245
1711604714796,19937.989591351245
1711604714836,19937.989591351245
1711604714877,19922.7517771665
1711604714917,19872.74961557379
1711604714958,19842.67835872015
1711604714997,18736.567263564095
1711604715037,18159.04054289451
1711604715078,18100.52505681431
1711604715118,18044.39055249025
1711604715159,17630.682298685424
1711604715198,17439.093874107115
1711604715239,17082.11080019176
1711604715279,16962.93154843431
1711604715319,16613.848323886516
1711604715360,16450.24269720912
1711604715400,16075.80481293844
1711604715440,16075.80481293844
1711604715480,16075.80481293844
1711604715520,16075.80481293844
1711604715561,16450.24269720912
1711604715601,16075.80481293844
1711604715641,15004.722572132014
1711604715681,14781.030360709876
1711604715722,14566.467720811488
1711604715762,14330.905280840583
1711604715802,13510.109015287133
1711604715842,13510.109015287133
1711604715882,13476.7430802444
1711604715923,13444.59404789214
1711604715964,13318.283732358832
1711604716003,13318.283732358832
1711604716044,13285.17130535096
1711604716084,13247.674261562759
1711604716124,13247.674261562759
1711604716165,13247.674261562759
1711604716205,13115.950076783076
1711604716245,12963.655961671378
1711604716285,12581.426893185358
1711604716326,12263.262746694032
1711604716366,11569.747393716592
1711604716406,11568.762706929818
1711604716446,11482.964131913148
1711604716486,11482.964131913148
1711604716527,11482.964131913148
1711604716568,11324.575950705446
1711604716607,11324.575950705446
1711604716647,10645.686868524645
1711604716688,10605.253339977004
1711604716728,9965.012424510438
1711604716769,9758.652149345726
1711604716808,9271.014015115332
1711604716849,8439.674451352796
1711604716889,8439.674451352796
1711604716929,8439.674451352796
1711604716970,8439.674451352796
1711604717010,8439.674451352796
1711604717050,8439.674451352796
1711604717090,8439.674451352796
1711604717131,8439.674451352796
1711604717172,8439.674451352796
1711604717212,9139.704703755677
1711604717252,9139.704703755677
1711604717292,9139.704703755677
1711604717332,9215.893823105609
1711604717373,9215.893823105609
1711604717413,9139.704703755677
1711604717453,8837.774416645523
1711604717493,8837.774416645523
1711604717533,8837.774416645523
1711604717574,9139.704703755677
1711604717613,9215.893823105609
1711604717654,9449.957164024934
1711604717694,9661.407533694524
1711604717733,10009.75445803674
1711604717772,10009.75445803674
1711604717811,9661.407533694524
1711604717850,9215.893823105609
1711604717889,9215.893823105609
1711604717928,9351.01611523144
1711604717967,9351.01611523144
1711604718006,9351.01611523144
1711604718045,9661.407533694524
1711604718084,10011.70550369937
1711604718123,10089.947726474144
1711604718162,10279.104387886822
1711604718201,10389.192317124456
1711604718240,11481.629035263788
1711604718279,11481.629035263788
1711604718318,11481.629035263788
1711604718357,11661.946691210847
1711604718396,11724.823782314314
1711604718435,12629.11207720195
1711604718475,12629.11207720195
1711604718515,12861.99162438768
1711604718555,12861.99162438768
1711604718595,12861.99162438768
1711604718635,12861.99162438768
1711604718675,12861.99162438768
1711604718715,13165.246995507274
1711604718755,13165.246995507274
1711604718795,13165.246995507274
1711604718835,13165.246995507274
1711604718875,12861.99162438768
1711604718915,12629.11207720195
1711604718955,12450.9751764643
1711604718995,11802.250820532208
1711604719035,11763.232245441992
1711604719075,11763.232245441992
1711604719115,11802.250820532208
1711604719155,11802.250820532208
1711604719195,11763.232245441992
1711604719235,11763.232245441992
1711604719275,11763.232245441992
1711604719315,11618.067484937841
1711604719355,11613.765576723497
1711604719395,11417.70202436694
1711604719435,11613.765576723497
1711604719475,11417.70202436694
1711604719515,11191.548296736088
1711604719555,10884.313568871235
1711604719595,10795.525168393739
1711604719635,10776.281824686565
1711604719675,10377.070647318847
1711604719715,10323.17036314914
1711604719755,10323.17036314914
1711604719795,10377.070647318847
1711604719835,10776.281824686565
1711604719875,10884.313568871235
1711604719915,10884.313568871235
1711604719955,10884.313568871235
1711604719995,10997.036752536427
1711604720035,11191.548296736088
1711604720075,11191.548296736088
1711604720115,11191.548296736088
1711604720155,11452.278922807658
1711604720195,11452.278922807658
1711604720235,11750.28922975692
1711604720275,11750.28922975692
1711604720315,11750.28922975692
1711604720355,11750.28922975692
1711604720395,11750.28922975692
1711604720435,11750.28922975692
1711604720475,11750.28922975692
1711604720515,11750.28922975692
1711604720555,11750.28922975692
1711604720595,11452.278922807658
1711604720635,11342.105922027491
1711604720675,11342.105922027491
1711604720715,11160.353346841643
1711604720755,10635.139030981343
1711604720795,10384.527567991521
1711604720835,10366.38359515299
1711604720875,8646.339064142201
1711604720915,8519.19180072588
1711604720955,8274.564536800142
1711604720995,8267.528030042537
1711604721035,8150.598095784662
1711604721075,7801.266389075434
1711604721115,7482.609490723116
1711604721155,7194.53062202828
1711604721195,6608.858508553356
1711604721235,6313.3643151009455
1711604721275,4710.080063774716
1711604721315,4599.755924239289
1711604721355,3981.8651491298806
1711604721395,3746.825665890239
1711604721435,2301.780284046661
1711604721475,-240.12479108665138
1711604721515,-256.04044857108966
1711604721555,-256.04044857108966
1711604721595,-256.04044857108966
1711604721635,-256.04044857108966
1711604721675,-256.04044857108966
1711604721715,-256.04044857108966
1711604721755,-256.04044857108966
1711604721795,-256.04044857108966
1711604721835,-256.04044857108966
1711604721875,-240.12479108665138
1711604721915,166.36046515963972
1711604721955,1055.1062855822966
1711604721995,1055.1062855822966
1711604722035,1544.6985346772708
1711604722075,1899.8379836431704
1711604722115,3985.3897037892602
1711604722155,4890.703885921277
1711604722195,7246.21325215674
1711604722235,8762.164831513306
1711604722275,9450.92543708533
1711604722315,9521.081230062759
1711604722355,11829.059863010421
1711604722395,13047.510110230418
1711604722435,13051.817798120435
1711604722475,13205.19314473169
1711604722515,13373.17180831451
1711604722555,13373.17180831451
1711604722595,13373.17180831451
1711604722635,14848.548764191102
1711604722675,14940.428219368216
1711604722715,15019.098762302194
1711604722755,15626.451183745638
1711604722795,15253.681644830387
1711604722835,15019.098762302194
1711604722875,15019.098762302194
1711604722915,15019.098762302194
1711604722955,15019.098762302194
1711604722995,15019.098762302194
1711604723035,15019.098762302194
1711604723075,15253.681644830387
1711604723115,15253.681644830387
1711604723155,15626.451183745638
1711604723195,15626.451183745638
1711604723235,15253.681644830387
1711604723275,15253.681644830387
1711604723315,13142.035051794723
1711604723355,12940.303663392784
1711604723395,9127.21475001541
1711604723435,7989.294109947747
1711604723475,6103.152154875919
1711604723515,4700.971617003437
1711604723555,3660.6833322749007
1711604723595,998.0283414288424
1711604723635,-4344.4844564986415
1711604723675,-6119.660919320071
1711604723715,-11417.657676857896
1711604723755,-12126.720893200487
1711604723795,-12126.720893200487
1711604723835,-12126.720893200487
1711604723875,-12126.720893200487
1711604723915,-12126.720893200487
1711604723955,-12126.720893200487
1711604723995,-12126.720893200487
1711604724035,-12126.720893200487
1711604724075,-12126.720893200487
1711604724115,-12126.720893200487
1711604724155,-12126.720893200487
1711604724195,-7546.1502081914805
1711604724235,-4920.463286336511
1711604724275,3936.070742610842
1711604724315,4652.966667389497
1711604724355,4652.966667389497
1711604724395,4652.966667389497
1711604724435,4652.966667389497
1711604724475,4652.966667389497
1711604724515,4652.966667389497
1711604724555,4652.966667389497
1711604724595,5049.327425017022
1711604724635,5049.327425017022
1711604724675,5049.327425017022
1711604724715,5049.327425017022
1711604724755,5049.327425017022
1711604724795,5049.327425017022
1711604724835,6064.983436930925
1711604724875,9013.80270155496
1711604724915,12816.864799847826
1711604724955,16619.182456359034
1711604724995,19113.728048826102
1711604725035,19113.728048826102
1711604725075,12816.864799847826
1711604725115,12045.298967066454
1711604725155,12045.298967066454
1711604725195,12045.298967066454
1711604725235,12045.298967066454
1711604725275,12816.864799847826
1711604725315,19417.18407829292
1711604725355,20507.16261144192
1711604725395,21677.91099931998
1711604725435,22407.170427966164
1711604725475,25730.391746922163
1711604725515,28275.711722224252
1711604725555,30439.869996383786
1711604725595,30531.869264813606
1711604725635,30531.869264813606
1711604725675,30531.869264813606
1711604725715,30439.869996383786
1711604725755,30138.195481382543
1711604725795,29211.16753178416
1711604725835,29124.847881712485
1711604725875,29124.847881712485
1711604725915,29124.847881712485
1711604725955,29124.847881712485
1711604725995,29124.847881712485
1711604726035,29124.847881712485
1711604726075,29124.847881712485
1711604726115,29124.847881712485
1711604726155,28882.83883544104
1711604726195,27442.100860330043
1711604726235,25414.641646733973
1711604726275,24396.489971026313
1711604726315,24164.76424237946
1711604726355,23395.97440696857
1711604726395,23022.048172564246
1711604726435,22274.20487777097
1711604726475,21225.38199388841
1711604726515,21170.08243147866
1711604726555,13924.532080530189
1711604726595,7934.658834819449
1711604726635,7934.658834819449
1711604726675,7934.658834819449
1711604726715,7934.658834819449
1711604726755,7934.658834819449
1711604726795,7934.658834819449
1711604726835,5317.470058078878
1711604726875,1622.7990438390989
1711604726915,-1876.8055446811486
1711604726955,-2629.4454248752445
1711604726995,-5080.131733024493
1711604727035,-8711.616930854507
1711604727075,-10155.647963541793
1711604727115,-10550.023069007555
1711604727155,-10155.647963541793
1711604727195,-9162.417406531982
1711604727235,-9151.302367639728
1711604727275,-9151.302367639728
1711604727315,-9052.573406292126
1711604727355,-9052.573406292126
1711604727395,-9052.573406292126
1711604727435,-9052.573406292126
1711604727475,-9052.573406292126
1711604727515,-9052.573406292126
1711604727555,-9052.573406292126
1711604727595,-9052.573406292126
1711604727635,-9052.573406292126
1711604727675,-9052.573406292126
1711604727715,-8947.409120257478
1711604727755,-7424.180543456925
1711604727795,-7285.014070983976
1711604727835,229.97137148631737
1711604727875,229.97137148631737
1711604727915,229.97137148631737
1711604727955,229.97137148631737
1711604727995,229.97137148631737
1711604728035,229.97137148631737
1711604728075,229.97137148631737
1711604728115,229.97137148631737
1711604728155,3549.9333834121935
1711604728195,6223.290238665184
1711604728235,6677.784004066372
1711604728275,7308.598378434777
1711604728315,13118.531688503921
1711604728355,13118.531688503921
1711604728395,12015.932729773689
1711604728435,12015.932729773689
1711604728475,12015.932729773689
1711604728515,12015.932729773689
1711604728555,12015.932729773689
1711604728595,12015.932729773689
1711604728635,13118.531688503921
1711604728675,13416.175007796148
1711604728715,13727.067159630591
1711604728755,13945.23584254831
1711604728795,13945.23584254831
1711604728835,13945.23584254831
1711604728875,13945.23584254831
1711604728915,13945.23584254831
1711604728955,13945.23584254831
1711604728995,13945.23584254831
1711604729035,13844.865031444933
1711604729075,13844.865031444933
1711604729115,13727.067159630591
1711604729155,13571.074539314024
1711604729195,13516.96608844283
1711604729235,13516.96608844283
1711604729275,13516.96608844283
1711604729315,13119.350955937989
1711604729355,13119.350955937989
1711604729395,13119.350955937989
1711604729435,12624.757187686395
1711604729475,12500.229721745942
1711604729515,10637.321887806058
1711604729555,9739.355773735791
1711604729595,5940.93654855527
1711604729635,5135.467636836693
1711604729675,-769.6363968024962
1711604729771,-5167.350050563924
1711604729812,-5393.02536515519
1711604729851,-9916.845856675878
1711604729891,-10283.532883987762
1711604729931,-11470.059300810564
1711604729971,-18983.599507635925
1711604730012,-19367.355270092143
1711604730052,-22531.96839352115
1711604730091,-24504.278128684964
1711604730132,-25237.246125040576
1711604730172,-27786.0406880707
1711604730212,-28143.345336477505
1711604730252,-34707.926798635395
1711604730292,-37357.68411028711
1711604730332,-37436.786229107995
1711604730372,-37436.786229107995
1711604730413,-37436.786229107995
1711604730452,-37436.786229107995
1711604730492,-37436.786229107995
1711604730533,-37436.786229107995
1711604730573,-37436.786229107995
1711604730614,-37436.786229107995
1711604730653,-37436.786229107995
1711604730693,-37436.786229107995
1711604730733,-37436.786229107995
1711604730773,-25924.7925699912
1711604730814,-12018.027909759432
1711604730853,-6774.271371102892
1711604730894,1104.62283734628
1711604730934,1215.3692508772947
1711604730974,1307.168914372567
1711604731015,2080.5197882666253
1711604731054,2339.579304879997
1711604731094,4934.376509308349
1711604731134,5850.314532222226
1711604731174,6001.438560673501
1711604731215,28742.592137661763
1711604731255,35353.79709754232
1711604731295,35511.82879775064
1711604731335,39954.56390856998
1711604731375,40909.160873314366
1711604731416,43183.78550462471
1711604731455,47487.0034233504
1711604731495,57072.228841345524
1711604731535,61128.940143757965
1711604731576,67173.87734744279
1711604731617,67173.87734744279
1711604731656,67173.87734744279
1711604731696,67173.87734744279
1711604731736,67173.87734744279
1711604731776,67173.87734744279
1711604731817,67173.87734744279
1711604731856,67173.87734744279
1711604731897,67173.87734744279
1711604731937,67173.87734744279
1711604731977,67173.87734744279
1711604732018,63104.21180018177
1711604732057,56718.00712690037
1711604732097,50417.400950798765
1711604732137,45316.58973532962
1711604732177,31669.816782226786
1711604732218,17271.459648333024
1711604732257,-525.1588640329428
1711604732298,-18724.92279929528
1711604732338,-34559.36201584665
1711604732378,-43735.186771260574
1711604732419,-49445.47157584969
1711604732458,-49445.47157584969
1711604732498,-49445.47157584969
1711604732538,-49445.47157584969
1711604732579,-49445.47157584969
1711604732619,-49445.47157584969
1711604732659,-49445.47157584969
1711604732699,-49445.47157584969
1711604732739,-49445.47157584969
1711604732779,-49445.47157584969
1711604732820,-49445.47157584969
1711604732859,-47215.356532214675
1711604732899,-43478.52996794949
1711604732940,-36728.40766076278
1711604732980,-31396.306271342095
1711604733021,-31100.305832648417
1711604733060,-28901.650232578162
1711604733100,-28001.868639043765
1711604733140,-27297.09013266326
1711604733180,-25660.773959702114
1711604733221,-24789.524069207953
1711604733260,-23500.3688807874
1711604733301,-23489.94722970901
1711604733341,-22809.66560407495
1711604733381,-22034.907095648814
1711604733422,-20760.544157643337
1711604733461,-19071.270816215314
1711604733501,-18448.85424699029
1711604733542,-8676.80560891144
1711604733581,13171.155451159226
1711604733622,13171.155451159226
1711604733662,13171.155451159226
1711604733702,13171.155451159226
1711604733742,13171.155451159226
1711604733782,13171.155451159226
1711604733823,13171.155451159226
1711604733862,13171.155451159226
1711604733903,15042.02179756551
1711604733943,20122.690482628997
1711604733983,20785.756919872016
1711604734024,21026.94630902121
1711604734063,21026.94630902121
1711604734103,21026.94630902121
1711604734143,20785.756919872016
1711604734183,20510.131821944844
1711604734224,20122.690482628997
1711604734264,15042.02179756551
1711604734304,12190.294544688426
1711604734344,6794.497225790285
1711604734384,6794.497225790285
1711604734425,2385.318329663016
1711604734464,2385.318329663016
1711604734504,2385.318329663016
1711604734544,2385.318329663016
1711604734585,2385.318329663016
1711604734626,2385.318329663016
1711604734665,2385.318329663016
1711604734705,2132.532480139518
1711604734745,2104.9240612187423
1711604734785,1861.4731802754104
1711604734826,-6169.857728924137
1711604734866,-34708.87005753466
1711604734906,-34708.87005753466
1711604734946,-34708.87005753466
1711604734986,-34708.87005753466
1711604735027,-34708.87005753466
1711604735066,-34708.87005753466
1711604735106,-34708.87005753466
1711604735146,-34708.87005753466
1711604735187,-36279.75977010792
1711604735228,-36279.75977010792
1711604735267,-37195.18583552679
1711604735307,-36279.75977010792
1711604735347,-35683.19793976331
1711604735387,-34708.87005753466
1711604735428,-33635.988882063655
1711604735468,-30087.964224281954
1711604735508,-22508.128253413364
1711604735548,-7234.184650694486
1711604735588,-6996.518902795855
1711604735629,-1726.2308211396448
1711604735669,4888.731052085524
1711604735709,5728.971728891833
1711604735749,5978.340707584051
1711604735789,8644.437637625262
1711604735831,8644.437637625262
1711604735870,23038.97350115655
1711604735910,23466.841867921874
1711604735950,23466.841867921874
1711604735990,23466.841867921874
1711604736031,23466.841867921874
1711604736071,23466.841867921874
1711604736111,23466.841867921874
1711604736151,23466.841867921874
1711604736191,23466.841867921874
1711604736234,23466.841867921874
1711604736273,23466.841867921874
1711604736314,23038.97350115655
1711604736354,23038.97350115655
1711604736394,23038.97350115655
1711604736435,23038.97350115655
1711604736474,23038.97350115655
1711604736514,23466.841867921874
1711604736555,23466.841867921874
1711604736595,23466.841867921874
1711604736636,23466.841867921874
1711604736675,21147.47473626118
1711604736715,19634.763187316246
1711604736756,15250.557325919159
1711604736796,13760.995993094519
1711604736837,10650.717046519509
1711604736879,9111.742725773016
1711604736917,6584.124752668664
1711604736957,2874.027613111306
1711604736997,2874.027613111306
1711604737039,2874.027613111306
1711604737078,2874.027613111306
1711604737118,3651.7064228530508
1711604737159,9716.268982245121
1711604737199,6966.294402172323
1711604737240,3651.7064228530508
1711604737279,-1247.2384030993562
1711604737319,-3010.1423259037547
1711604737360,-3700.0439305794425
1711604737400,-3700.0439305794425
1711604737441,-3700.0439305794425
1711604737480,-3700.0439305794425
1711604737521,-3700.0439305794425
1711604737561,-3700.0439305794425
1711604737601,-3700.0439305794425
1711604737642,-3700.0439305794425
1711604737682,-3700.0439305794425
1711604737722,-3700.0439305794425
1711604737762,-3700.0439305794425
1711604737802,-3700.0439305794425
1711604737843,-3700.0439305794425
1711604737883,-3700.0439305794425
1711604737923,-5282.459459571168
1711604737963,-7128.184952723328
1711604738004,-14041.64534970373
1711604738045,-21348.517345946748
1711604738084,-29750.4945670811
1711604738124,-32541.078865199117
1711604738165,-34140.45075763133
1711604738205,-37888.5876558763
1711604738246,-37888.5876558763
1711604738285,-37888.5876558763
1711604738326,-37888.5876558763
1711604738366,-37888.5876558763
1711604738406,-37888.5876558763
1711604738447,-37888.5876558763
1711604738487,-37888.5876558763
1711604738527,-36661.32639101101
1711604738567,-35318.510597132845
1711604738607,-35318.510597132845
1711604738648,-35318.510597132845
1711604738688,-35318.510597132845
1711604738728,-33881.74838247895
1711604738768,-26151.674095318653
1711604738809,-22974.424529203912
1711604738850,-14753.991846758407
1711604738889,-14753.991846758407
1711604738929,-14753.991846758407
1711604738970,-14532.181721586268
1711604739010,-14532.181721586268
1711604739050,-14532.181721586268
1711604739093,-13271.650336301187
1711604739130,-7952.68027300504
1711604739170,-7420.332452627365
1711604739211,-5972.113879949786
1711604739251,-2889.7996819452383
1711604739291,1001.6094048251398
1711604739331,4169.687877214514
1711604739371,4169.687877214514
1711604739411,4169.687877214514
1711604739452,4169.687877214514
1711604739492,4169.687877214514
1711604739532,4169.687877214514
1711604739572,4169.687877214514
1711604739612,12975.36659067683
1711604739653,15631.926356462296
1711604739693,16492.75927807484
1711604739733,16748.022439033026
1711604739773,16748.022439033026
1711604739813,16748.022439033026
1711604739854,16748.022439033026
1711604739893,16748.022439033026
1711604739933,16748.022439033026
1711604739974,16748.022439033026
1711604740014,16748.022439033026
1711604740055,16748.022439033026
1711604740094,16748.022439033026
1711604740134,18466.055183905642
1711604740175,19254.92403807235
1711604740215,19254.92403807235
1711604740256,19254.92403807235
1711604740295,18476.109482161235
1711604740336,18476.109482161235
1711604740376,18476.109482161235
1711604740416,18476.109482161235
1711604740457,18476.109482161235
1711604740497,18476.109482161235
1711604740537,18476.109482161235
1711604740577,18476.109482161235
1711604740617,19254.92403807235
1711604740658,20810.83526981133
1711604740698,22999.30893805879
1711604740738,25796.821649624035
1711604740778,25796.821649624035
1711604740818,25796.821649624035
1711604740859,25796.821649624035
1711604740899,25796.821649624035
1711604740939,25796.821649624035
1711604740979,25796.821649624035
1711604741020,25796.821649624035
1711604741061,25796.821649624035
1711604741100,25796.821649624035
1711604741141,25796.821649624035
1711604741181,23612.175952834543
1711604741221,22637.103305897675
1711604741262,22005.406843888108
1711604741304,20537.71401133691
1711604741342,19659.175152487587
1711604741382,17818.95273118047
1711604741422,16322.805534404935
1711604741463,15788.352399260271
1711604741503,15072.450076735113
1711604741543,13926.111742349342
1711604741583,13403.408559492324
1711604741624,12692.58210984664
1711604741665,12027.395956180524
1711604741704,11867.91328270291
1711604741745,11570.308555193245
1711604741785,11212.939148997888
1711604741820,10894.718165288446
1711604741861,10827.240960451309
1711604741900,10620.251851462293
1711604741940,10443.930270111188
1711604741980,10244.943763257004
1711604742020,10215.552592852153
1711604742061,10083.5524751544
1711604742101,9890.384238621918
1711604742141,9723.532017907593
1711604742181,9702.098450972931
1711604742221,9350.988344666315
1711604742262,8748.457330289297
1711604742301,8681.801532708574
1711604742342,8676.626493462361
1711604742382,7990.183552060742
1711604742422,7990.183552060742
1711604742463,7982.364600208588
1711604742502,7982.364600208588
1711604742542,7892.726278003305
1711604742583,7864.987147045787
1711604742623,7838.394978635944
1711604742663,7749.640458057402
1711604742703,7661.2393652219325
1711604742743,7596.27554595191
1711604742783,7453.539367550053
1711604742823,7453.539367550053
1711604742864,7566.218196504749
1711604742903,7661.2393652219325
1711604742944,7661.2393652219325
1711604742984,7566.218196504749
1711604743024,7453.539367550053
1711604743065,7328.548663401278
1711604743104,7326.0016935626045
1711604743144,7319.3722287407145
1711604743184,7210.263658746146
1711604743224,7179.606321058702
1711604743265,7045.712061186787
1711604743305,6992.099956581369
1711604743344,6673.9241523812525
1711604743385,6667.742419071263
1711604743425,6556.996626123786
1711604743465,6521.507524834946
1711604743505,6510.003673068015
1711604743545,6510.003673068015
1711604743585,6493.021564198891
1711604743625,6446.2723498628475
1711604743666,6321.812962711323
1711604743705,6308.474640332628
1711604743745,6184.530592961237
1711604743786,6110.914076198358
1711604743826,5663.713601593394
1711604743866,3795.266279957257
1711604743906,-1475.3954886454158
1711604743946,-2143.1625030355062
1711604743986,-2143.1625030355062
1711604744026,-2143.1625030355062
1711604744067,-2143.1625030355062
1711604744106,-2143.1625030355062
1711604744146,-2143.1625030355062
1711604744186,-4498.451600086875
1711604744226,-9051.885268552694
1711604744267,-9686.646592159756
1711604744307,-9686.646592159756
1711604744347,-9686.646592159756
1711604744387,-9686.646592159756
1711604744427,-9051.885268552694
1711604744468,-8165.585040250327
1711604744507,-4136.040548625402
1711604744547,-2143.1625030355062
1711604744587,-1269.465524436906
1711604744628,-196.46835294179618
1711604744668,679.5458604013547
1711604744708,3333.5794178792275
1711604744748,3501.060488832183
1711604744788,5271.397563544568
1711604744828,5271.397563544568
1711604744869,5271.397563544568
1711604744908,5271.397563544568
1711604744948,5271.397563544568
1711604744988,5811.444786404958
1711604745028,6117.798557821196
1711604745069,6300.204511930235
1711604745109,6788.554949888494
1711604745149,7047.784981810488
1711604745189,7047.784981810488
1711604745229,7047.784981810488
1711604745270,7047.784981810488
1711604745309,7047.784981810488
1711604745349,7047.784981810488
1711604745389,7047.784981810488
1711604745429,7047.784981810488
1711604745470,12616.262279918417
1711604745510,13650.131049050484
1711604745550,13650.131049050484
1711604745590,13650.131049050484
1711604745630,13650.131049050484
1711604745671,12937.10196870775
1711604745710,12937.10196870775
1711604745750,12566.543225821108
1711604745790,12566.543225821108
1711604745831,12566.543225821108
1711604745871,12566.543225821108
1711604745911,12566.543225821108
1711604745951,12566.543225821108
1711604745991,12566.543225821108
1711604746031,12937.10196870775
1711604746072,13610.683817484882
1711604746111,13617.897888111183
1711604746151,13617.897888111183
1711604746192,13617.897888111183
1711604746232,13617.897888111183
1711604746272,13617.897888111183
1711604746312,13610.683817484882
1711604746352,13585.139533558395
1711604746392,13585.139533558395
1711604746432,13585.139533558395
1711604746473,13585.139533558395
1711604746512,13585.139533558395
1711604746553,12700.227466407232
1711604746593,12700.227466407232
1711604746633,12018.451350622345
1711604746674,11556.179366849829
1711604746713,10475.38243248593
1711604746753,10169.778786625713
1711604746793,10089.942504122853
1711604746833,9699.873315202072
1711604746874,9627.52605591435
1711604746914,8431.7207152443
1711604746954,7373.3462352231145
1711604746994,6412.9504367839545
1711604747034,5427.942765221931
1711604747075,4849.030349208042
1711604747114,4751.323682370596
1711604747154,4550.948196116835
1711604747194,4410.019736478571
1711604747234,4405.003319731448
1711604747276,4374.457737436518
1711604747315,4317.729205274489
1711604747355,4039.073364513926
1711604747395,4039.073364513926
1711604747435,4039.073364513926
1711604747476,3976.0457887537777
1711604747516,3976.0457887537777
1711604747556,3976.0457887537777
1711604747596,3899.5087704542093
1711604747637,3899.5087704542093
1711604747677,3855.3669116795063
1711604747717,3776.82668480929
1711604747757,3718.4821052486077
1711604747797,3697.5517049343325
1711604747838,3643.857519821264
1711604747879,3418.0441456818953
1711604747919,3371.2172217443585
1711604747959,3371.2172217443585
1711604747999,3371.2172217443585
1711604748039,3371.2172217443585
1711604748080,3371.2172217443585
1711604748120,3371.2172217443585
1711604748160,3371.2172217443585
1711604748201,3418.0441456818953
1711604748241,3418.0441456818953
1711604748282,3418.0441456818953
1711604748322,3709.0116270575672
1711604748362,3709.0116270575672
1711604748402,3826.3508980348706
1711604748443,3909.8125643478706
1711604748484,3935.9888969343156
1711604748524,3972.5693100215867
1711604748564,4074.6444067722186
1711604748604,4093.046077356674
1711604748644,4146.054263117723
1711604748685,4222.066610818729
1711604748725,4246.399189563468
1711604748765,4267.790384902153
1711604748805,4267.790384902153
1711604748845,4267.790384902153
1711604748886,4267.790384902153
1711604748926,4222.066610818729
1711604748966,4222.066610818729
1711604749006,4222.066610818729
1711604749046,4146.054263117723
1711604749087,4146.054263117723
1711604749126,4290.873991741799
1711604749167,4290.873991741799
1711604749207,4280.392608363647
1711604749247,4146.054263117723
1711604749288,4058.6911483579315
1711604749327,3904.205173972994
1711604749367,3779.81942066364
1711604749408,3738.141328644473
1711604749448,3621.262696134858
1711604749489,3580.2791896923445
1711604749528,3578.0592595883645
1711604749568,3554.5138274929486
1711604749608,3549.854522509966
1711604749649,3420.857679619454
1711604749690,3384.280722772237
1711604749729,3341.1986428140663
1711604749769,2902.0288818310946
1711604749810,2825.9780377224088
1711604749850,2022.8453577626497
1711604749891,1904.1002606628463
1711604749930,1659.5937402853742
1711604749970,1643.3218701807782
1711604750011,1532.8112030196935
1711604750051,1520.6047238549218
1711604750092,1520.6047238549218
1711604750131,1520.6047238549218
1711604750172,1520.6047238549218
1711604750212,1520.6047238549218
1711604750252,1520.6047238549218
1711604750293,1520.6047238549218
1711604750333,1520.6047238549218
1711604750373,1532.8112030196935
1711604750413,1595.1373411631212
1711604750453,1640.170857898891
1711604750494,1643.3218701807782
1711604750534,1676.7437510546297
1711604750574,1676.7437510546297
1711604750614,1897.7691274727695
1711604750655,1959.5203246129677
1711604750696,1988.461478705518
1711604750735,2035.7102463780902
1711604750776,2192.972446189262
1711604750816,2427.8001448540017
1711604750856,2484.582624770701
1711604750897,2553.5487728863955
1711604750936,2717.2166125234216
1711604750977,2879.3273559017107
1711604751018,2906.833650831599
1711604751058,2906.833650831599
1711604751099,2906.833650831599
1711604751139,2906.833650831599
1711604751179,2906.833650831599
1711604751219,2906.833650831599
1711604751260,2906.833650831599
1711604751300,2906.833650831599
1711604751340,2906.833650831599
1711604751380,2906.833650831599
1711604751420,2879.3273559017107
1711604751461,2841.695808294695
1711604751502,2603.035588644445
1711604751541,2603.035588644445
1711604751581,2603.035588644445
1711604751622,2591.703990546055
1711604751662,2580.3303508674726
1711604751703,2369.797487278469
1711604751742,1995.4567325850949
1711604751783,1964.583562199492
1711604751823,1741.1867978749797
1711604751863,1712.2055337703787
1711604751904,1683.6546121486463
1711604751944,1612.2903161891736
1711604751984,1576.63300854899
1711604752024,1576.63300854899
1711604752064,1576.63300854899
1711604752105,1712.2055337703787
1711604752144,1741.1867978749797
1711604752185,1576.63300854899
1711604752225,1564.2205151487142
1711604752265,1382.8973784036934
1711604752306,1380.3004027465358
1711604752345,1332.9659314430319
1711604752385,1289.6504058567807
1711604752426,1174.508997454308
1711604752466,1171.2828624271788
1711604752507,1161.8324136780575
1711604752546,1085.1246954263188
1711604752586,1059.9021733510308
1711604752626,1054.1160832657479
1711604752667,1054.1160832657479
1711604752708,1045.1892033829354
1711604752747,888.3221121341921
1711604752787,693.2763102096505
1711604752827,339.41039277613163
1711604752867,222.00246652308851
1711604752908,155.7190843843855
1711604752948,-43.34614461520687
1711604752988,-43.34614461520687
1711604753028,-113.25127381645143
1711604753069,-113.25127381645143
1711604753109,-113.25127381645143
1711604753149,-113.25127381645143
1711604753189,-113.25127381645143
1711604753229,-113.25127381645143
1711604753270,-108.55646600574255
1711604753311,-43.34614461520687
1711604753350,14.058343194425106
1711604753390,-108.55646600574255
1711604753431,14.058343194425106
1711604753471,115.99955758824944
1711604753512,222.00246652308851
1711604753552,339.41039277613163
1711604753592,347.5761102279648
1711604753632,405.16834231093526
1711604753673,516.6541519360617
1711604753714,587.0081235198304
1711604753753,619.520671769511
1711604753794,679.1550120413303
1711604753834,745.9328756164759
1711604753877,760.1454124585725
1711604753918,1053.3940623486415
1711604753957,1156.7605064157397
1711604753997,1795.734875856433
1711604754037,2137.37179869134
1711604754077,3004.4514049096033
1711604754118,4109.377904101741
1711604754158,4475.152241348289
1711604754198,4712.983934856951
1711604754238,5419.598782489076
1711604754278,5486.391534108669
1711604754319,5554.58129868377
1711604754358,5581.979342121631
1711604754399,5581.979342121631
1711604754439,5581.979342121631
1711604754479,5581.979342121631
1711604754520,5581.979342121631
1711604754559,5581.979342121631
1711604754599,5581.979342121631
1711604754639,5581.979342121631
1711604754679,5681.150941947941
1711604754720,5777.692193356343
1711604754760,5777.692193356343
1711604754800,5777.692193356343
1711604754840,5805.318298952654
1711604754880,5805.318298952654
1711604754921,5777.692193356343
1711604754960,5509.547072421759
1711604755001,5486.949143801816
1711604755041,5480.308787256479
1711604755081,5421.587815813255
1711604755122,5357.969218715094
1711604755161,5236.423878090456
1711604755201,5121.563771677669
1711604755242,4962.986359572969
1711604755282,4907.710920866579
1711604755323,4783.438902556431
1711604755362,4446.600249434821
1711604755402,4418.884589066729
1711604755442,4387.184808635153
1711604755483,4366.515451944433
1711604755523,3004.394130609464
1711604755563,2898.8129659025
1711604755603,2813.4551708553918
1711604755643,2717.7630681786686
1711604755683,2690.393930129707
1711604755724,2596.059060753789
1711604755764,2515.300852831453
1711604755804,2515.2446744674817
1711604755844,2429.853009575978
1711604755884,2277.846974897664
1711604755925,2259.547651955858
1711604755965,2220.298462085426
1711604756005,2101.852421092801
1711604756045,2065.7577751283534
1711604756085,2065.7577751283534
1711604756126,2065.7577751283534
1711604756165,2065.7577751283534
1711604756205,2065.7577751283534
1711604756245,2065.7577751283534
1711604756285,2065.7577751283534
1711604756326,2227.808093677275
1711604756366,2227.808093677275
1711604756406,2237.288719519973
1711604756446,2237.288719519973
1711604756486,2227.808093677275
1711604756527,2227.808093677275
1711604756566,2227.808093677275
1711604756606,2237.288719519973
1711604756646,2367.3768772901967
1711604756686,2507.7718673516065
1711604756727,2520.337519825436
1711604756767,2621.542922911234
1711604756807,2655.9366469029337
1711604756847,2745.1011372455396
1711604756887,2830.160131675191
1711604756928,2853.1952580874786
1711604756967,3215.269412134774
1711604757007,3215.269412134774
1711604757048,3215.269412134774
1711604757087,3240.6060335803777
1711604757128,3470.2942474195734
1711604757168,3843.7196366898715
1711604757208,3843.7196366898715
1711604757248,3843.7196366898715
1711604757288,3843.7196366898715
1711604757329,3843.7196366898715
1711604757368,3843.7196366898715
1711604757408,3843.7196366898715
1711604757448,3843.7196366898715
1711604757488,3843.7196366898715
1711604757529,3843.7196366898715
1711604757569,3843.7196366898715
1711604757609,3628.8530680574477
1711604757649,3268.749419193715
1711604757689,3206.884316191543
1711604757730,3148.1778300851583
1711604757769,3042.972818522714
1711604757809,2686.9687574785203
1711604757849,2399.0090739484876
1711604757890,2114.850795620121
1711604757930,1959.0815772181377
1711604757970,1933.1326583018526
1711604758010,1716.5081139565445
1711604758050,1236.4407263332978
1711604758090,1230.5959697579965
1711604758131,1186.34660792863
1711604758170,1057.6266523245722
1711604758210,238.5096685467288
1711604758251,-3356.199316568207
1711604758290,-8360.847496021539
1711604758331,-14606.2966159489
1711604758371,-20781.408411669545
1711604758411,-22038.821194271557
1711604758451,-23492.79406157881
1711604758491,-25110.79028000869
1711604758532,-26075.922448512167
1711604758571,-26075.922448512167
1711604758612,-26075.922448512167
1711604758652,-26075.922448512167
1711604758692,-26075.922448512167
1711604758733,-26075.922448512167
1711604758772,-26075.922448512167
1711604758812,-26075.922448512167
1711604758852,-25110.79028000869
1711604758892,-23670.58004283253
1711604758933,-23492.79406157881
1711604758973,-22038.821194271557
1711604759012,-14341.865945453756
1711604759053,-4649.713786765933
1711604759093,1465.4921274343506
1711604759134,3130.078606649302
1711604759173,3686.1748152272776
1711604759213,4937.743405393325
1711604759253,5149.221902309917
1711604759293,5508.1888556731865
1711604759334,6554.30871947296
1711604759374,6587.15972609492
1711604759414,7103.589150967542
1711604759454,7954.879398604855
1711604759494,7954.879398604855
1711604759535,8258.277391553856
1711604759574,8258.277391553856
1711604759614,8301.24115530448
1711604759654,8301.24115530448
1711604759694,9569.921955530997
1711604759735,10179.366378251929
1711604759775,10838.841887301765
1711604759815,14921.093144904822
1711604759855,14921.093144904822
1711604759895,14921.093144904822
1711604759936,14921.093144904822
1711604759975,14921.093144904822
1711604760016,14921.093144904822
1711604760056,10179.366378251929
1711604760096,9569.921955530997
1711604760137,8258.277391553856
1711604760176,7781.3228576285765
1711604760216,5527.484178703744
1711604760256,1150.4166816091165
1711604760297,-958.2561877509579
1711604760337,-958.2561877509579
1711604760377,-958.2561877509579
1711604760417,-958.2561877509579
1711604760457,-958.2561877509579
1711604760497,-958.2561877509579
1711604760538,-958.2561877509579
1711604760577,-2336.399854228366
1711604760617,-7168.329091706313
1711604760658,-12824.409419013653
1711604760698,-13075.247059042566
1711604760738,-13075.247059042566
1711604760778,-13075.247059042566
1711604760818,-13075.247059042566
1711604760858,-13075.247059042566
1711604760898,-13075.247059042566
1711604760939,-13075.247059042566
1711604760979,-13075.247059042566
1711604761019,-20259.068984108046
1711604761059,-22462.97088676598
1711604761099,-22957.911025182344
1711604761140,-24527.515494329855
1711604761179,-26248.75776168797
1711604761219,-37980.129743189085
1711604761260,-39661.22054314986
1711604761300,-51039.35088308249
1711604761340,-56722.89727070555
1711604761380,-73226.6312554758
1711604761420,-90978.21207422786
1711604761460,-92962.61231500516
1711604761500,-94242.33736359142
1711604761541,-95060.68594613462
1711604761580,-97184.6335341495
1711604761621,-97489.01346835401
1711604761661,-97587.03673748393
1711604761701,-99434.7006355566
1711604761742,-100285.46145080053
1711604761781,-100285.46145080053
1711604761821,-100285.46145080053
1711604761862,-100285.46145080053
1711604761902,-100031.51582667534
1711604761943,-99434.7006355566
1711604761982,-97587.03673748393
1711604762022,-97587.03673748393
1711604762062,-97587.03673748393
1711604762103,-97587.03673748393
1711604762143,-97587.03673748393
1711604762183,-94242.33736359142
1711604762223,-98652.39118846529
1711604762263,-92898.87586221611
1711604762303,-92320.95691652456
1711604762344,-87103.82025152445
1711604762383,-82581.70471485378
1711604762423,-75728.8442698014
1711604762464,-64155.88642526651
1711604762504,-63875.303812133614
1711604762545,-60201.95935150748
1711604762584,-47293.399398507085
1711604762624,-46132.859583921265
1711604762664,-44635.19589048461
1711604762705,-44635.19589048461
1711604762745,-46132.859583921265
1711604762785,-47293.399398507085
1711604762825,-50197.265598592814
1711604762865,-61008.20094190887
1711604762905,-61008.20094190887
1711604762946,-61008.20094190887
1711604762985,-61008.20094190887
1711604763025,-61008.20094190887
1711604763065,-54782.30112795904
1711604763105,-51362.90255037183
1711604763146,-51362.90255037183
1711604763185,-51362.90255037183
1711604763225,-51362.90255037183
1711604763265,-51362.90255037183
1711604763306,-52050.15286998125
1711604763346,-54782.30112795904
1711604763386,-61008.20094190887
1711604763426,-67873.82649943908
1711604763466,-78194.69975394662
1711604763506,-79072.61229736125
1711604763547,-84226.7523041491
1711604763586,-86844.70242620655
1711604763627,-86844.70242620655
1711604763667,-79072.61229736125
1711604763707,-78194.69975394662
1711604763747,-73234.01120949956
1711604763787,-67873.82649943908
1711604763827,-64147.014682122506
1711604763867,-54782.30112795904
1711604763907,-52050.15286998125
1711604763948,-52050.15286998125
1711604763987,-46744.18259285344
1711604764028,-46744.18259285344
1711604764068,-46744.18259285344
1711604764108,-46744.18259285344
1711604764149,-36431.041442316025
1711604764188,-23238.718154661357
1711604764228,-6566.432844693307
1711604764268,11056.30816394044
1711604764308,11056.30816394044
1711604764349,11056.30816394044
1711604764389,11056.30816394044
1711604764428,11056.30816394044
1711604764469,11056.30816394044
1711604764509,11056.30816394044
1711604764550,11056.30816394044
1711604764589,11056.30816394044
1711604764629,12243.150811763015
1711604764669,18314.968890614342
1711604764709,20806.42422594456
1711604764750,20863.011740570422
1711604764789,29681.313769109547
1711604764830,32028.2793581672
1711604764870,32777.274373940425
1711604764910,39112.59461618168
1711604764951,39112.59461618168
1711604764990,39112.59461618168
1711604765030,39112.59461618168
1711604765070,32028.2793581672
1711604765111,32028.2793581672
1711604765151,32028.2793581672
1711604765191,32028.2793581672
1711604765231,32028.2793581672
1711604765271,32028.2793581672
1711604765311,32028.2793581672
1711604765352,39043.30703075207
1711604765391,41234.89015285415
1711604765432,52113.37427755422
1711604765472,63166.02242017514
1711604765512,63166.02242017514
1711604765553,63166.02242017514
1711604765593,52113.37427755422
1711604765633,41234.89015285415
1711604765673,41234.89015285415
1711604765713,39043.30703075207
1711604765754,35376.5547633199
1711604765794,35213.965684625786
1711604765834,33649.28918671096
1711604765874,23788.861855163006
1711604765918,20353.339811506914
1711604765959,20353.339811506914
1711604765999,28571.179062877316
1711604766039,28571.179062877316
1711604766079,28571.179062877316
1711604766119,28571.179062877316
1711604766160,28571.179062877316
1711604766199,25912.915016352665
1711604766239,21420.65713100368
1711604766279,21409.62872701697
1711604766320,20353.339811506914
1711604766360,18809.79014506028
1711604766400,13961.456659367774
1711604766440,7665.061067240778
1711604766480,-3578.3770710350946
1711604766521,-3578.3770710350946
1711604766562,-3578.3770710350946
1711604766601,-3578.3770710350946
1711604766641,-3578.3770710350946
1711604766682,5266.82306243456
1711604766722,5266.82306243456
1711604766763,5266.82306243456
1711604766803,-3578.3770710350946
1711604766843,-11852.650185542181
1711604766883,-11852.650185542181
1711604766923,-11852.650185542181
1711604766964,-11852.650185542181
1711604767004,-11852.650185542181
1711604767044,-3578.3770710350946
1711604767084,5266.82306243456
1711604767124,12247.886461836752
1711604767166,21072.34954572888
1711604767205,24548.86538156541
1711604767245,24798.81440290762
1711604767286,24798.81440290762
1711604767326,26469.996138853952
1711604767367,27203.170664310455
1711604767406,29798.97268510936
1711604767446,32634.5842280637
1711604767487,38024.86843805853
1711604767527,39567.731252554106
1711604767568,40578.59820002131
1711604767608,41026.66859009396
1711604767648,47574.90714310086
1711604767688,48183.24491144344
1711604767729,48183.24491144344
1711604767770,47574.90714310086
1711604767809,47574.90714310086
1711604767849,47574.90714310086
1711604767890,40578.59820002131
1711604767929,39567.731252554106
1711604767970,38024.86843805853
1711604768010,38024.86843805853
1711604768050,38024.86843805853
1711604768090,39567.731252554106
1711604768130,39794.069305012
1711604768171,40578.59820002131
1711604768211,47574.90714310086
1711604768251,48183.24491144344
1711604768291,50828.86670873966
1711604768331,50828.86670873966
1711604768372,48183.24491144344
1711604768411,43864.55089714262
1711604768452,39794.069305012
1711604768492,37998.827656418085
1711604768532,21658.41842317069
1711604768573,21522.194995466154
1711604768612,21522.194995466154
1711604768652,21522.194995466154
1711604768693,21522.194995466154
1711604768733,21522.194995466154
1711604768774,21522.194995466154
1711604768813,20073.14887134824
1711604768853,20073.14887134824
1711604768894,20073.14887134824
1711604768934,19373.132388150785
1711604768975,19054.714443135075
1711604769014,18122.857206390705
1711604769054,18100.816862563603
1711604769095,17728.90088655497
1711604769135,17728.90088655497
1711604769176,16434.21202792041
1711604769215,16434.21202792041
1711604769255,16423.231633086223
1711604769296,15717.725911939982
1711604769336,14749.884555531666
1711604769377,13682.695731548127
1711604769416,13340.767014737707
1711604769457,13146.352355451323
1711604769497,13146.352355451323
1711604769537,13146.352355451323
1711604769578,13146.352355451323
1711604769618,13146.352355451323
1711604769658,13146.352355451323
1711604769698,13146.352355451323
1711604769738,13146.352355451323
1711604769779,13146.352355451323
1711604769819,11986.883633949794
1711604769859,3783.092529162299
1711604769899,2541.7002427051775
1711604769940,-1910.662345170509
1711604769982,-6209.184384213295
1711604770021,-6209.184384213295
1711604770062,-6209.184384213295
1711604770102,-2363.6151509392075
1711604770142,-2363.6151509392075
1711604770183,-2363.6151509392075
1711604770222,-1554.2734386222437
1711604770263,-165.01743275066838
1711604770303,2541.7002427051775
1711604770343,2541.7002427051775
1711604770384,2541.7002427051775
1711604770424,2541.7002427051775
1711604770464,-165.01743275066838
1711604770504,-1554.2734386222437
1711604770545,-1900.6556575954892
1711604770585,-2363.6151509392075
1711604770625,-4059.7352496394888
1711604770665,-4086.039895665366
1711604770705,-6209.184384213295
1711604770746,-8608.791406275006
1711604770787,-13660.48566072667
1711604770826,-13660.48566072667
1711604770866,-23466.018424297916
1711604770907,-29897.750176473986
1711604770947,-45653.79472257942
1711604770988,-53618.8162783857
1711604771028,-57874.11086108186
1711604771068,-57874.11086108186
1711604771108,-57874.11086108186
1711604771148,-57874.11086108186
1711604771189,-57874.11086108186
1711604771229,-57874.11086108186
1711604771269,-57874.11086108186
1711604771309,-57874.11086108186
1711604771350,-57874.11086108186
1711604771390,-57874.11086108186
1711604771430,-57874.11086108186
1711604771470,-44556.17790145287
1711604771510,-40343.69524541893
1711604771550,-38232.27864525025
1711604771591,-36863.41865944071
1711604771631,-18202.586325130425
1711604771671,7177.689940061653
1711604771711,7414.457962547895
1711604771751,9778.3983286554
1711604771792,12487.65302664088
1711604771831,16964.02920646034
1711604771872,18065.094736895757
1711604771912,18811.734271571273
1711604771952,20022.51345154061
1711604771993,20168.86646593013
1711604772032,21000.691970235202
1711604772072,27244.106204018462
1711604772113,31784.90614282852
1711604772153,32778.964247809025
1711604772194,35063.359084831085
1711604772233,35135.68045094004
1711604772273,36129.90099135414
1711604772313,37393.07931992994
1711604772354,39493.42595946719
1711604772395,41069.19360501086
1711604772434,43794.4247089664
1711604772475,46684.20680012787
1711604772515,57488.66986678471
1711604772555,57488.66986678471
1711604772596,57488.66986678471
1711604772636,57488.66986678471
1711604772676,57488.66986678471
1711604772717,57488.66986678471
1711604772757,57488.66986678471
1711604772798,57488.66986678471
1711604772837,57488.66986678471
1711604772877,57488.66986678471
1711604772918,57488.66986678471
1711604772958,56122.45886596432
1711604772999,50771.28260336537
1711604773038,46650.185354535
1711604773079,40741.740865232656
1711604773119,38329.74644709239
1711604773159,35072.69613700779
1711604773200,24865.08741735341
1711604773240,18564.821901526302
1711604773280,15849.009930492612
1711604773320,13306.39026546874
1711604773360,13306.39026546874
1711604773401,13306.39026546874
1711604773441,13306.39026546874
1711604773483,13306.39026546874
1711604773523,13306.39026546874
1711604773564,13306.39026546874
1711604773605,13306.39026546874
1711604773644,18564.821901526302
1711604773684,18564.821901526302
1711604773725,18564.821901526302
1711604773765,18564.821901526302
1711604773806,18564.821901526302
1711604773845,18564.821901526302
1711604773885,13306.39026546874
1711604773926,12215.756496283924
1711604773966,10676.451170624467
1711604774007,8477.125743477372
1711604774047,8477.125743477372
1711604774087,-1296.2318831090815
1711604774127,-8109.799808998592
1711604774167,-10254.130318730371
1711604774208,-10554.657724651042
1711604774248,-11161.820892038522
1711604774288,-11161.820892038522
1711604774328,-11161.820892038522
1711604774369,-11161.820892038522
1711604774410,-11161.820892038522
1711604774449,-11161.820892038522
1711604774490,-11161.820892038522
1711604774530,-11161.820892038522
1711604774570,-11161.820892038522
1711604774611,-11161.820892038522
1711604774651,-10554.657724651042
1711604774691,-9818.27728093788
1711604774731,-9818.27728093788
1711604774771,-9818.27728093788
1711604774812,-9818.27728093788
1711604774852,-9818.27728093788
1711604774892,-9818.27728093788
1711604774932,-9818.27728093788
1711604774972,-9122.787534278352
1711604775013,-1793.2598195332102
1711604775052,2954.7050705200527
1711604775093,4070.164705803385
1711604775133,7929.390490979655
1711604775173,11789.284232807346
1711604775214,12902.477981014643
1711604775254,13710.070449157618
1711604775294,13710.070449157618
1711604775334,13710.070449157618
1711604775374,13710.070449157618
1711604775415,13710.070449157618
1711604775455,13710.070449157618
1711604775495,23357.373380433302
1711604775535,29286.780476285843
1711604775575,29286.780476285843
1711604775616,29286.780476285843
1711604775656,29286.780476285843
1711604775696,29286.780476285843
1711604775736,29286.780476285843
1711604775776,29286.780476285843
1711604775817,29286.780476285843
1711604775857,29286.780476285843
1711604775897,29286.780476285843
1711604775937,23357.373380433302
1711604775978,17537.04049640312
1711604776019,5379.436283322517
1711604776058,4848.14379057847
1711604776099,3669.0418972210027
1711604776139,2804.024072690401
1711604776179,1757.1035630325787
1711604776220,1757.1035630325787
1711604776260,1757.1035630325787
1711604776300,1757.1035630325787
1711604776340,1757.1035630325787
1711604776380,1757.1035630325787
1711604776421,1757.1035630325787
1711604776462,2705.975456350483
1711604776502,2804.024072690401
1711604776542,3669.0418972210027
1711604776583,4848.14379057847
1711604776624,5379.436283322517
1711604776663,6227.385746921878
1711604776704,6652.9418943861965
1711604776744,7382.185789577197
1711604776784,7500.587754826061
1711604776825,7500.587754826061
1711604776865,7500.587754826061
1711604776905,7500.587754826061
1711604776945,7500.587754826061
1711604776985,7500.587754826061
1711604777026,7500.587754826061
1711604777066,7500.587754826061
1711604777106,7500.587754826061
1711604777146,7382.185789577197
1711604777186,7277.310744222719
1711604777227,7257.946700332221
1711604777267,7237.361788063077
1711604777307,6869.821932232473
1711604777347,6869.821932232473
1711604777388,6812.37557752151
1711604777429,6503.918252737727
1711604777468,6393.444201706443
1711604777508,6357.083641632227
1711604777549,6309.021203835029
1711604777589,5439.291469114833
1711604777630,4006.0029986263253
1711604777669,771.2906736519653
1711604777709,-17807.057382030645
1711604777749,-42562.54690214014
1711604777790,-48941.12555175391
1711604777830,-48941.12555175391
1711604777870,-48941.12555175391
1711604777910,-48941.12555175391
1711604777950,-48941.12555175391
1711604777989,-48941.12555175391
1711604778028,-48941.12555175391
1711604778067,-48941.12555175391
1711604778106,-48941.12555175391
1711604778145,-48941.12555175391
1711604778184,-48941.12555175391
1711604778223,-47996.78731452068
1711604778262,-31848.063041507266
1711604778301,-12963.373022178886
1711604778340,3420.2425660411827
1711604778379,18197.309270149795
1711604778418,31069.911720084492
1711604778457,38167.86268640682
1711604778496,46159.00566459494
1711604778535,53698.207393462304
1711604778574,54600.35066144727
1711604778613,54645.774608265376
1711604778652,57219.16567298956
1711604778691,57233.396327623166
1711604778730,57256.0446563228
1711604778769,58582.03890825226
1711604778808,58626.744774783496
1711604778848,59586.83562335675
1711604778888,60868.57568973256
1711604778928,61806.902422961546
1711604778968,70709.8762184272
1711604779008,75985.53688713955
1711604779048,75985.53688713955
1711604779088,75985.53688713955
1711604779128,75985.53688713955
1711604779168,75985.53688713955
1711604779208,75985.53688713955
1711604779248,75985.53688713955
1711604779288,75985.53688713955
1711604779328,75985.53688713955
1711604779368,75985.53688713955
1711604779408,75985.53688713955
1711604779448,75822.47730000364
1711604779488,65296.30018040538
1711604779528,41909.77681828104
1711604779568,11792.3405005862
1711604779608,-15069.907539798412
1711604779648,-38785.32139808708
1711604779688,-58900.598305321764
1711604779728,-64488.67704874044
1711604779768,-64488.67704874044
1711604779808,-64488.67704874044
1711604779848,-64488.67704874044
1711604779888,-64488.67704874044
1711604779928,-64488.67704874044
1711604779968,-64488.67704874044
1711604780008,-64488.67704874044
1711604780048,-64488.67704874044
1711604780088,-64488.67704874044
1711604780128,-64488.67704874044
1711604780168,-61134.634964921046
1711604780208,-55943.44842855353
1711604780248,-46850.78004095284
1711604780288,-38215.1449812334
1711604780328,-29184.936647290364
1711604780368,-23416.079906863626
1711604780408,-21571.683602199424
1711604780448,-20854.185875556897
1711604780488,-20282.053149921354
1711604780528,-18530.73771876935
1711604780568,-18294.449667992303
1711604780608,-17215.79301653523
1711604780648,-15408.53293696791
1711604780688,-14083.43705973262
1711604780728,-10441.137534372043
1711604780768,-8333.359169992851
1711604780808,-4573.0356112178415
1711604780848,-1641.4830357078463
1711604780888,3680.6951735955663
1711604780928,9813.855059946189
1711604780968,18552.777795342263
1711604781008,24355.815457488177
1711604781048,24355.815457488177
1711604781088,24355.815457488177
1711604781128,24355.815457488177
1711604781168,24355.815457488177
1711604781208,24355.815457488177
1711604781248,24355.815457488177
1711604781288,24355.815457488177
1711604781328,24355.815457488177
1711604781368,25490.332114606863
1711604781408,25536.94897899404
1711604781448,25593.19506229274
1711604781488,25593.19506229274
1711604781528,25593.19506229274
1711604781568,25593.19506229274
1711604781608,25593.19506229274
1711604781648,25593.19506229274
1711604781688,25593.19506229274
1711604781728,25593.19506229274
1711604781768,25593.19506229274
1711604781808,25593.19506229274
1711604781848,23659.151533875614
1711604781888,23659.151533875614
1711604781928,23659.151533875614
1711604781968,23659.151533875614
1711604782008,23659.151533875614
1711604782048,23659.151533875614
1711604782088,23659.151533875614
1711604782128,23659.151533875614
1711604782168,11193.218439454213
1711604782208,-6989.6641293817665
1711604782248,-20096.543810748495
1711604782288,-28109.897480512504
1711604782328,-33136.56712217489
1711604782368,-40420.21061375993
1711604782408,-40420.21061375993
1711604782448,-40420.21061375993
1711604782488,-40420.21061375993
1711604782528,-40420.21061375993
1711604782568,-40420.21061375993
1711604782608,-40420.21061375993
1711604782648,-40420.21061375993
1711604782688,-40420.21061375993
1711604782728,-40420.21061375993
1711604782768,-40420.21061375993
1711604782808,-32089.280346555868
1711604782848,-29935.665851015598
1711604782888,-21042.198411007877
1711604782928,-11953.659660729812
1711604782968,-4264.650832309388
1711604783008,-3993.8950432990678
1711604783048,-906.9726803840604
1711604783088,-879.2726106606424
1711604783128,478.094612136716
1711604783168,3966.0044046435505
1711604783208,5270.463026781101
1711604783248,5746.158654087456
1711604783288,11418.82961165416
1711604783328,13953.776633550413
1711604783368,14471.23299362231
1711604783408,22731.36633648025
1711604783448,32227.466021479107
1711604783488,36937.551075228024
1711604783528,41191.57194179227
1711604783568,46226.188508877996
1711604783608,46226.188508877996
1711604783648,46226.188508877996
1711604783688,46226.188508877996
1711604783728,46226.188508877996
1711604783768,46226.188508877996
1711604783808,46226.188508877996
1711604783848,46226.188508877996
1711604783888,46226.188508877996
1711604783928,46226.188508877996
1711604783968,44896.91868684674
1711604784008,43436.979700982105
1711604784048,41687.40129684284
1711604784088,39284.71167034889
1711604784128,38552.97235841933
1711604784168,36937.551075228024
1711604784208,36471.0224448354
1711604784248,35142.04893042613
1711604784288,33567.73222019314
1711604784328,30592.78039148124
1711604784368,29540.41661659605
1711604784408,28510.476763650076
1711604784448,27666.741617922205
1711604784488,26879.26584006939
1711604784528,26047.29702239996
1711604784568,24834.310212889686
1711604784608,23169.679601470474
1711604784648,22297.33113850653
1711604784688,21337.618903782917
1711604784728,20604.575616655173
1711604784768,19613.1155903521
1711604784808,18434.619771906408
1711604784848,16751.064836370293
1711604784888,16177.467559835874
1711604784928,15616.690922758542
1711604784968,14586.764479720034
1711604785008,13753.888394805836
1711604785048,12435.028193702456
1711604785088,12252.35535454494
1711604785128,12241.222649621079
1711604785168,10521.77740174206
1711604785208,9051.57674579462
1711604785248,7927.181586956605
1711604785288,7752.483309918083
1711604785328,6813.571649441961
1711604785368,2858.2699264662806
1711604785408,-1289.4030647510663
1711604785448,-8156.905095518101
1711604785488,-12393.117867249297
1711604785528,-12393.117867249297
1711604785568,-12393.117867249297
1711604785608,-12393.117867249297
1711604785648,-12393.117867249297
1711604785688,-12393.117867249297
1711604785728,-12393.117867249297
1711604785768,-12393.117867249297
1711604785808,-12601.86422832124
1711604785848,-12601.86422832124
1711604785888,-12601.86422832124
1711604785928,-12601.86422832124
1711604785968,-12087.391163211316
1711604786008,-12057.286307435948
1711604786048,-10778.379281328525
1711604786088,-10604.87891663448
1711604786128,-10403.312436972745
1711604786168,-9492.802006561775
1711604786208,-6202.3787008724175
1711604786248,-5362.449808308855
1711604786288,1141.06436227425
1711604786328,5648.262641833397
1711604786368,6473.763247338589
1711604786408,8596.237347364193
1711604786448,9548.394196018111
1711604786488,9703.944927088683
1711604786528,9796.208006830188
1711604786568,10095.100582855288
1711604786608,12083.093183445977
1711604786648,12320.968732103705
1711604786688,12353.139324914897
1711604786728,12487.218352443539
1711604786768,12975.32924344507
1711604786808,13243.354259334737
1711604786848,13243.354259334737
1711604786888,13243.354259334737
1711604786928,13243.354259334737
1711604786968,13243.354259334737
1711604787008,13243.354259334737
1711604787048,14289.116375946207
1711604787088,14289.116375946207
1711604787128,13243.354259334737
1711604787168,12925.156476405915
1711604787208,12925.156476405915
1711604787248,12083.093183445977
1711604787288,12083.093183445977
1711604787328,12083.093183445977
1711604787368,12083.093183445977
1711604787408,11882.687184662092
1711604787448,11865.13106064056
1711604787488,10974.865686382633
1711604787528,7697.589256118983
1711604787568,7552.142999586184
1711604787608,7017.606011743657
1711604787648,7017.606011743657
1711604787688,7017.606011743657
1711604787728,7017.606011743657
1711604787768,7017.606011743657
1711604787808,5353.163532456383
1711604787848,4937.693949889857
1711604787888,4137.217175044585
1711604787928,4089.7605306189507
1711604787968,3632.5087427143008
1711604788008,3434.24622363504
1711604788048,2238.531259533949
1711604788088,1774.5519421347417
1711604788128,1228.8097579344176
1711604788168,612.8799619507045
1711604788208,-1142.6399354254827
1711604788248,-2388.2043392164633
1711604788288,-4235.552386756055
1711604788328,-4463.114139621146
1711604788368,-9782.558541347738
1711604788408,-10875.57429179363
1711604788448,-10875.57429179363
1711604788488,-10875.57429179363
1711604788528,-10875.57429179363
1711604788568,-10875.57429179363
1711604788608,-10875.57429179363
1711604788648,-10875.57429179363
1711604788688,-10875.57429179363
1711604788728,-10875.57429179363
1711604788768,-10875.57429179363
1711604788808,-10875.57429179363
1711604788848,-9342.739787332714
1711604788888,-9261.194348508492
1711604788928,-9223.378665792756
1711604788968,-6729.489921548404
1711604789008,-6729.489921548404
1711604789048,-6729.489921548404
1711604789088,-4908.002473630942
1711604789128,-4571.431737344712
1711604789168,-3757.17711034324
1711604789208,-2270.507235721685
1711604789248,-1312.8700648769736
1711604789288,-1188.5851576551795
1711604789328,-69.95929889986292
1711604789368,2733.049492684193
1711604789408,3013.531393047422
1711604789448,5964.012687899172
1711604789488,5964.012687899172
1711604789528,5964.012687899172
1711604789568,5964.012687899172
1711604789608,5964.012687899172
1711604789648,5439.895074086729
1711604789688,5439.895074086729
1711604789728,5439.895074086729
1711604789768,5439.895074086729
1711604789808,5439.895074086729
1711604789848,5863.609456527047
1711604789888,5863.609456527047
1711604789928,5488.385571708903
1711604789966,5439.895074086729
1711604790007,5359.503639785107
1711604790046,4744.504867920652
1711604790086,4558.900419473182
1711604790126,4530.148278671317
1711604790166,4196.303081599064
1711604790207,3809.2343015437946
1711604790247,3216.996885637287
1711604790287,2931.197486483492
1711604790327,2864.536611199379
1711604790367,1126.154832128901
1711604790408,968.0095737893134
1711604790447,968.0095737893134
1711604790487,774.4060556674376
1711604790527,435.6416527815163
1711604790567,428.42942320462316
1711604790608,331.39134351350367
1711604790648,205.32145445607603
1711604790688,57.17612624820322
1711604790728,-462.9119038581848
1711604790768,-462.9119038581848
1711604790809,-462.9119038581848
1711604790848,3.396481755655259
1711604790888,57.17612624820322
1711604790928,205.32145445607603
1711604790968,331.39134351350367
1711604791009,428.42942320462316
1711604791049,435.6416527815163
1711604791089,435.6416527815163
1711604791129,435.6416527815163
1711604791169,205.32145445607603
1711604791210,3.396481755655259
1711604791249,3.396481755655259
1711604791289,3.396481755655259
1711604791329,3.396481755655259
1711604791369,723.2201528847218
1711604791410,835.8638049890287
1711604791450,896.3904005591758
1711604791490,924.0562523449771
1711604791530,1379.45169236511
1711604791570,1379.45169236511
1711604791611,1379.45169236511
1711604791650,1379.45169236511
1711604791690,1379.45169236511
1711604791730,1319.9822667753324
1711604791770,924.0562523449771
1711604791811,723.2201528847218
1711604791851,-255.1971512781456
1711604791891,-257.2552760099061
1711604791931,-255.1971512781456
1711604791971,-44.07425146410242
1711604792012,924.0562523449771
1711604792051,931.1414980953559
1711604792091,931.1414980953559
1711604792131,-44.07425146410242
1711604792172,-255.1971512781456
1711604792212,-257.2552760099061
1711604792252,-362.32651635305956
1711604792292,-464.8696711547673
1711604792332,-1029.740917253308
1711604792372,-1029.740917253308
1711604792413,-1148.0429889769293
1711604792452,-1029.740917253308
1711604792492,-914.9554602354765
1711604792532,-873.7580821122974
1711604792572,-464.8696711547673
1711604792613,-464.8696711547673
1711604792653,-873.7580821122974
1711604792693,-914.9554602354765
1711604792733,-1148.0429889769293
1711604792773,-1269.1607092977501
1711604792814,-1510.833544878289
1711604792853,-2024.0002560568973
1711604792893,-2304.7058636806905
1711604792933,-2557.722757746931
1711604792973,-3310.8793822838925
1711604793014,-2851.846917404793
1711604793054,-2557.722757746931
1711604793094,-2024.0002560568973
1711604793134,-2024.0002560568973
1711604793174,-2024.0002560568973
1711604793215,-2024.0002560568973
1711604793254,-2024.0002560568973
1711604793294,-2024.0002560568973
1711604793335,-2024.0002560568973
1711604793375,-2024.0002560568973
1711604793416,-2024.0002560568973
1711604793455,-1685.3721584910527
1711604793495,-550.59044739604
1711604793535,-486.09240180812776
1711604793575,-200.06128202285618
1711604793616,-163.5211371090263
1711604793656,-163.5211371090263
1711604793696,-163.5211371090263
1711604793736,-163.5211371090263
1711604793776,-163.5211371090263
1711604793817,-163.5211371090263
1711604793856,-163.5211371090263
1711604793896,-163.5211371090263
1711604793936,-163.5211371090263
1711604793976,-200.06128202285618
1711604794017,-486.09240180812776
1711604794057,-1155.401552555617
1711604794097,-1155.401552555617
1711604794137,-1155.401552555617
1711604794177,-1155.401552555617
1711604794218,-1790.0515381731093
1711604794257,-2630.7067101011053
1711604794297,-3395.268814967014
1711604794338,-3395.268814967014
1711604794377,-3395.268814967014
1711604794418,-3395.268814967014
1711604794458,-3395.268814967014
1711604794498,-3395.268814967014
1711604794538,-2630.7067101011053
1711604794578,-2384.2373483376577
1711604794619,-1790.0515381731093
1711604794658,-1240.4046271448024
1711604794698,-766.7833860064857
1711604794738,-766.7833860064857
1711604794779,-766.7833860064857
1711604794820,-766.7833860064857
1711604794859,-766.7833860064857
1711604794899,-766.7833860064857
1711604794939,-1240.4046271448024
1711604794979,-1852.858101801481
1711604795020,-1852.858101801481
1711604795059,-1852.858101801481
1711604795099,-1852.858101801481
1711604795140,-1852.858101801481
1711604795180,-1852.858101801481
1711604795221,-2061.9280568950344
1711604795260,-2244.4435261576436
1711604795300,-2480.5284430030733
1711604795340,-2506.599346946925
1711604795380,-2801.3459883367177
1711604795421,-3716.674482021481
1711604795461,-4218.776816182304
1711604795501,-4614.129681470338
1711604795541,-5367.23201784445
1711604795581,-5787.67937572673
1711604795622,-9233.242291338509
1711604795661,-11307.42542344099
1711604795701,-11621.157349158544
1711604795742,-11754.670059904456
1711604795782,-12198.661985241342
1711604795822,-13363.30841234373
1711604795862,-13567.11866355827
1711604795902,-13583.494283907581
1711604795942,-13648.655084685655
1711604795982,-13972.339302235749
1711604796023,-15136.188419280108
1711604796062,-15136.188419280108
1711604796103,-15136.188419280108
1711604796143,-14556.73031224613
1711604796183,-13972.339302235749
1711604796224,-13648.655084685655
1711604796263,-14556.73031224613
1711604796303,-14750.65504985
1711604796343,-14750.65504985
1711604796384,-14750.65504985
1711604796424,-14750.65504985
1711604796464,-14750.65504985
1711604796504,-14750.65504985
1711604796544,-14556.73031224613
1711604796584,-14004.453949872637
1711604796625,-12883.166176488623
1711604796664,-11660.764796013478
1711604796705,-11494.55605976982
1711604796745,-11061.639415042242
1711604796785,-11061.639415042242
1711604796826,-11061.639415042242
1711604796865,-11061.639415042242
1711604796905,-11061.639415042242
1711604796945,-10194.258710777853
1711604796986,-9627.204047370236
1711604797027,-9538.600925202714
1711604797069,-7576.19784532045
1711604797106,-7453.6791369521525
1711604797146,-6319.7022468352225
1711604797186,-6108.584664609749
1711604797227,-5291.977143496741
1711604797266,-4591.858170441352
1711604797306,-4591.858170441352
1711604797346,-4591.858170441352
1711604797386,-5291.977143496741
1711604797427,-6319.7022468352225
1711604797467,-6319.7022468352225
1711604797507,-6319.7022468352225
1711604797547,-6319.7022468352225
1711604797587,-5765.208744165488
1711604797628,-5291.977143496741
1711604797667,-4297.777437163517
1711604797707,-3342.37550537684
1711604797747,-3297.657834841404
1711604797787,-2659.6226643850096
1711604797828,-2659.6226643850096
1711604797867,-2659.6226643850096
1711604797907,-2659.6226643850096
1711604797948,-2688.5960127301514
1711604797988,-2688.5960127301514
1711604798028,-2688.5960127301514
1711604798068,-2688.5960127301514
1711604798108,-2659.6226643850096
1711604798148,-1890.6865158323199
1711604798188,-1169.6996091930196
1711604798229,-371.0234546493739
1711604798268,196.27487176749855
1711604798309,448.6216144526843
1711604798349,448.6216144526843
1711604798389,448.6216144526843
1711604798430,448.6216144526843
1711604798469,448.6216144526843
1711604798509,-371.0234546493739
1711604798549,-1887.4914748652373
1711604798589,-1890.6865158323199
1711604798630,-2688.5960127301514
1711604798669,-2145.0823745238595
1711604798709,-1890.6865158323199
1711604798749,-1887.4914748652373
1711604798790,-1091.1092169322073
1711604798830,-371.0234546493739
1711604798870,250.9370279707946
1711604798910,250.9370279707946
1711604798950,-1091.1092169322073
1711604798990,-1887.4914748652373
1711604799031,-2145.0823745238595
1711604799070,-2760.565165331587
1711604799110,-2760.565165331587
1711604799150,-2760.565165331587
1711604799191,-2760.565165331587
1711604799231,-2145.0823745238595
1711604799274,-1919.4132965626195
1711604799311,-1091.1092169322073
1711604799351,-387.7004206990823
1711604799391,250.9370279707946
1711604799432,451.30796395614743
1711604799471,587.3564875398297
1711604799511,1182.9071553982794
1711604799551,1388.331832351163
1711604799591,1388.331832351163
1711604799632,1388.331832351163
1711604799672,1388.331832351163
1711604799712,1388.331832351163
1711604799752,1472.325345451478
1711604799792,2595.7294144476764
1711604799833,2673.1432245993055
1711604799872,3922.888539780164
1711604799912,4346.989538651425
1711604799952,4696.295160404174
1711604799992,4978.497192216571
1711604800033,6063.159895430785
1711604800072,6438.705995843746
1711604800113,7036.777919052402
1711604800153,7036.777919052402
1711604800193,7036.777919052402
1711604800234,7090.840703563765
1711604800273,7090.840703563765
1711604800313,7188.600297032855
1711604800353,7365.977045225911
1711604800393,8023.955719656777
1711604800434,8257.722764258273
1711604800474,8575.943846013397
1711604800514,8600.568708741106
1711604800554,8610.742873929208
1711604800594,8763.137217534008
1711604800635,8763.137217534008
1711604800674,8763.137217534008
1711604800714,8763.137217534008
1711604800754,8610.742873929208
1711604800794,8600.568708741106
1711604800835,8257.722764258273
1711604800874,7442.797479571775
1711604800915,7365.977045225911
1711604800955,7365.977045225911
1711604800995,7365.977045225911
1711604801036,7365.977045225911
1711604801075,6544.155888300389
1711604801115,6544.155888300389
1711604801155,6544.155888300389
1711604801196,6490.0319147876
1711604801236,6416.075958974194
1711604801276,6320.5121594558
1711604801316,6266.799676625524
1711604801356,6259.377495506778
1711604801396,5937.768225430744
1711604801437,5883.840788676636
1711604801479,5269.718171066139
1711604801516,5666.351009451086
1711604801557,5820.325671870261
1711604801596,5883.840788676636
1711604801637,5937.768225430744
1711604801677,6259.377495506778
1711604801717,6266.799676625524
1711604801757,5883.840788676636
1711604801797,5820.325671870261
1711604801838,5666.351009451086
1711604801877,5269.718171066139
1711604801917,5196.306813957635
1711604801957,5087.0410710135475
1711604801999,4780.5264125331305
1711604802040,4780.5264125331305
1711604802080,5087.0410710135475
1711604802120,5196.306813957635
1711604802160,5269.718171066139
1711604802200,5433.813423011918
1711604802241,5435.094617792871
1711604802280,5495.632899742108
1711604802320,5495.632899742108
1711604802360,5435.094617792871
1711604802401,5433.813423011918
1711604802441,5196.306813957635
1711604802481,4809.762137732701
1711604802521,4662.214909683447
1711604802561,4662.214909683447
1711604802601,4662.214909683447
1711604802642,4662.214909683447
1711604802681,4717.154224745929
1711604802722,4774.445354592521
1711604802762,4809.762137732701
1711604802802,4948.678276471794
1711604802843,4948.678276471794
1711604802882,4809.762137732701
1711604802922,4774.445354592521
1711604802962,4717.154224745929
1711604803003,4667.456482203212
1711604803043,4581.814331183443
1711604803083,4166.652163829422
1711604803123,4022.9329774486832
1711604803163,4022.9329774486832
1711604803203,4092.9404089106247
1711604803244,4092.9404089106247
1711604803283,4092.9404089106247
1711604803324,4166.652163829422
1711604803364,4164.623194273096
1711604803404,4092.9404089106247
1711604803445,4041.6076314167585
1711604803484,4022.9329774486832
1711604803524,3998.2802350497805
1711604803564,3864.6721508302726
1711604803604,3494.1511917272583
1711604803645,2897.46251301351
1711604803685,2496.4683628617786
1711604803725,2496.4683628617786
1711604803765,2918.134001223836
1711604803805,3394.3781435505953
1711604803846,3394.3781435505953
1711604803885,3394.3781435505953
1711604803925,3306.598030576948
1711604803966,2918.134001223836
1711604804006,2403.6336507885717
1711604804046,2310.6390340577345
1711604804086,1860.5654596807435
1711604804126,1793.160962229129
1711604804166,1691.9776718453504
1711604804206,1136.3909644517116
1711604804247,1136.3909644517116
1711604804286,1484.6510814931244
1711604804327,1691.9776718453504
1711604804367,1793.160962229129
1711604804407,1798.1349841332994
1711604804448,1798.1349841332994
1711604804487,1691.9776718453504
1711604804527,1484.6510814931244
1711604804567,1136.3909644517116
1711604804607,653.8066142243333
1711604804648,540.5001011688728
1711604804688,267.301116945222
1711604804728,267.301116945222
1711604804768,267.301116945222
1711604804808,540.5001011688728
1711604804849,653.8066142243333
1711604804888,679.0506610420998
1711604804928,710.1583546013571
1711604804968,1019.406489122659
1711604805008,1019.406489122659
1711604805049,710.1583546013571
1711604805089,679.0506610420998
1711604805129,267.301116945222
1711604805169,-85.21671680593863
1711604805209,-126.52312570437789
1711604805250,-126.52312570437789
1711604805289,-85.21671680593863
1711604805329,160.83449819125235
1711604805369,267.301116945222
1711604805409,275.0088589414954
1711604805450,679.0506610420998
1711604805489,710.1583546013571
1711604805530,857.2828043329064
1711604805570,857.2828043329064
1711604805610,857.2828043329064
1711604805651,275.0088589414954
1711604805690,160.83449819125235
1711604805730,-179.78207773086615
1711604805770,-179.78207773086615
1711604805810,-179.78207773086615
1711604805851,160.83449819125235
1711604805891,275.0088589414954
1711604805930,602.2304607159458
1711604805971,857.2828043329064
1711604806011,1300.9103759103455
1711604806051,1477.2792062778026
1711604806091,1529.4815423996188
1711604806131,1529.4815423996188
1711604806171,1529.4815423996188
1711604806211,1477.2792062778026
1711604806252,1300.9103759103455
1711604806291,602.2304607159458
1711604806331,602.2304607159458
1711604806372,602.2304607159458
1711604806411,741.3367542098276
1711604806452,974.8697532857768
1711604806492,1300.9103759103455
1711604806532,1399.607522752136
1711604806572,1851.0275187944062
1711604806612,1928.2138927746564
1711604806653,2205.753983484581
1711604806692,2450.8903565893415
1711604806732,2450.8903565893415
1711604806772,2205.753983484581
1711604806812,1399.607522752136
1711604806853,974.8697532857768
1711604806893,974.8697532857768
1711604806933,974.8697532857768
1711604806973,1399.607522752136
1711604807013,1947.785691882018
1711604807054,2147.471762201516
1711604807093,2205.753983484581
1711604807133,2450.8903565893415
1711604807173,2667.8488695928827
1711604807214,3136.889372562524
1711604807254,3136.889372562524
1711604807294,3136.889372562524
1711604807334,3136.889372562524
1711604807374,2458.066422336735
1711604807414,2450.8903565893415
1711604807455,2147.471762201516
1711604807494,2147.471762201516
1711604807534,2147.471762201516
1711604807575,2268.831310228212
1711604807615,2458.066422336735
1711604807656,2538.0329301748425
1711604807695,2587.1920647127554
1711604807735,2813.9989915301558
1711604807775,2813.9989915301558
1711604807815,2587.1920647127554
1711604807856,2538.0329301748425
1711604807895,2458.066422336735
1711604807936,2418.062090174062
1711604807976,2268.831310228212
1711604808016,1950.910735919373
1711604808057,1004.7510329678189
1711604808096,193.61614735098556
1711604808136,719.4204045515507
1711604808176,858.3761367164552
1711604808216,1004.7510329678189
1711604808257,1878.2205058448017
1711604808297,1878.2205058448017
1711604808337,1198.14662042493
1711604808377,858.3761367164552
1711604808417,719.4204045515507
1711604808458,193.61614735098556
1711604808497,156.799928041175
1711604808537,-312.73510911199264
1711604808577,-1293.2634417363442
1711604808618,-1568.418208685238
1711604808659,-1568.418208685238
1711604808698,-1293.2634417363442
1711604808738,-952.7017587134615
1711604808778,-312.73510911199264
1711604808818,-83.01701674610376
1711604808859,193.61614735098556
1711604808899,417.0294752442278
1711604808939,417.0294752442278
1711604808979,-83.01701674610376
1711604809019,-952.7017587134615
1711604809060,-1568.418208685238
1711604809099,-1691.221018096665
1711604809139,-1857.8887055600062
1711604809179,-2392.6574724346865
1711604809219,-2573.1282946816646
1711604809260,-2392.6574724346865
1711604809300,-1923.5207881587557
1711604809340,-1857.8887055600062
1711604809380,-1568.418208685238
1711604809420,-1241.399570731679
1711604809461,-952.7017587134615
1711604809500,-1241.399570731679
1711604809540,-1923.5207881587557
1711604809581,-2392.6574724346865
1711604809621,-2573.1282946816646
1711604809662,-2817.167245954508
1711604809701,-2847.2614500424825
1711604809741,-2847.2614500424825
1711604809781,-2847.2614500424825
1711604809822,-2817.167245954508
1711604809862,-2578.914243284613
1711604809902,-2573.1282946816646
1711604809942,-2194.2454507267103
1711604809982,-1923.5207881587557
1711604810022,-1777.6216749129817
1711604810063,-1777.6216749129817
1711604810102,-1777.6216749129817
1711604810142,-2194.2454507267103
1711604810182,-2578.914243284613
1711604810223,-2927.437038802076
1711604810264,-3369.470044609625
1711604810303,-3369.470044609625
1711604810343,-2927.437038802076
1711604810383,-2598.0924501123372
1711604810423,-2578.914243284613
1711604810464,-2194.2454507267103
1711604810504,-1777.6216749129817
1711604810544,-1714.0293826796114
1711604810584,-1428.0610184986144
1711604810624,-916.9649516222998
1711604810665,-916.9649516222998
1711604810705,-916.9649516222998
1711604810745,-1362.9609977805521
1711604810785,-1518.0534046429675
1711604810825,-1518.0534046429675
1711604810866,-1518.0534046429675
1711604810905,-1362.9609977805521
1711604810945,-916.9649516222998
1711604810985,-191.21173792844638
1711604811026,531.2817019694485
1711604811067,1293.6857727193274
1711604811106,1296.8229867494665
1711604811146,1584.49714980321
1711604811186,2165.9441308747046
1711604811226,2326.5740647595376
1711604811267,2326.5740647595376
1711604811307,2326.5740647595376
1711604811347,2165.9441308747046
1711604811387,2165.9441308747046
1711604811427,2165.9441308747046
1711604811467,2459.3631906230003
1711604811507,2793.856195103377
1711604811547,2879.7951913008
1711604811587,3079.732285103295
1711604811627,3963.172246283153
1711604811668,4016.931846234249
1711604811707,4254.094966489822
1711604811747,4497.48157839966
1711604811788,4497.48157839966
1711604811828,4497.48157839966
1711604811868,4497.48157839966
1711604811908,4254.094966489822
1711604811948,3963.172246283153
1711604811988,3145.3994379763026
1711604812028,2793.856195103377
1711604812069,3145.3994379763026
1711604812109,3149.9177433168516
1711604812149,3230.850049478002
1711604812189,3310.577784097055
1711604812229,3529.1429383861832
1711604812270,3529.1429383861832
1711604812309,3310.577784097055
1711604812349,3230.850049478002
1711604812389,3149.9177433168516
1711604812429,3145.3994379763026
1711604812470,2768.5180253703147
1711604812510,2735.163115124684
1711604812549,2454.886534290854
1711604812590,2152.428735722555
1711604812630,1379.3303496423177
1711604812670,1379.3303496423177
1711604812710,1379.3303496423177
1711604812750,755.1704506541137
1711604812790,755.1704506541137
1711604812830,497.08123314287513
1711604812871,333.25525320880115
1711604812910,307.5656824512407
1711604812951,170.22709017712623
1711604812991,48.24889470404014
1711604813031,36.84350233152509
1711604813072,2.1661053150892258
1711604813111,-230.37509829737246
1711604813151,-827.1176785062999
1711604813191,-1293.2601064108312
1711604813232,-1293.2601064108312
1711604813272,-994.8757892127614
1711604813311,-994.8757892127614
1711604813352,-994.8757892127614
1711604813392,-994.8757892127614
1711604813432,-994.8757892127614
1711604813473,-1293.2601064108312
1711604813512,-1712.8729170975275
1711604813552,-2207.7320830416866
1711604813592,-2717.0472516813315
1711604813632,-2717.0472516813315
1711604813673,-2717.0472516813315
1711604813713,-2717.0472516813315
1711604813753,-2710.758211192442
1711604813793,-2207.7320830416866
1711604813833,-1712.8729170975275
1711604813874,-1539.9664398562163
1711604813913,-1505.1250999858603
1711604813953,-994.8757892127614
1711604813993,-904.1414743685164
1711604814031,-628.6911085254978
1711604814072,-628.6911085254978
1711604814112,-628.6911085254978
1711604814152,-904.1414743685164
1711604814192,-990.0696419444866
1711604814232,-990.0696419444866
1711604814273,-990.0696419444866
1711604814312,-904.1414743685164
1711604814352,-628.6911085254978
1711604814393,-336.2350252221804
1711604814433,-26.328417408978567
1711604814473,302.45560473995283
1711604814513,764.932942327112
1711604814553,906.528037765529
1711604814593,1205.4626216273755
1711604814633,1205.4626216273755
1711604814674,1205.4626216273755
1711604814713,1205.4626216273755
1711604814753,764.932942327112
1711604814794,-26.328417408978567
1711604814834,-336.2350252221804
1711604814874,-26.328417408978567
1711604814914,-24.90036401618272
1711604814954,312.8601500701625
1711604814994,545.737983308034
1711604815034,764.932942327112
1711604815075,1205.4626216273755
1711604815115,1652.8643093134742
1711604815155,1652.8643093134742
1711604815195,545.737983308034
1711604815235,312.8601500701625
1711604815276,67.30021115764976
1711604815315,-24.90036401618272
1711604815355,-353.40190970455296
1711604815396,-392.5204754038714
1711604815435,-578.2660988289863
1711604815476,-578.2660988289863
1711604815516,-353.40190970455296
1711604815556,-60.96254081837833
1711604815596,-24.90036401618272
1711604815636,67.30021115764976
1711604815677,71.61001469264738
1711604815716,71.61001469264738
1711604815757,67.30021115764976
1711604815797,-60.96254081837833
1711604815837,-802.7712648301385
1711604815878,-1051.957999676466
1711604815917,-1577.0269306465052
1711604815957,-1577.0269306465052
1711604815997,-1577.0269306465052
1711604816037,-1419.355551959481
1711604816078,-1274.9294425458647
1711604816118,-1051.957999676466
1711604816158,-802.7712648301385
1711604816198,-451.41257055453025
1711604816238,-60.96254081837833
1711604816279,71.61001469264738
1711604816318,71.61001469264738
1711604816359,-451.41257055453025
1711604816399,-1257.1976204644889
1711604816439,-1257.1976204644889
1711604816480,-1257.1976204644889
1711604816519,-1257.1976204644889
1711604816559,-451.41257055453025
1711604816599,33.03546389518306
1711604816639,152.96597889089026
1711604816680,830.5757492273115
1711604816720,941.2621531947516
1711604816760,1543.4668868253939
1711604816800,1870.260148364585
1711604816840,1870.260148364585
1711604816881,1870.260148364585
1711604816920,1870.260148364585
1711604816960,1543.4668868253939
1711604817000,941.2621531947516
1711604817041,941.2621531947516
1711604817082,941.2621531947516
1711604817121,1241.3116749976762
1711604817161,1485.1220829237718
1711604817201,1543.4668868253939
1711604817241,1870.4232323430479
1711604817282,1987.3055419004522
1711604817322,2200.976931378711
1711604817362,2200.976931378711
1711604817402,2200.976931378711
1711604817442,1987.3055419004522
1711604817483,1485.1220829237718
1711604817522,1241.3116749976762
1711604817562,677.7239043870941
1711604817602,-2.696718652267009
1711604817642,-157.25021980702877
1711604817683,-157.25021980702877
1711604817723,677.7239043870941
1711604817763,854.4099924208131
1711604817803,854.4099924208131
1711604817843,854.4099924208131
1711604817884,611.1971931909211
1711604817923,-157.25021980702877
1711604817963,-948.7108308146708
1711604818004,-1166.6343254819512
1711604818044,-1379.7608573772013
1711604818085,-1541.1391351176426
1711604818124,-2307.8886656013783
1711604818164,-2307.8886656013783
1711604818204,-2307.8886656013783
1711604818244,-1688.0692531585228
1711604818285,-1541.1391351176426
1711604818324,-1166.6343254819512
1711604818364,-1166.6343254819512
1711604818405,-1662.1013566092588
1711604818445,-1688.0692531585228
1711604818485,-2480.475150561193
1711604818525,-2879.770820470061
1711604818565,-2988.9999229940586
1711604818605,-2988.9999229940586
1711604818645,-2988.9999229940586
1711604818686,-2879.770820470061
1711604818725,-2480.475150561193
1711604818765,-2271.4114300059155
1711604818805,-2138.8950953576714
1711604818845,-1688.0692531585228
1711604818886,-1662.1013566092588
1711604818926,-1662.1013566092588
1711604818966,-1662.1013566092588
1711604819006,-1662.1013566092588
1711604819046,-2096.5240915028844
1711604819087,-2138.8950953576714
1711604819126,-2271.4114300059155
1711604819166,-2271.4114300059155
1711604819206,-2271.4114300059155
1711604819246,-2138.8950953576714
1711604819287,-2096.5240915028844
1711604819326,-1539.4685394116677
1711604819367,-1400.2273465669714
1711604819407,-720.583463600371
1711604819447,-410.18471948988736
1711604819488,-410.18471948988736
1711604819527,-410.18471948988736
1711604819567,-410.18471948988736
1711604819607,-592.1676479298621
1711604819647,-1400.2273465669714
1711604819688,-1400.2273465669714
1711604819727,-1400.2273465669714
1711604819767,-766.1424296861514
1711604819807,-592.1676479298621
1711604819848,-410.18471948988736
1711604819888,-223.0047227703035
1711604819928,147.71641288138926
1711604819968,631.7795653119683
1711604820008,951.656102624489
1711604820048,951.656102624489
1711604820089,951.656102624489
1711604820128,631.7795653119683
1711604820168,612.2733410908841
1711604820208,612.2733410908841
1711604820248,612.2733410908841
1711604820289,612.2733410908841
1711604820329,631.7795653119683
1711604820369,951.656102624489
1711604820409,1649.0718872770667
1711604820449,1747.6475034237374
1711604820490,2225.9972618292086
1711604820529,2851.5577462292276
1711604820569,2953.1992479735054
1711604820609,2953.1992479735054
1711604820649,2953.1992479735054
1711604820690,2953.1992479735054
1711604820730,2953.1992479735054
1711604820770,2953.1992479735054
1711604820810,2953.1992479735054
1711604820850,3228.5832157391123
1711604820891,3709.4869039193727
1711604820930,4016.1457747146487
1711604820970,4360.612202869728
1711604821010,4369.516229152214
1711604821050,4519.533785242587
1711604821091,4726.676092454698
1711604821131,4726.676092454698
1711604821171,4726.676092454698
1711604821211,4519.533785242587
1711604821251,4369.516229152214
1711604821292,4016.1457747146487
1711604821331,3246.853867384605
1711604821371,3246.853867384605
1711604821411,3246.853867384605
1711604821451,3492.702186027076
1711604821492,3624.811328998767
1711604821532,4016.1457747146487
1711604821572,4357.343076694757
1711604821612,4357.343076694757
1711604821652,4357.343076694757
1711604821693,3918.6289775723126
1711604821732,3624.811328998767
1711604821772,3492.702186027076
1711604821812,3246.853867384605
1711604821852,2904.544731934089
1711604821894,2374.7123558614403
1711604821933,2229.7692572935484
1711604821973,1041.6658045051154
1711604822013,1041.6658045051154
1711604822053,1556.1115324338898
1711604822094,1556.1115324338898
1711604822133,809.9858676183503
1711604822173,672.2970399649348
1711604822214,426.04796693939716
1711604822254,-198.25483068684116
1711604822294,-255.19667202606797
1711604822334,-605.8138631521724
1711604822374,-1050.4527693542186
1711604822414,-1715.6557024098001
1711604822454,-2074.037977782078
1711604822495,-2074.037977782078
1711604822534,-1942.80451381905
1711604822575,-1715.6557024098001
1711604822615,-1050.4527693542186
1711604822655,-798.3957567997277
1711604822696,-798.3957567997277
1711604822735,-1942.80451381905
1711604822775,-2074.037977782078
1711604822815,-2127.938255617162
1711604822855,-2303.413882556837
1711604822896,-2723.0647606488783
1711604822936,-3106.0807444185484
1711604822976,-3106.0807444185484
1711604823016,-3106.0807444185484
1711604823056,-2723.0647606488783
1711604823097,-2346.1795162544586
1711604823136,-2303.413882556837
1711604823176,-2127.938255617162
1711604823217,-1942.80451381905
1711604823257,-1942.80451381905
1711604823297,-1942.80451381905
1711604823337,-2346.1795162544586
1711604823377,-2723.0647606488783
1711604823417,-2723.0647606488783
1711604823457,-2723.0647606488783
1711604823498,-2723.0647606488783
1711604823538,-2594.0695004709996
1711604823578,-2346.1795162544586
1711604823618,-1899.109784266213
1711604823658,-1879.5510099669918
1711604823699,-1051.143236830132
1711604823738,-1015.3332902819384
1711604823778,-496.33889791183174
1711604823818,-496.33889791183174
1711604823858,-496.33889791183174
1711604823899,-496.33889791183174
1711604823939,-1015.3332902819384
1711604823979,-1015.3332902819384
1711604824019,-1015.3332902819384
1711604824059,-1015.3332902819384
1711604824100,-657.0184248914011
1711604824139,-5.256848869845271
1711604824180,31.22596585098654
1711604824220,43.27542841108516
1711604824260,616.0159714147449
1711604824301,668.6318485937081
1711604824340,668.6318485937081
1711604824380,668.6318485937081
1711604824420,668.6318485937081
1711604824461,399.2206340567209
1711604824501,399.2206340567209
1711604824541,399.2206340567209
1711604824581,399.2206340567209
1711604824621,668.6318485937081
1711604824661,1237.748535007704
1711604824702,1374.7335191362072
1711604824741,1380.3574222328607
1711604824782,2062.3340919879265
1711604824822,2316.8892327421345
1711604824862,2882.8249082365073
1711604824903,2882.8249082365073
1711604824942,2882.8249082365073
1711604824982,2882.8249082365073
1711604825022,2882.8249082365073
1711604825062,2882.8249082365073
1711604825103,2882.8249082365073
1711604825143,3044.1134894867428
1711604825183,3089.333082850557
1711604825223,3213.3731751430314
1711604825263,3282.864726171829
1711604825304,3354.2552459549624
1711604825343,3354.2552459549624
1711604825383,3354.2552459549624
1711604825423,3354.2552459549624
1711604825464,3282.864726171829
1711604825505,3213.3731751430314
1711604825544,3089.333082850557
1711604825584,3044.1134894867428
1711604825624,2732.38925410714
1711604825664,2120.9196251253597
1711604825705,1583.9254371030256
1711604825744,1583.9254371030256
1711604825784,1806.4525170598645
1711604825824,1776.4270564245526
1711604825865,1004.6588997384533
1711604825905,889.2608513403684
1711604825945,447.67651920346543
1711604825985,370.27892962796614
1711604826025,279.93730399245396
1711604826067,-254.316899436526
1711604826108,-445.8575119029265
1711604826147,-723.9596386007033
1711604826187,-1359.8684058007784
1711604826228,-1359.8684058007784
1711604826268,-1039.4192163860425
1711604826308,-723.9596386007033
1711604826348,-445.8575119029265
1711604826388,-723.9596386007033
1711604826428,-1039.4192163860425
1711604826468,-1359.8684058007784
1711604826509,-1620.7101953318343
1711604826548,-1913.4306024066173
1711604826588,-2709.0668006746564
1711604826628,-2977.995426850859
1711604826669,-2977.995426850859
1711604826710,-2977.995426850859
1711604826749,-2747.473192999605
1711604826789,-2709.0668006746564
1711604826829,-2247.6257007978857
1711604826869,-1913.4306024066173
1711604826910,-1621.4062041798607
1711604826949,-1621.4062041798607
1711604826989,-1621.4062041798607
1711604827030,-2247.6257007978857
1711604827070,-2747.473192999605
1711604827110,-3205.872687655501
1711604827150,-3565.8648626194336
1711604827190,-3565.8648626194336
1711604827230,-3565.8648626194336
1711604827270,-3205.872687655501
1711604827311,-3140.2073160717264
1711604827350,-2747.473192999605
1711604827391,-2716.1304618616123
1711604827431,-2247.6257007978857
1711604827471,-2247.6257007978857
1711604827512,-2247.6257007978857
1711604827551,-2716.1304618616123
1711604827591,-3140.2073160717264
1711604827631,-3140.2073160717264
1711604827671,-3140.2073160717264
1711604827712,-3140.2073160717264
1711604827752,-3140.2073160717264
1711604827792,-2734.9359628784005
1711604827832,-2716.1304618616123
1711604827872,-1655.9833132079802
1711604827913,-983.4119024998508
1711604827952,-731.0096587638836
1711604827992,-617.8861928372644
1711604828033,-262.09163415571675
1711604828072,-195.56014155526645
1711604828113,15.890183097915724
1711604828153,210.5540907366667
1711604828193,210.5540907366667
1711604828233,210.5540907366667
1711604828273,878.9393671841826
1711604828314,1067.7034587070812
1711604828353,2055.422885194421
1711604828393,2295.021696566604
1711604828433,2497.7076998571865
1711604828474,3186.5096907543484
1711604828515,3325.0470824795775
1711604828554,4025.3179018304218
1711604828594,4025.3179018304218
1711604828634,4025.3179018304218
1711604828674,4025.3179018304218
1711604828715,4025.3179018304218
1711604828754,3186.5096907543484
1711604828794,3186.5096907543484
1711604828835,3270.7007238348015
1711604828875,3328.6328663595486
1711604828915,3940.4203301300295
1711604828955,3943.3712831165176
1711604828995,4025.3179018304218
1711604829035,4025.3179018304218
