Timestamp,Cleaned PPG
1710985789878,0.0
1710985789921,0.0
1710985789959,0.0
1710985789999,0.0
1710985790039,0.0
1710985790079,0.0
1710985790119,0.0
1710985790160,0.0
1710985790199,0.0
1710985790239,0.0
1710985790279,0.0
1710985790320,0.0
1710985790361,0.0
1710985790400,0.0
1710985790440,0.0
1710985790480,0.0
1710985790520,0.0
1710985790561,0.0
1710985790601,0.0
1710985790641,0.0
1710985790681,0.0
1710985790721,0.0
1710985790762,0.0
1710985790801,0.0
1710985790841,0.0
1710985790881,0.0
1710985790922,0.0
1710985790963,0.0
1710985791002,0.0
1710985791042,0.0
1710985791082,0.0
1710985791122,0.0
1710985791163,1138620.301004592
1710985791203,1138620.301004592
1710985791243,1138620.301004592
1710985791283,1138620.301004592
1710985791323,1138620.301004592
1710985791364,1138620.301004592
1710985791403,1138620.301004592
1710985791443,1138620.301004592
1710985791483,1138620.301004592
1710985791523,1138620.301004592
1710985791564,1138620.301004592
1710985791603,1068777.464570215
1710985791643,1003831.9175987365
1710985791684,940623.3668654284
1710985791724,882829.4594507376
1710985791765,827074.6721761525
1710985791804,777332.2372901083
1710985791844,725498.451500236
1710985791884,676214.5715253004
1710985791924,624351.4608251504
1710985791965,567854.0456962686
1710985792004,516092.5542583461
1710985792045,479535.44023000076
1710985792085,470226.5415237504
1710985792127,460724.1001609282
1710985792166,447158.4596836979
1710985792205,429323.4529719711
1710985792245,410826.73906327784
1710985792285,403154.8552509749
1710985792325,380707.2827944921
1710985792366,349457.62284097914
1710985792405,320397.63885257277
1710985792445,291871.18767911475
1710985792485,277715.49593494576
1710985792526,267909.76030895486
1710985792567,228128.69464853196
1710985792606,223522.96303354134
1710985792646,208152.26101218676
1710985792686,197085.48332590377
1710985792726,177302.24694245728
1710985792767,157473.6689332677
1710985792806,148352.4904883739
1710985792846,141699.10111153312
1710985792887,141699.10111153312
1710985792927,141699.10111153312
1710985792968,141422.93632384064
1710985793007,140389.15232134447
1710985793047,137841.70900835935
1710985793087,137708.97716420516
1710985793127,137358.21519065392
1710985793168,134642.81176874903
1710985793207,132117.1872264715
1710985793248,128492.37890310865
1710985793288,124540.62254767539
1710985793328,124497.92005466763
1710985793369,123878.35176653136
1710985793408,119927.47970347665
1710985793448,114841.80564888474
1710985793488,112092.09530643048
1710985793528,111817.40283207642
1710985793569,102739.53507052828
1710985793608,101851.16656559985
1710985793648,100838.77850059047
1710985793689,92956.79172297008
1710985793729,92557.83158210479
1710985793769,91628.42815804249
1710985793809,89281.43702544319
1710985793849,87451.44339108281
1710985793889,78570.64674049057
1710985793929,72515.55112632597
1710985793970,72515.55112632597
1710985794009,72515.55112632597
1710985794049,72515.55112632597
1710985794090,72515.55112632597
1710985794130,72515.55112632597
1710985794171,72515.55112632597
1710985794210,72515.55112632597
1710985794250,72515.55112632597
1710985794290,72515.55112632597
1710985794333,70530.47698474908
1710985794371,69361.80063903984
1710985794410,69361.80063903984
1710985794451,69361.80063903984
1710985794491,69361.80063903984
1710985794531,69361.80063903984
1710985794572,69361.80063903984
1710985794611,69361.80063903984
1710985794651,69361.80063903984
1710985794692,69361.80063903984
1710985794731,69361.80063903984
1710985794772,69361.80063903984
1710985794812,59522.53561813198
1710985794852,53660.49441567436
1710985794892,47828.38770652935
1710985794932,38739.73718234245
1710985794973,18575.43347967649
1710985795012,15779.463467514608
1710985795053,15251.057072176598
1710985795093,13932.717848226428
1710985795133,12171.284233001992
1710985795174,12171.284233001992
1710985795213,11665.293738206849
1710985795253,11347.954294630792
1710985795293,10363.206291869283
1710985795333,10292.602309806272
1710985795374,10292.602309806272
1710985795414,8685.06977001112
1710985795454,7916.3508291095495
1710985795494,7904.550395253114
1710985795534,7904.550395253114
1710985795575,7904.550395253114
1710985795614,7653.873101607431
1710985795655,5647.823366010096
1710985795695,5158.57304478297
1710985795735,5158.57304478297
1710985795776,5158.57304478297
1710985795815,5158.57304478297
1710985795855,5158.57304478297
1710985795895,5647.823366010096
1710985795935,7653.873101607431
1710985795976,7781.117335170507
1710985796016,7781.117335170507
1710985796056,7781.117335170507
1710985796096,7781.117335170507
1710985796136,3852.9198997514322
1710985796177,3532.5073597356677
1710985796216,3532.5073597356677
1710985796256,3852.9198997514322
1710985796296,6238.3473698487505
1710985796337,6502.663720515557
1710985796378,7660.590371822007
1710985796417,7781.117335170507
1710985796457,7781.117335170507
1710985796497,8192.91326478403
1710985796537,8277.14986121608
1710985796578,8477.38510949118
1710985796618,8477.38510949118
1710985796658,8477.38510949118
1710985796698,10532.307970518246
1710985796738,10843.042350970674
1710985796779,10843.042350970674
1710985796818,10843.042350970674
1710985796859,10843.042350970674
1710985796899,14060.762471098918
1710985796939,17620.780017173383
1710985796980,20249.554529817775
1710985797019,21720.17704281863
1710985797059,23731.929206840694
1710985797099,24975.321483187377
1710985797139,24975.321483187377
1710985797180,24975.321483187377
1710985797220,24975.321483187377
1710985797260,24975.321483187377
1710985797300,24975.321483187377
1710985797340,24975.321483187377
1710985797381,24975.321483187377
1710985797420,24975.321483187377
1710985797461,24975.321483187377
1710985797501,23731.929206840694
1710985797541,22901.437303773127
1710985797582,21275.7896623048
1710985797621,14788.162092323415
1710985797661,14788.162092323415
1710985797701,14788.162092323415
1710985797741,14788.162092323415
1710985797782,14788.162092323415
1710985797821,14788.162092323415
1710985797861,14788.162092323415
1710985797901,14788.162092323415
1710985797942,14788.162092323415
1710985797982,14788.162092323415
1710985798022,18219.717260173056
1710985798062,18219.717260173056
1710985798102,18219.717260173056
1710985798142,18219.717260173056
1710985798183,18219.717260173056
1710985798222,17113.335281826556
1710985798262,17113.335281826556
1710985798302,17113.335281826556
1710985798342,17113.335281826556
1710985798383,17113.335281826556
1710985798423,17113.335281826556
1710985798463,17113.335281826556
1710985798503,15493.224982609041
1710985798543,14584.37791956868
1710985798584,12558.814695509616
1710985798623,11484.777711699717
1710985798663,7256.355657295324
1710985798703,4570.037593313493
1710985798743,2286.3655441491865
1710985798784,-174.10895313695073
1710985798824,-18596.4308851948
1710985798864,-26300.3661979232
1710985798904,-32740.056897859555
1710985798944,-56286.93276851671
1710985798985,-67380.68639572151
1710985799024,-67380.68639572151
1710985799064,-68629.5178301651
1710985799104,-72704.07239926048
1710985799144,-75837.03996751225
1710985799185,-75837.03996751225
1710985799224,-75837.03996751225
1710985799265,-75837.03996751225
1710985799305,-75837.03996751225
1710985799345,-75837.03996751225
1710985799386,-75837.03996751225
1710985799425,-72704.07239926048
1710985799465,-70526.28089083359
1710985799505,-68629.5178301651
1710985799545,-68076.68972248957
1710985799586,-67380.68639572151
1710985799626,-63891.76807550993
1710985799666,-63072.30931959115
1710985799706,-57512.39844452776
1710985799746,-52813.588671875186
1710985799787,-52813.588671875186
1710985799826,-51779.500969714485
1710985799866,-50924.55420640949
1710985799906,-50924.55420640949
1710985799946,-50924.55420640949
1710985799987,-50924.55420640949
1710985800027,-50924.55420640949
1710985800067,-50924.55420640949
1710985800107,-50861.407657266594
1710985800147,-49712.942719739396
1710985800188,-49587.92329490371
1710985800227,-49115.60307672247
1710985800267,-49115.60307672247
1710985800307,-48889.86538691074
1710985800348,-48889.86538691074
1710985800388,-48889.86538691074
1710985800428,-48889.86538691074
1710985800468,-47852.715169445146
1710985800508,-44454.83708715532
1710985800548,-44454.83708715532
1710985800589,-43425.38098584395
1710985800628,-42919.53176738601
1710985800669,-37759.30363420211
1710985800709,-22264.046649209224
1710985800749,-13921.734836644027
1710985800790,-13216.768412442878
1710985800829,-11852.49231303623
1710985800869,-3921.725258008577
1710985800909,-2877.796878761612
1710985800950,110.51013692934066
1710985800990,2742.2979282215238
1710985801030,3903.4843055186793
1710985801070,4611.3460136181675
1710985801110,5008.888787907548
1710985801150,6472.331810825504
1710985801191,6686.32215043623
1710985801230,7969.409530180972
1710985801270,9581.355149075855
1710985801311,9692.031979542226
1710985801351,11600.072967456654
1710985801391,12744.014389140066
1710985801431,13782.371748006903
1710985801471,15990.811993638985
1710985801511,16005.046713467687
1710985801552,16774.01775715407
1710985801592,17861.910058664158
1710985801632,19298.5439523533
1710985801672,20866.136157366447
1710985801712,22236.057599297725
1710985801752,22402.765002428554
1710985801793,29084.766768491827
1710985801832,36707.393919122405
1710985801872,38144.85956071783
1710985801966,42630.14942841139
1710985802006,43803.101590444334
1710985802046,45908.19372928608
1710985802086,52329.347600465175
1710985802126,52329.347600465175
1710985802166,52329.347600465175
1710985802206,52329.347600465175
1710985802247,52329.347600465175
1710985802287,52329.347600465175
1710985802327,52329.347600465175
1710985802367,52329.347600465175
1710985802407,52329.347600465175
1710985802448,50734.71919009881
1710985802487,50734.71919009881
1710985802527,50734.71919009881
1710985802568,47849.3322026683
1710985802607,46733.12412016466
1710985802649,44750.28327958053
1710985802688,41983.72556588752
1710985802728,41054.96691156039
1710985802768,39932.6264882884
1710985802808,39683.6440069722
1710985802849,38168.91946905106
1710985802888,36473.73019784875
1710985802929,35155.15679043764
1710985802969,33619.0926722046
1710985803009,32574.838904285803
1710985803050,32257.423940846696
1710985803089,30932.586751176044
1710985803129,30732.478057780303
1710985803170,30226.573211247567
1710985803210,26015.252486256883
1710985803251,25477.58209543256
1710985803290,24382.376054108143
1710985803330,23408.33024560474
1710985803370,23089.564173661172
1710985803411,20134.91939448472
1710985803452,17736.9348073788
1710985803491,16769.78334132023
1710985803531,9318.335768145975
1710985803571,9318.335768145975
1710985803611,9117.501631060615
1710985803653,9117.501631060615
1710985803692,9085.80439664051
1710985803732,8925.330262339208
1710985803772,8925.330262339208
1710985803812,8925.330262339208
1710985803853,8925.330262339208
1710985803893,8925.330262339208
1710985803933,8917.700067323167
1710985803973,8917.700067323167
1710985804013,8917.700067323167
1710985804054,8917.700067323167
1710985804093,8917.700067323167
1710985804133,8917.700067323167
1710985804173,8917.700067323167
1710985804213,8917.700067323167
1710985804254,8917.700067323167
1710985804293,8917.700067323167
1710985804334,8783.12175030401
1710985804374,8538.130708137527
1710985804414,8384.179515606258
1710985804455,7723.738199031912
1710985804494,6795.247063938994
1710985804534,6795.247063938994
1710985804574,6795.247063938994
1710985804614,6795.247063938994
1710985804655,6795.247063938994
1710985804694,6795.247063938994
1710985804735,6795.247063938994
1710985804775,6795.247063938994
1710985804815,6795.247063938994
1710985804856,6795.247063938994
1710985804895,6795.247063938994
1710985804935,6945.964733484201
1710985804975,7806.774032711051
1710985805015,8241.174807569943
1710985805056,8751.59744179342
1710985805096,8751.59744179342
1710985805136,8751.59744179342
1710985805176,8751.59744179342
1710985805216,8751.59744179342
1710985805257,8751.59744179342
1710985805296,8751.59744179342
1710985805336,8751.59744179342
1710985805376,8751.59744179342
1710985805416,8549.287892401218
1710985805458,8549.287892401218
1710985805497,8549.287892401218
1710985805537,8549.287892401218
1710985805577,8549.287892401218
1710985805617,8549.287892401218
1710985805658,8549.287892401218
1710985805697,8549.287892401218
1710985805737,8751.59744179342
1710985805777,8549.287892401218
1710985805817,8169.340612954926
1710985805858,6577.279329815414
1710985805898,5457.653053396381
1710985805938,5415.4701811810955
1710985805978,4987.935571622103
1710985806018,2936.4439536891878
1710985806059,1947.6030449448153
1710985806098,1177.850201281719
1710985806138,1177.850201281719
1710985806179,1177.850201281719
1710985806219,-2702.8373133204877
1710985806259,-17066.24389190972
1710985806299,-17171.13153598737
1710985806339,-23419.57745271735
1710985806379,-23498.038401656784
1710985806419,-23498.038401656784
1710985806460,-23498.038401656784
1710985806499,-23498.038401656784
1710985806540,-23498.038401656784
1710985806580,-23498.038401656784
1710985806620,-23498.038401656784
1710985806661,-23498.038401656784
1710985806700,-23498.038401656784
1710985806740,-24635.096737308428
1710985806781,-27007.25474748388
1710985806820,-28047.475949590094
1710985806861,-28047.475949590094
1710985806901,-28047.475949590094
1710985806941,-28047.475949590094
1710985806981,-28047.475949590094
1710985807021,-28160.92180638574
1710985807062,-28160.92180638574
1710985807101,-28160.92180638574
1710985807142,-27992.93070758693
1710985807182,-27992.93070758693
1710985807222,-27992.93070758693
1710985807263,-27992.93070758693
1710985807302,-27992.93070758693
1710985807342,-27992.93070758693
1710985807382,-27992.93070758693
1710985807422,-27992.93070758693
1710985807463,-27992.93070758693
1710985807503,-27992.93070758693
1710985807543,-27992.93070758693
1710985807583,-27992.93070758693
1710985807623,-27992.93070758693
1710985807664,-27992.93070758693
1710985807703,-27992.93070758693
1710985807743,-27992.93070758693
1710985807783,-27992.93070758693
1710985807824,-27992.93070758693
1710985807865,-27992.93070758693
1710985807904,-27992.93070758693
1710985807944,-27992.93070758693
1710985807984,-31186.294036676176
1710985808024,-33732.0624909522
1710985808065,-33732.0624909522
1710985808105,-33732.0624909522
1710985808145,-33732.0624909522
1710985808185,-33732.0624909522
1710985808225,-33732.0624909522
1710985808266,-33732.0624909522
1710985808305,-33732.0624909522
1710985808345,-33732.0624909522
1710985808385,-35123.13377929758
1710985808426,-35470.81861962238
1710985808467,-36471.63509874791
1710985808506,-36471.63509874791
1710985808546,-36471.63509874791
1710985808586,-36471.63509874791
1710985808626,-36471.63509874791
1710985808667,-36471.63509874791
1710985808707,-36471.63509874791
1710985808747,-36471.63509874791
1710985808787,-36471.63509874791
1710985808827,-39045.953427386004
1710985808868,-39045.953427386004
1710985808907,-39045.953427386004
1710985808947,-39045.953427386004
1710985808987,-39045.953427386004
1710985809028,-39045.953427386004
1710985809069,-39045.953427386004
1710985809108,-39045.953427386004
1710985809148,-39045.953427386004
1710985809188,-39045.953427386004
1710985809228,-41004.410054094624
1710985809269,-41004.410054094624
1710985809309,-41004.410054094624
1710985809349,-41004.410054094624
1710985809389,-41004.410054094624
1710985809429,-41004.410054094624
1710985809470,-41004.410054094624
1710985809509,-41004.410054094624
1710985809550,-41004.410054094624
1710985809590,-41004.410054094624
1710985809630,-41745.81295897812
1710985809671,-41745.81295897812
1710985809710,-41745.81295897812
1710985809750,-41745.81295897812
1710985809791,-41745.81295897812
1710985809831,-41745.81295897812
1710985809871,-41745.81295897812
1710985809911,-41745.81295897812
1710985809951,-41745.81295897812
1710985809991,-41745.81295897812
1710985810032,-41745.81295897812
1710985810072,-41214.895916489884
1710985810111,-41214.895916489884
1710985810152,-41214.895916489884
1710985810192,-41214.895916489884
1710985810232,-41214.895916489884
1710985810273,-41214.895916489884
1710985810312,-41214.895916489884
1710985810352,-40791.0114910244
1710985810392,-39974.443183116615
1710985810432,-38622.18985172734
1710985810473,-38390.65239476366
1710985810513,-36588.47003248939
1710985810553,-35903.58518409077
1710985810593,-35903.58518409077
1710985810633,-35903.58518409077
1710985810674,-35903.58518409077
1710985810713,-35903.58518409077
1710985810753,-35903.58518409077
1710985810793,-35903.58518409077
1710985810833,-35903.58518409077
1710985810874,-35903.58518409077
1710985810913,-34604.15834793821
1710985810954,-31400.31536274776
1710985810994,-28891.315915773157
1710985811034,-25770.54163054563
1710985811075,-25770.54163054563
1710985811114,-25770.54163054563
1710985811154,-25770.54163054563
1710985811194,-24499.164870218374
1710985811234,-24428.54761588201
1710985811275,-23573.722479765303
1710985811314,-22556.12988972431
1710985811355,-22545.467813717667
1710985811395,-21713.622368793003
1710985811435,-20210.61933618551
1710985811476,-19807.44690982811
1710985811515,-19389.874920342583
1710985811555,-18495.865389592014
1710985811595,-18495.865389592014
1710985811635,-18495.865389592014
1710985811676,-18495.865389592014
1710985811716,-18495.865389592014
1710985811756,-18495.865389592014
1710985811796,-18495.865389592014
1710985811836,-16783.116347361356
1710985811876,-14872.45149771776
1710985811916,-11910.959482992068
1710985811956,-10122.23035867326
1710985811996,-10122.23035867326
1710985812036,-10122.23035867326
1710985812077,-10122.23035867326
1710985812117,-10122.23035867326
1710985812157,-10122.23035867326
1710985812197,-10122.23035867326
1710985812237,-8204.899098407477
1710985812278,-7819.065646176226
1710985812317,-7037.732721183915
1710985812357,-5168.963563595898
1710985812397,-5013.0506965979
1710985812438,-4868.390329210088
1710985812478,-4868.390329210088
1710985812518,-4868.390329210088
1710985812558,-4868.390329210088
1710985812598,-4868.390329210088
1710985812638,-4868.390329210088
1710985812679,-4868.390329210088
1710985812718,-4868.390329210088
1710985812758,-1874.1717553548515
1710985812799,1084.8305007983
1710985812839,1084.8305007983
1710985812879,1084.8305007983
1710985812919,1084.8305007983
1710985812959,1084.8305007983
1710985812999,1084.8305007983
1710985813040,1084.8305007983
1710985813080,1084.8305007983
1710985813120,1084.8305007983
1710985813160,1084.8305007983
1710985813200,1084.8305007983
1710985813240,804.757026700303
1710985813282,804.757026700303
1710985813321,804.757026700303
1710985813361,804.757026700303
1710985813402,804.757026700303
1710985813442,804.757026700303
1710985813483,804.757026700303
1710985813522,804.757026700303
1710985813562,804.757026700303
1710985813603,804.757026700303
1710985813643,804.757026700303
1710985813685,2468.1141248508357
1710985813724,5176.096584695391
1710985813765,5176.096584695391
1710985813805,5176.096584695391
1710985813845,5176.096584695391
1710985813886,5176.096584695391
1710985813926,5176.096584695391
1710985813966,5176.096584695391
1710985814005,5176.096584695391
1710985814044,5176.096584695391
1710985814083,5176.096584695391
1710985814122,5176.096584695391
1710985814161,3624.086266980972
1710985814200,3624.086266980972
1710985814239,3624.086266980972
1710985814278,3624.086266980972
1710985814317,3624.086266980972
1710985814356,3624.086266980972
1710985814395,3624.086266980972
1710985814434,3624.086266980972
1710985814473,3624.086266980972
1710985814512,3624.086266980972
1710985814551,3624.086266980972
1710985814590,4745.095520399045
1710985814629,7422.97095813835
1710985814668,9545.257166563068
1710985814707,9545.257166563068
1710985814746,9545.257166563068
1710985814786,9545.257166563068
1710985814826,9545.257166563068
1710985814866,9545.257166563068
1710985814906,9545.257166563068
1710985814946,9545.257166563068
1710985814986,9545.257166563068
1710985815026,9545.257166563068
1710985815066,9545.257166563068
1710985815106,7289.462723862845
1710985815146,7289.462723862845
1710985815186,7289.462723862845
1710985815226,7289.462723862845
1710985815266,7289.462723862845
1710985815306,7289.462723862845
1710985815346,7289.462723862845
1710985815386,7289.462723862845
1710985815426,7289.462723862845
1710985815466,7289.462723862845
1710985815506,7289.462723862845
1710985815546,8665.930113246664
1710985815586,10217.356923044194
1710985815626,12672.831321856007
1710985815666,12672.831321856007
1710985815706,12672.831321856007
1710985815746,12672.831321856007
1710985815786,12672.831321856007
1710985815826,12672.831321856007
1710985815866,12672.831321856007
1710985815906,12672.831321856007
1710985815946,12672.831321856007
1710985815986,12672.831321856007
1710985816026,12672.831321856007
1710985816066,8217.754519751761
1710985816106,7215.495762526989
1710985816146,7215.495762526989
1710985816186,7215.495762526989
1710985816226,7215.495762526989
1710985816266,7215.495762526989
1710985816306,7215.495762526989
1710985816346,7215.495762526989
1710985816386,7215.495762526989
1710985816426,7215.495762526989
1710985816466,7215.495762526989
1710985816506,7215.495762526989
1710985816546,7309.966494486667
1710985816586,7309.966494486667
1710985816626,7309.966494486667
1710985816666,7309.966494486667
1710985816706,7309.966494486667
1710985816746,7309.966494486667
1710985816786,7309.966494486667
1710985816826,7309.966494486667
1710985816866,7309.966494486667
1710985816906,7309.966494486667
1710985816946,7309.966494486667
1710985816986,1534.2048195041716
1710985817026,1534.2048195041716
1710985817066,1534.2048195041716
1710985817106,1534.2048195041716
1710985817146,1534.2048195041716
1710985817186,1534.2048195041716
1710985817226,1534.2048195041716
1710985817266,1534.2048195041716
1710985817306,1534.2048195041716
1710985817346,1534.2048195041716
1710985817386,1534.2048195041716
1710985817426,2605.5843362533487
1710985817466,4944.918468507007
1710985817506,4944.918468507007
1710985817546,4944.918468507007
1710985817586,4944.918468507007
1710985817626,4944.918468507007
1710985817666,4944.918468507007
1710985817706,4944.918468507007
1710985817746,4944.918468507007
1710985817786,4944.918468507007
1710985817826,4944.918468507007
1710985817866,4944.918468507007
1710985817906,1971.905951844994
1710985817946,-2134.554274664726
1710985817986,-2155.5199137907475
1710985818026,-2155.5199137907475
1710985818066,-2155.5199137907475
1710985818106,-2155.5199137907475
1710985818146,-2155.5199137907475
1710985818186,-2155.5199137907475
1710985818226,-2155.5199137907475
1710985818266,-2155.5199137907475
1710985818306,-2155.5199137907475
1710985818346,-2155.5199137907475
1710985818386,-2155.5199137907475
1710985818426,-2155.5199137907475
1710985818466,-2155.5199137907475
1710985818506,-2155.5199137907475
1710985818546,-2155.5199137907475
1710985818586,-2155.5199137907475
1710985818626,-2155.5199137907475
1710985818666,-2155.5199137907475
1710985818706,-2155.5199137907475
1710985818746,-2155.5199137907475
1710985818786,-2155.5199137907475
1710985818826,-1285.443426482845
1710985818866,-1285.443426482845
1710985818906,-1285.443426482845
1710985818946,-1285.443426482845
1710985818986,-1285.443426482845
1710985819026,-1285.443426482845
1710985819066,-1285.443426482845
1710985819106,-1285.443426482845
1710985819146,-1285.443426482845
1710985819186,-1285.443426482845
1710985819226,256.46764028212056
1710985819266,8921.510700885206
1710985819306,17132.521362832747
1710985819346,24686.370416568592
1710985819386,32324.364713747054
1710985819426,32324.364713747054
1710985819466,32324.364713747054
1710985819506,32324.364713747054
1710985819546,32324.364713747054
1710985819586,32324.364713747054
1710985819626,32324.364713747054
1710985819666,32324.364713747054
1710985819706,32324.364713747054
1710985819746,32324.364713747054
1710985819786,32324.364713747054
1710985819826,32324.364713747054
1710985819866,32324.364713747054
1710985819906,32324.364713747054
1710985819946,32324.364713747054
1710985819986,32324.364713747054
1710985820026,32324.364713747054
1710985820066,32324.364713747054
1710985820106,32324.364713747054
1710985820146,31654.773049707524
1710985820186,31580.765902286395
1710985820226,31035.34452632256
1710985820266,31035.34452632256
1710985820306,30882.58861505799
1710985820346,30502.216066489927
1710985820386,30127.11009788653
1710985820426,30057.31883851718
1710985820466,29899.927416998427
1710985820506,29899.927416998427
1710985820546,27280.549505689647
1710985820586,25131.53642187221
1710985820626,25131.53642187221
1710985820666,25131.53642187221
1710985820706,25131.53642187221
1710985820746,25131.53642187221
1710985820786,25131.53642187221
1710985820826,25131.53642187221
1710985820866,25131.53642187221
1710985820906,24816.049020133913
1710985820946,23997.058512692805
1710985820986,23811.12626687484
1710985821026,23811.12626687484
1710985821066,23811.12626687484
1710985821106,23811.12626687484
1710985821146,23811.12626687484
1710985821186,23811.12626687484
1710985821226,23811.12626687484
1710985821266,23811.12626687484
1710985821306,23811.12626687484
1710985821346,19294.19326727651
1710985821386,19294.19326727651
1710985821426,19294.19326727651
1710985821466,19294.19326727651
1710985821506,19294.19326727651
1710985821546,19294.19326727651
1710985821586,19294.19326727651
1710985821626,19106.258035432547
1710985821666,18797.69644228788
1710985821706,18501.585435327142
1710985821746,17899.066668218467
1710985821786,17779.513764953706
1710985821826,17779.513764953706
1710985821866,17779.513764953706
1710985821906,17779.513764953706
1710985821946,17779.513764953706
1710985821986,17608.038054554723
1710985822026,17436.943162472453
1710985822066,14387.203418957535
1710985822106,9288.722449129447
1710985822146,9288.722449129447
1710985822186,9288.722449129447
1710985822226,9288.722449129447
1710985822266,9288.722449129447
1710985822306,9288.722449129447
1710985822346,9288.722449129447
1710985822386,8769.393081399612
1710985822426,7537.98410945246
1710985822466,6661.368383074179
1710985822506,6357.953371381853
1710985822546,5788.709018195514
1710985822586,5648.583673296962
1710985822626,5648.583673296962
1710985822666,5648.583673296962
1710985822706,5648.583673296962
1710985822746,5648.583673296962
1710985822786,3720.0611465941183
1710985822826,-1117.870312561281
1710985822866,-1117.870312561281
1710985822906,-1117.870312561281
1710985822946,-1117.870312561281
1710985822986,-1117.870312561281
1710985823026,-1117.870312561281
1710985823066,-1117.870312561281
1710985823106,-2031.5279825208709
1710985823146,-2725.349067395553
1710985823186,-3848.788480622694
1710985823226,-4185.356885585003
1710985823266,-4196.605892233551
1710985823306,-4196.605892233551
1710985823346,-4196.605892233551
1710985823386,-4196.605892233551
1710985823426,-4196.605892233551
1710985823466,-4196.605892233551
1710985823506,-4410.936224079691
1710985823546,-8619.882484356873
1710985823586,-8619.882484356873
1710985823626,-8619.882484356873
1710985823666,-8619.882484356873
1710985823706,-8619.882484356873
1710985823746,-8619.882484356873
1710985823786,-8619.882484356873
1710985823826,-8619.882484356873
1710985823866,-8619.882484356873
1710985823906,-9933.737461450044
1710985823946,-10495.427411388606
1710985823986,-11023.54226183379
1710985824026,-11023.54226183379
1710985824066,-11023.54226183379
1710985824106,-11023.54226183379
1710985824146,-11023.54226183379
1710985824186,-11023.54226183379
1710985824226,-11023.54226183379
1710985824266,-11023.54226183379
1710985824306,-11324.565824923571
1710985824346,-11324.565824923571
1710985824386,-11324.565824923571
1710985824426,-11324.565824923571
1710985824466,-11324.565824923571
1710985824506,-11324.565824923571
1710985824546,-11324.565824923571
1710985824586,-11324.565824923571
1710985824626,-11324.565824923571
1710985824666,-11324.565824923571
1710985824706,-11324.565824923571
1710985824746,-9782.836063607596
1710985824786,-9782.836063607596
1710985824826,-9782.836063607596
1710985824866,-9782.836063607596
1710985824906,-9782.836063607596
1710985824946,-9782.836063607596
1710985824986,-9782.836063607596
1710985825026,-9782.836063607596
1710985825066,-9782.836063607596
1710985825106,-9782.836063607596
1710985825146,-8403.280628689565
1710985825186,-8291.848887652624
1710985825226,-6259.730276987422
1710985825266,-6111.7735265064985
1710985825306,-6111.7735265064985
1710985825346,-6111.7735265064985
1710985825386,-6111.7735265064985
1710985825426,-6111.7735265064985
1710985825466,-6111.7735265064985
1710985825506,-6111.7735265064985
1710985825546,-6111.7735265064985
1710985825586,-6111.7735265064985
1710985825626,-3447.1126468270086
1710985825666,-1358.875366567634
1710985825706,-1358.875366567634
1710985825746,-1358.875366567634
1710985825786,-1358.875366567634
1710985825826,-1358.875366567634
1710985825866,-1358.875366567634
1710985825906,-1358.875366567634
1710985825946,-1358.875366567634
1710985826039,-1358.875366567634
1710985826079,-1358.875366567634
1710985826120,-1358.875366567634
1710985826160,-460.73311546444893
1710985826200,-460.73311546444893
1710985826240,-460.73311546444893
1710985826280,-460.73311546444893
1710985826321,-460.73311546444893
1710985826360,-460.73311546444893
1710985826401,-460.73311546444893
1710985826441,-460.73311546444893
1710985826481,-460.73311546444893
1710985826522,-460.73311546444893
1710985826561,-1878.0323818861507
1710985826601,-1878.0323818861507
1710985826641,-1878.0323818861507
1710985826681,-1878.0323818861507
1710985826722,-1878.0323818861507
1710985826762,-1878.0323818861507
1710985826802,-1878.0323818861507
1710985826842,-1878.0323818861507
1710985826882,-1878.0323818861507
1710985826923,-1878.0323818861507
1710985826962,-2342.971426669508
1710985827003,-9367.506665885914
1710985827043,-9367.506665885914
1710985827083,-9367.506665885914
1710985827124,-9367.506665885914
1710985827163,-9367.506665885914
1710985827203,-9367.506665885914
1710985827244,-9367.506665885914
1710985827283,-9367.506665885914
1710985827324,-9367.506665885914
1710985827364,-9367.506665885914
1710985827404,-9367.506665885914
1710985827444,-6172.084834964015
1710985827484,-5497.913217268884
1710985827525,-5497.913217268884
1710985827564,-5497.913217268884
1710985827605,-5497.913217268884
1710985827645,-5497.913217268884
1710985827685,-5497.913217268884
1710985827726,-5497.913217268884
1710985827765,-5497.913217268884
1710985827805,-5427.833561620675
1710985827845,-4421.31437178934
1710985827885,-3693.77285266947
1710985827926,-2692.023910584394
1710985827965,-2692.023910584394
1710985828005,-2692.023910584394
1710985828045,-2692.023910584394
1710985828086,-2692.023910584394
1710985828126,-2692.023910584394
1710985828166,-2692.023910584394
1710985828206,-2692.023910584394
1710985828246,-2692.023910584394
1710985828286,-2692.023910584394
1710985828327,-1585.9734476255253
1710985828366,141.02196511626244
1710985828406,2944.5809436663985
1710985828447,2944.5809436663985
1710985828487,2944.5809436663985
1710985828527,2944.5809436663985
1710985828567,2944.5809436663985
1710985828607,2944.5809436663985
1710985828647,2944.5809436663985
1710985828687,3012.671762768179
1710985828728,3054.1615512571298
1710985828767,4108.790257773362
1710985828807,4932.100710676983
1710985828847,5225.564494567923
1710985828887,5225.564494567923
1710985828928,5225.564494567923
1710985828968,5225.564494567923
1710985829008,5225.564494567923
1710985829048,5225.564494567923
1710985829088,5225.564494567923
1710985829129,5225.564494567923
1710985829168,5225.564494567923
1710985829208,5225.564494567923
1710985829248,5885.316711469553
1710985829289,7131.588011103682
1710985829329,7895.222164868377
1710985829369,7895.222164868377
1710985829409,7895.222164868377
1710985829449,7895.222164868377
1710985829489,7895.222164868377
1710985829530,7895.222164868377
1710985829570,7895.222164868377
1710985829610,7895.222164868377
1710985829650,7895.222164868377
1710985829690,7895.222164868377
1710985829731,7895.222164868377
1710985829771,7492.963721415028
1710985829811,2287.5790204461664
1710985829852,-245.52662505675107
1710985829892,-245.52662505675107
1710985829933,-245.52662505675107
1710985829972,-245.52662505675107
1710985830013,-245.52662505675107
1710985830053,-245.52662505675107
1710985830093,-245.52662505675107
1710985830134,-245.52662505675107
1710985830174,-245.52662505675107
1710985830215,-245.52662505675107
1710985830255,-245.52662505675107
1710985830297,720.8951000245288
1710985830338,3808.3632839163765
1710985830377,6412.50572741311
1710985830417,6412.50572741311
1710985830458,6412.50572741311
1710985830498,6412.50572741311
1710985830539,6412.50572741311
1710985830578,6412.50572741311
1710985830619,6412.50572741311
1710985830659,6412.50572741311
1710985830699,6412.50572741311
1710985830740,6412.50572741311
1710985830780,6412.50572741311
1710985830820,5396.672229101881
1710985830860,5396.672229101881
1710985830901,5396.672229101881
1710985830942,5396.672229101881
1710985830981,5396.672229101881
1710985831021,5396.672229101881
1710985831062,5396.672229101881
1710985831102,5396.672229101881
1710985831143,5396.672229101881
1710985831182,5396.672229101881
1710985831223,5396.672229101881
1710985831263,5396.672229101881
1710985831303,5396.672229101881
1710985831344,5396.672229101881
1710985831384,5396.672229101881
1710985831424,5396.672229101881
1710985831464,5396.672229101881
1710985831504,5396.672229101881
1710985831545,5396.672229101881
1710985831585,5396.672229101881
1710985831625,5396.672229101881
1710985831665,1028.5005232542753
1710985831705,-1216.9093364961445
1710985831746,-1216.9093364961445
1710985831785,-1216.9093364961445
1710985831826,-1216.9093364961445
1710985831866,-1216.9093364961445
1710985831906,-1216.9093364961445
1710985831947,-1216.9093364961445
1710985831986,-1216.9093364961445
1710985832026,-1216.9093364961445
1710985832067,-1216.9093364961445
1710985832107,-1216.9093364961445
1710985832149,-1129.809610397555
1710985832189,-1129.809610397555
1710985832229,-1129.809610397555
1710985832269,-1129.809610397555
1710985832309,-1129.809610397555
1710985832350,-1129.809610397555
1710985832390,-1129.809610397555
1710985832430,-1129.809610397555
1710985832470,-1129.809610397555
1710985832510,-1129.809610397555
1710985832551,-1129.809610397555
1710985832591,-2832.726634210907
1710985832631,-2832.726634210907
1710985832671,-2832.726634210907
1710985832711,-2832.726634210907
1710985832753,-2832.726634210907
1710985832792,-2832.726634210907
1710985832832,-2832.726634210907
1710985832873,-2832.726634210907
1710985832913,-2832.726634210907
1710985832954,-2832.726634210907
1710985832993,-2832.726634210907
1710985833034,-846.7034770166501
1710985833074,-457.9345583273098
1710985833114,-457.9345583273098
1710985833155,-457.9345583273098
1710985833195,-457.9345583273098
1710985833235,-457.9345583273098
1710985833275,-457.9345583273098
1710985833315,-457.9345583273098
1710985833356,-457.9345583273098
1710985833396,-457.9345583273098
1710985833436,-457.9345583273098
1710985833476,-457.9345583273098
1710985833517,-457.9345583273098
1710985833558,-457.9345583273098
1710985833597,-457.9345583273098
1710985833637,-457.9345583273098
1710985833677,-457.9345583273098
1710985833718,-457.9345583273098
1710985833759,-457.9345583273098
1710985833798,-457.9345583273098
1710985833839,-457.9345583273098
1710985833879,-457.9345583273098
1710985833919,510.0413898336701
1710985833960,510.0413898336701
1710985834000,510.0413898336701
1710985834040,510.0413898336701
1710985834080,510.0413898336701
1710985834120,510.0413898336701
1710985834161,510.0413898336701
1710985834201,510.0413898336701
1710985834241,510.0413898336701
1710985834281,510.0413898336701
1710985834321,510.0413898336701
1710985834363,-2442.4698546174914
1710985834402,-2442.4698546174914
1710985834442,-2442.4698546174914
1710985834483,-2442.4698546174914
1710985834523,-2442.4698546174914
1710985834564,-2442.4698546174914
1710985834603,-2442.4698546174914
1710985834645,-2442.4698546174914
1710985834685,-2442.4698546174914
1710985834725,-2442.4698546174914
1710985834766,-2442.4698546174914
1710985834806,-2488.0632228334434
1710985834846,-2488.0632228334434
1710985834886,-2488.0632228334434
1710985834926,-2488.0632228334434
1710985834967,-2488.0632228334434
1710985835007,-2488.0632228334434
1710985835047,-2488.0632228334434
1710985835087,-2488.0632228334434
1710985835127,-2488.0632228334434
1710985835168,-2488.0632228334434
1710985835208,-6987.2985667423345
1710985835248,-13044.707182939164
1710985835288,-13326.60999775771
1710985835328,-13326.60999775771
1710985835369,-13326.60999775771
1710985835408,-13326.60999775771
1710985835449,-13326.60999775771
1710985835489,-13326.60999775771
1710985835529,-13326.60999775771
1710985835570,-13326.60999775771
1710985835609,-13326.60999775771
1710985835650,-13326.60999775771
1710985835690,-14991.628395001404
1710985835730,-14991.628395001404
1710985835771,-14991.628395001404
1710985835811,-14991.628395001404
1710985835851,-14991.628395001404
1710985835891,-14991.628395001404
1710985835932,-14991.628395001404
1710985835973,-14991.628395001404
1710985836012,-14991.628395001404
1710985836052,-14991.628395001404
1710985836093,-18192.34698690567
1710985836133,-18827.597920994274
1710985836174,-18827.597920994274
1710985836213,-18827.597920994274
1710985836254,-18827.597920994274
1710985836294,-18827.597920994274
1710985836334,-18827.597920994274
1710985836375,-18827.597920994274
1710985836415,-18827.597920994274
1710985836455,-18827.597920994274
1710985836495,-18827.597920994274
1710985836535,-18827.597920994274
1710985836576,-15938.863307453692
1710985836616,-14198.093264305964
1710985836657,-14198.093264305964
1710985836697,-14198.093264305964
1710985836737,-14198.093264305964
1710985836778,-14198.093264305964
1710985836818,-14198.093264305964
1710985836858,-14198.093264305964
1710985836899,-14198.093264305964
1710985836939,-14198.093264305964
1710985836980,-14198.093264305964
1710985837019,-13389.697655183729
1710985837059,-12902.111803973094
1710985837100,-12902.111803973094
1710985837140,-12902.111803973094
1710985837181,-12902.111803973094
1710985837220,-12902.111803973094
1710985837261,-12902.111803973094
1710985837301,-12902.111803973094
1710985837341,-12902.111803973094
1710985837382,-12902.111803973094
1710985837421,-12902.111803973094
1710985837462,-12170.215234909207
1710985837502,-12170.215234909207
1710985837542,-12170.215234909207
1710985837583,-12170.215234909207
1710985837623,-12170.215234909207
1710985837663,-12170.215234909207
1710985837703,-12170.215234909207
1710985837743,-12170.215234909207
1710985837784,-12170.215234909207
1710985837823,-12170.215234909207
1710985837864,-12170.215234909207
1710985837904,-13411.149255248252
1710985837944,-14323.97006343631
1710985837985,-14323.97006343631
1710985838024,-14323.97006343631
1710985838064,-14323.97006343631
1710985838103,-14323.97006343631
1710985838143,-14323.97006343631
1710985838183,-14323.97006343631
1710985838223,-14323.97006343631
1710985838263,-14323.97006343631
1710985838303,-14323.97006343631
1710985838343,-14323.97006343631
1710985838384,-13651.520736963488
1710985838423,-13651.520736963488
1710985838464,-13651.520736963488
1710985838504,-13651.520736963488
1710985838544,-13651.520736963488
1710985838585,-13651.520736963488
1710985838624,-13651.520736963488
1710985838664,-13651.520736963488
1710985838704,-13651.520736963488
1710985838744,-13651.520736963488
1710985838786,-13651.520736963488
1710985838825,-14121.541219466366
1710985838865,-14121.541219466366
1710985838905,-14121.541219466366
1710985838946,-14121.541219466366
1710985838987,-14121.541219466366
1710985839026,-14121.541219466366
1710985839066,-14121.541219466366
1710985839106,-14121.541219466366
1710985839147,-14121.541219466366
1710985839188,-14121.541219466366
1710985839227,-14121.541219466366
1710985839267,-11284.634908531327
1710985839308,-11284.634908531327
1710985839348,-11284.634908531327
1710985839389,-11284.634908531327
1710985839429,-11284.634908531327
1710985839469,-11284.634908531327
1710985839509,-11284.634908531327
1710985839549,-11284.634908531327
1710985839590,-11284.634908531327
1710985839630,-11284.634908531327
1710985839670,-11284.634908531327
1710985839710,-13369.993401357904
1710985839750,-13369.993401357904
1710985839792,-13369.993401357904
1710985839831,-13369.993401357904
1710985839871,-13369.993401357904
1710985839912,-13369.993401357904
1710985839952,-13369.993401357904
1710985839993,-13369.993401357904
1710985840032,-13369.993401357904
1710985840072,-13369.993401357904
1710985840113,-13369.993401357904
1710985840153,-11809.760385619942
1710985840194,-9246.034518070053
1710985840233,-9246.034518070053
1710985840274,-9246.034518070053
1710985840314,-9246.034518070053
1710985840354,-9246.034518070053
1710985840395,-9246.034518070053
1710985840435,-9246.034518070053
1710985840475,-9246.034518070053
1710985840515,-9246.034518070053
1710985840555,-9246.034518070053
1710985840596,-9246.034518070053
1710985840636,-10755.612313575577
1710985840676,-10755.612313575577
1710985840717,-10755.612313575577
1710985840757,-10755.612313575577
1710985840798,-10755.612313575577
1710985840837,-10755.612313575577
1710985840878,-10755.612313575577
1710985840918,-10755.612313575577
1710985840958,-10755.612313575577
1710985840999,-10755.612313575577
1710985841039,-10755.612313575577
1710985841079,-8608.044631141238
1710985841119,-5809.254317404237
1710985841159,-5809.254317404237
1710985841200,-5809.254317404237
1710985841240,-5809.254317404237
1710985841280,-5809.254317404237
1710985841320,-5809.254317404237
1710985841361,-5809.254317404237
1710985841401,-5809.254317404237
1710985841441,-5809.254317404237
1710985841481,-5809.254317404237
1710985841521,-5809.254317404237
1710985841561,-7416.059615726583
1710985841602,-7416.059615726583
1710985841642,-7416.059615726583
1710985841682,-7416.059615726583
1710985841722,-7416.059615726583
1710985841762,-7416.059615726583
1710985841803,-7416.059615726583
1710985841843,-7416.059615726583
1710985841883,-7416.059615726583
1710985841923,-7416.059615726583
1710985841963,-7416.059615726583
1710985842004,-4963.56539510889
1710985842043,-3615.985611175187
1710985842084,-3615.985611175187
1710985842124,-3615.985611175187
1710985842164,-3615.985611175187
1710985842205,-3615.985611175187
1710985842244,-3615.985611175187
1710985842285,-3615.985611175187
1710985842325,-3615.985611175187
1710985842365,-3615.985611175187
1710985842406,-3615.985611175187
1710985842446,-3615.985611175187
1710985842486,-5208.239091483876
1710985842526,-5208.239091483876
1710985842566,-5208.239091483876
1710985842607,-5208.239091483876
1710985842647,-5208.239091483876
1710985842687,-5208.239091483876
1710985842727,-5208.239091483876
1710985842767,-5208.239091483876
1710985842809,-5208.239091483876
1710985842848,-5208.239091483876
1710985842888,-5208.239091483876
1710985842929,-5208.239091483876
1710985842969,-5208.239091483876
1710985843010,-5208.239091483876
1710985843050,-5208.239091483876
1710985843090,-5208.239091483876
1710985843130,-5208.239091483876
1710985843170,-5208.239091483876
1710985843211,-5208.239091483876
1710985843251,-5208.239091483876
1710985843291,-5208.239091483876
1710985843331,-6707.188214881346
1710985843371,-9715.112497178838
1710985843412,-10357.721808118746
1710985843452,-10404.894603060558
1710985843492,-10645.17199449474
1710985843532,-10645.17199449474
1710985843573,-10645.17199449474
1710985843614,-10645.17199449474
1710985843653,-10645.17199449474
1710985843693,-10985.343129290268
1710985843734,-11070.316288044676
1710985843774,-11188.49845536612
1710985843815,-11370.5232008202
1710985843854,-11370.5232008202
1710985843895,-11370.5232008202
1710985843935,-11370.5232008202
1710985843975,-11390.627928798087
1710985844016,-11629.815317432396
1710985844056,-12135.348220888525
1710985844098,-14175.82676950004
1710985844138,-22966.840743992943
1710985844178,-23965.11845079856
1710985844219,-23965.11845079856
1710985844259,-23965.11845079856
1710985844299,-23965.11845079856
1710985844339,-23965.11845079856
1710985844379,-23965.11845079856
1710985844420,-23965.11845079856
1710985844460,-23965.11845079856
1710985844500,-23965.11845079856
1710985844540,-23965.11845079856
1710985844580,-26636.999192345887
1710985844621,-26636.999192345887
1710985844660,-26636.999192345887
1710985844700,-26636.999192345887
1710985844741,-26473.318406221922
1710985844781,-23965.11845079856
1710985844822,-23818.335553184617
1710985844861,-23276.170650319196
1710985844901,-22962.543784897774
1710985844942,-21997.2665131744
1710985844982,-21193.331345153507
1710985845023,-20449.15985574387
1710985845062,-19543.64500862686
1710985845102,-19543.64500862686
1710985845143,-19543.64500862686
1710985845185,-19543.64500862686
1710985845224,-19543.64500862686
1710985845263,-19543.64500862686
1710985845303,-19543.64500862686
1710985845344,-19543.64500862686
1710985845384,-18814.242015403695
1710985845425,-18814.242015403695
1710985845464,-18814.242015403695
1710985845504,-18814.242015403695
1710985845545,-18814.242015403695
1710985845585,-18814.242015403695
1710985845626,-18814.242015403695
1710985845665,-18814.242015403695
1710985845706,-18814.242015403695
1710985845746,-18814.242015403695
1710985845786,-18814.242015403695
1710985845827,-18814.242015403695
1710985845867,-18814.242015403695
1710985845907,-18814.242015403695
1710985845947,-18814.242015403695
1710985845987,-18814.242015403695
1710985846028,-18814.242015403695
1710985846068,-18814.242015403695
1710985846109,-18814.242015403695
1710985846150,-18814.242015403695
1710985846190,-18814.242015403695
1710985846231,-18577.681838844437
1710985846270,-15542.508625364164
1710985846311,-12633.759797653649
1710985846351,-12633.759797653649
1710985846391,-12633.759797653649
1710985846432,-12633.759797653649
1710985846472,-12633.759797653649
1710985846512,-12633.759797653649
1710985846552,-12633.759797653649
1710985846592,-12633.759797653649
1710985846633,-12633.759797653649
1710985846673,-12633.759797653649
1710985846713,-12633.759797653649
1710985846753,-13753.587873053737
1710985846794,-13753.587873053737
1710985846835,-13753.587873053737
1710985846874,-13753.587873053737
1710985846915,-13753.587873053737
1710985846955,-13753.587873053737
1710985846995,-13753.587873053737
1710985847036,-13753.587873053737
1710985847075,-13753.587873053737
1710985847116,-13753.587873053737
1710985847156,-13753.587873053737
1710985847196,-11971.03274823539
1710985847237,-9183.702618259937
1710985847277,-5983.028057351243
1710985847317,-5983.028057351243
1710985847357,-5983.028057351243
1710985847400,-5983.028057351243
1710985847438,-5983.028057351243
1710985847478,-5983.028057351243
1710985847518,-5983.028057351243
1710985847558,-5983.028057351243
1710985847599,-5983.028057351243
1710985847640,-5983.028057351243
1710985847679,-5983.028057351243
1710985847719,-5598.278327300912
1710985847759,-5598.278327300912
1710985847799,-5598.278327300912
1710985847840,-5598.278327300912
1710985847880,-5598.278327300912
1710985847920,-5598.278327300912
1710985847960,-5598.278327300912
1710985848000,-5598.278327300912
1710985848041,-5598.278327300912
1710985848081,-5598.278327300912
1710985848121,-4078.903480079258
1710985848161,-1301.8919168454595
1710985848201,-1301.8919168454595
1710985848242,-1301.8919168454595
1710985848282,-1301.8919168454595
1710985848322,-1301.8919168454595
1710985848362,-1301.8919168454595
1710985848402,-1301.8919168454595
1710985848443,-1301.8919168454595
1710985848483,-1301.8919168454595
1710985848523,-1301.8919168454595
1710985848563,-1301.8919168454595
1710985848604,-5406.495931035839
1710985848644,-6777.625828685006
1710985848684,-6777.625828685006
1710985848724,-6777.625828685006
1710985848764,-6777.625828685006
1710985848804,-6777.625828685006
1710985848846,-6777.625828685006
1710985848885,-6777.625828685006
1710985848925,-6777.625828685006
1710985848966,-6777.625828685006
1710985849006,-6777.625828685006
1710985849047,-6777.625828685006
1710985849086,-4228.488070151303
1710985849126,-1644.0052846577018
1710985849167,-1644.0052846577018
1710985849207,-1644.0052846577018
1710985849248,-1644.0052846577018
1710985849287,-1644.0052846577018
1710985849328,-1644.0052846577018
1710985849368,-1644.0052846577018
1710985849408,-1644.0052846577018
1710985849449,-1644.0052846577018
1710985849489,-1644.0052846577018
1710985849529,-1644.0052846577018
1710985849570,-5182.722492065746
1710985849612,-5182.722492065746
1710985849651,-5182.722492065746
1710985849690,-5182.722492065746
1710985849730,-5182.722492065746
1710985849771,-5182.722492065746
1710985849811,-5182.722492065746
1710985849852,-5182.722492065746
1710985849891,-5182.722492065746
1710985849932,-5182.722492065746
1710985849972,-5182.722492065746
1710985850012,-2526.8587166750804
1710985850053,309.9663660847582
1710985850093,3478.391388368793
1710985850133,6205.241700872779
1710985850172,6205.241700872779
1710985850211,6205.241700872779
1710985850250,6205.241700872779
1710985850289,6205.241700872779
1710985850328,6205.241700872779
1710985850367,6205.241700872779
1710985850406,6205.241700872779
1710985850445,6205.241700872779
1710985850484,6205.241700872779
1710985850523,6323.763618583325
1710985850562,9387.037689771503
1710985850601,11726.900196454022
1710985850640,13438.467870647786
1710985850679,13438.467870647786
1710985850718,13438.467870647786
1710985850758,13438.467870647786
1710985850798,13438.467870647786
1710985850838,13438.467870647786
1710985850878,13438.467870647786
1710985850918,13438.467870647786
1710985850958,13438.467870647786
1710985850998,13438.467870647786
1710985851038,13438.467870647786
1710985851078,13438.467870647786
1710985851118,13438.467870647786
1710985851158,13438.467870647786
1710985851198,13438.467870647786
1710985851238,13438.467870647786
1710985851278,13438.467870647786
1710985851318,13438.467870647786
1710985851358,9628.40198899014
1710985851398,7468.2398780460935
1710985851438,6008.358899655752
1710985851478,3334.011514787795
1710985851518,1997.7836449453607
1710985851558,-6582.416697867215
1710985851598,-11585.138229388744
1710985851638,-11585.138229388744
1710985851678,-11585.138229388744
1710985851718,-11585.138229388744
1710985851758,-11585.138229388744
1710985851798,-11585.138229388744
1710985851838,-11838.876247300068
1710985851878,-12044.979307255475
1710985851918,-12044.979307255475
1710985851958,-12044.979307255475
1710985851998,-12044.979307255475
1710985852038,-14122.1000867174
1710985852078,-16070.442172822542
1710985852118,-18231.559387626592
1710985852158,-29171.39578383183
1710985852198,-29171.39578383183
1710985852238,-29171.39578383183
1710985852278,-58282.66772206314
1710985852318,-81648.91041408852
1710985852358,-81648.91041408852
1710985852398,-81648.91041408852
1710985852438,-81648.91041408852
1710985852478,-81648.91041408852
1710985852518,-81648.91041408852
1710985852558,-81648.91041408852
1710985852598,-81648.91041408852
1710985852638,-81648.91041408852
1710985852678,-81648.91041408852
1710985852718,-81648.91041408852
1710985852758,-49928.91170452628
1710985852798,-19089.90079560131
1710985852838,-19089.90079560131
1710985852878,-19089.90079560131
1710985852918,-19089.90079560131
1710985852958,-19089.90079560131
1710985852998,-19089.90079560131
1710985853038,-19089.90079560131
1710985853078,-19089.90079560131
1710985853118,-19089.90079560131
1710985853158,-19089.90079560131
1710985853198,-19089.90079560131
1710985853238,-28721.233733986737
1710985853278,-49891.51289851079
1710985853318,-57141.907753671985
1710985853358,-58614.97226628102
1710985853398,-61505.0239788373
1710985853438,-73724.77100632153
1710985853478,-76145.93945245398
1710985853518,-76835.42983814981
1710985853558,-79873.07789052045
1710985853598,-81236.47606608481
1710985853638,-85194.67043032381
1710985853678,-85434.8340643784
1710985853718,-87184.01946464367
1710985853758,-88934.04929757584
1710985853798,-90917.22588972305
1710985853838,-91501.05805785954
1710985853878,-93101.5223414998
1710985853918,-95386.10075551132
1710985853958,-98025.45177947404
1710985853998,-103221.44673042791
1710985854038,-106524.29709197348
1710985854078,-106524.29709197348
1710985854118,-106524.29709197348
1710985854158,-106524.29709197348
1710985854198,-106524.29709197348
1710985854238,-106524.29709197348
1710985854278,-106524.29709197348
1710985854318,-106524.29709197348
1710985854358,-106524.29709197348
1710985854398,-106524.29709197348
1710985854438,-106524.29709197348
1710985854478,-103670.13837129506
1710985854518,-94420.27920676279
1710985854558,-94098.64331015106
1710985854598,-91216.48852543277
1710985854638,-90452.17766878312
1710985854678,-85421.9543632248
1710985854718,-85315.81394631183
1710985854758,-84725.04448065418
1710985854798,-80608.10554423649
1710985854838,-77301.3304202659
1710985854878,-77007.04915650235
1710985854918,-74648.02498690505
1710985854958,-71952.57055612374
1710985854998,-71952.57055612374
1710985855038,-71952.57055612374
1710985855078,-66449.8006683304
1710985855118,-56807.24062265898
1710985855158,-48345.90188011713
1710985855198,-41270.97195120109
1710985855238,-39462.94561620499
1710985855278,-39089.354927624576
1710985855318,-38604.41979761282
1710985855358,-34501.67539782962
1710985855398,-32042.821670371573
1710985855438,-30245.840619849972
1710985855478,-29238.119460261427
1710985855518,-24990.561109975446
1710985855558,-23237.34882115107
1710985855598,-22762.933559710626
1710985855638,-20342.211473645177
1710985855678,-19285.565461419756
1710985855718,-18192.803622047417
1710985855758,-18192.803622047417
1710985855798,-18192.803622047417
1710985855838,-8687.059016536688
1710985855878,-5194.831843512831
1710985855918,165.16242998256348
1710985855958,3201.359683141578
1710985855998,3712.6811114361044
1710985856038,6621.472399957245
1710985856078,7339.041967134224
1710985856118,9115.632114648353
1710985856158,9127.831198527943
1710985856198,9530.965222971281
1710985856238,9561.474946418777
1710985856278,9972.622712641722
1710985856318,11170.141890073195
1710985856358,12689.906114268117
1710985856398,13270.16450035153
1710985856438,13270.16450035153
1710985856478,13270.16450035153
1710985856518,12689.906114268117
1710985856558,11170.141890073195
1710985856598,10942.933775999583
1710985856638,10942.933775999583
1710985856678,11170.141890073195
1710985856718,12564.849695402198
1710985856758,12629.607403879287
1710985856798,12689.906114268117
1710985856838,16093.86586256465
1710985856878,16746.467601562385
1710985856918,17734.90607191529
1710985856958,18250.72010205267
1710985856998,19289.51996624237
1710985857038,19664.05963725294
1710985857078,21713.451417468255
1710985857118,23291.315521675162
1710985857158,23291.315521675162
1710985857198,23291.315521675162
1710985857238,20069.530145107303
1710985857278,19664.05963725294
1710985857318,19664.05963725294
1710985857358,19664.05963725294
1710985857398,19664.05963725294
1710985857438,19664.05963725294
1710985857478,19664.05963725294
1710985857518,19664.05963725294
1710985857558,20069.530145107303
1710985857598,21059.3347182367
1710985857638,21987.667668894865
1710985857678,22039.364559670445
1710985857718,22039.364559670445
1710985857758,22039.364559670445
1710985857798,22039.364559670445
1710985857838,22039.364559670445
1710985857878,22039.364559670445
1710985857918,22039.364559670445
1710985857958,22039.364559670445
1710985857998,21987.667668894865
1710985858038,21059.3347182367
1710985858078,21059.3347182367
1710985858118,21059.3347182367
1710985858158,21059.3347182367
1710985858198,21059.3347182367
1710985858238,21059.3347182367
1710985858278,21059.3347182367
1710985858318,21059.3347182367
1710985858358,21059.3347182367
1710985858398,21987.667668894865
1710985858438,22039.364559670445
1710985858478,22231.09164526686
1710985858518,22231.09164526686
1710985858558,22231.09164526686
1710985858598,22231.09164526686
1710985858638,22231.09164526686
1710985858678,22231.09164526686
1710985858718,22231.09164526686
1710985858758,22231.09164526686
1710985858798,20397.372905847616
1710985858838,20397.372905847616
1710985858878,20397.372905847616
1710985858918,21074.281603843672
1710985858958,23179.323065006174
1710985858998,23255.789857760537
1710985859038,23620.83105148794
1710985859078,24963.347712129354
1710985859118,26196.699405066203
1710985859158,26213.4777950719
1710985859198,27644.116754802875
1710985859238,29573.11764886789
1710985859278,29762.59059117362
1710985859318,30034.336636100896
1710985859358,30034.336636100896
1710985859398,30034.336636100896
1710985859438,30034.336636100896
1710985859478,30034.336636100896
1710985859518,29573.11764886789
1710985859558,29343.660616752924
1710985859598,29343.660616752924
1710985859638,29343.660616752924
1710985859678,29343.660616752924
1710985859718,29343.660616752924
1710985859758,29343.660616752924
1710985859798,29343.660616752924
1710985859838,29343.660616752924
1710985859878,29343.660616752924
1710985859918,29343.660616752924
1710985859958,22976.813409244176
1710985859998,22976.813409244176
1710985860038,22976.813409244176
1710985860078,22976.813409244176
1710985860118,22976.813409244176
1710985860158,22976.813409244176
1710985860198,22976.813409244176
1710985860238,22976.813409244176
1710985860278,21946.8164077471
1710985860318,20959.515800280264
1710985860358,19973.48591866996
1710985860398,19529.002113835188
1710985860438,18444.49654589966
1710985860478,18368.03305954556
1710985860518,18368.03305954556
1710985860558,18368.03305954556
1710985860598,18368.03305954556
1710985860638,18368.03305954556
1710985860678,14486.314015229
1710985860718,4832.407621345017
1710985860758,4832.407621345017
1710985860798,4832.407621345017
1710985860838,4832.407621345017
1710985860878,4832.407621345017
1710985860918,4832.407621345017
1710985860958,4832.407621345017
1710985860998,4832.407621345017
1710985861038,4832.407621345017
1710985861078,3760.0541077898815
1710985861118,2772.3169168874156
1710985861158,2732.5138559951447
1710985861198,2732.5138559951447
1710985861238,2732.5138559951447
1710985861278,2732.5138559951447
1710985861318,2332.426237602718
1710985861358,2134.5777939097025
1710985861398,1799.479668440763
1710985861438,1139.313410948962
1710985861478,-1521.4663700158708
1710985861518,-6564.1395346627105
1710985861558,-7440.813287428115
1710985861598,-7445.509111983236
1710985861638,-7445.509111983236
1710985861678,-7445.509111983236
1710985861718,-7445.509111983236
1710985861758,-7445.509111983236
1710985861798,-7445.509111983236
1710985861838,-7445.509111983236
1710985861878,-7445.509111983236
1710985861918,-9012.097567149438
1710985861958,-9012.097567149438
1710985861998,-8993.53796880995
1710985862038,-7445.509111983236
1710985862078,-7440.813287428115
1710985862118,-6564.1395346627105
1710985862158,-5326.31782195624
1710985862198,-5137.672217309475
1710985862239,-4977.248581548687
1710985862278,-1936.9582720850594
1710985862319,-462.60357572999783
1710985862359,-50.97251097811386
1710985862399,10.372918302426115
1710985862440,312.62267266213894
1710985862479,612.537312281318
1710985862519,790.2109743754845
1710985862559,790.2109743754845
1710985862600,612.537312281318
1710985862641,312.62267266213894
1710985862680,10.372918302426115
1710985862720,10.372918302426115
1710985862760,10.372918302426115
1710985862800,10.372918302426115
1710985862841,10.372918302426115
1710985862881,10.372918302426115
1710985862921,10.372918302426115
1710985862961,-50.97251097811386
1710985863001,-4397.493791018147
1710985863042,-8400.218635068275
1710985863081,-8400.218635068275
1710985863121,-8400.218635068275
1710985863161,-8400.218635068275
1710985863201,-8400.218635068275
1710985863242,-8400.218635068275
1710985863281,-8400.218635068275
1710985863322,-8400.218635068275
1710985863362,-8903.161007882794
1710985863402,-8940.754281924106
1710985863443,-9436.710631484631
1710985863482,-9436.710631484631
1710985863522,-9436.710631484631
1710985863562,-9436.710631484631
1710985863602,-9436.710631484631
1710985863643,-9436.710631484631
1710985863683,-9436.710631484631
1710985863723,-10909.455554774962
1710985863763,-10909.455554774962
1710985863803,-10909.455554774962
1710985863844,-10049.156051683705
1710985863883,-10049.156051683705
1710985863923,-10049.156051683705
1710985863963,-10049.156051683705
1710985864003,-10049.156051683705
1710985864044,-10049.156051683705
1710985864084,-10049.156051683705
1710985864124,-11496.442915305728
1710985864164,-11527.28796563088
1710985864204,-11837.520529065514
1710985864245,-11837.520529065514
1710985864284,-11837.520529065514
1710985864324,-11837.520529065514
1710985864364,-11837.520529065514
1710985864404,-11837.520529065514
1710985864445,-11837.520529065514
1710985864485,-12002.950023869518
1710985864525,-12002.950023869518
1710985864565,-11527.28796563088
1710985864605,-11527.28796563088
1710985864646,-11527.28796563088
1710985864685,-11527.28796563088
1710985864725,-11527.28796563088
1710985864765,-11527.28796563088
1710985864806,-11527.28796563088
1710985864847,-11527.28796563088
1710985864886,-11527.28796563088
1710985864926,-11527.28796563088
1710985864966,-12149.62783611822
1710985865006,-11488.612709413515
1710985865047,-10837.243767901324
1710985865086,-10553.936521720141
1710985865127,-8026.109804817475
1710985865167,-7598.7247297873255
1710985865207,-7483.971593758091
1710985865248,-5521.7183980182745
1710985865287,-4209.881293612998
1710985865327,-2418.4001859927084
1710985865367,-1884.7166729620658
1710985865408,-1114.7896065744571
1710985865448,-914.8201963696629
1710985865488,197.68316934653558
1710985865528,686.1211100933142
1710985865568,1446.182397402823
1710985865608,1446.182397402823
1710985865649,1446.182397402823
1710985865688,4268.68121121591
1710985865729,6759.486505601555
1710985865769,9648.549019559752
1710985865809,9895.291320940945
1710985865850,9980.62962000817
1710985865889,11965.019806761062
1710985865929,12001.293583559804
1710985865969,12363.268089914694
1710985866010,13610.838389090728
1710985866050,14649.195696517127
1710985866090,14773.738253816497
1710985866130,15589.1512496504
1710985866170,16125.190275957808
1710985866210,16289.21205646079
1710985866251,16397.368405514862
1710985866290,17742.709046273492
1710985866330,17742.709046273492
1710985866371,17742.709046273492
1710985866411,17742.709046273492
1710985866452,17430.481413501548
1710985866491,17430.481413501548
1710985866531,17430.481413501548
1710985866571,17430.481413501548
1710985866611,17742.709046273492
1710985866652,18224.437495052814
1710985866692,18921.833466513548
1710985866732,18921.833466513548
1710985866772,18921.833466513548
1710985866812,19108.663059048355
1710985866853,19275.43507685396
1710985866892,19844.178450790234
1710985866932,20958.78907159902
1710985866973,20958.78907159902
1710985867013,20958.78907159902
1710985867054,20958.78907159902
1710985867093,20958.78907159902
1710985867133,20958.78907159902
1710985867173,20958.78907159902
1710985867214,19844.178450790234
1710985867254,19108.663059048355
1710985867294,19108.663059048355
1710985867334,19108.663059048355
1710985867374,19108.663059048355
1710985867414,19108.663059048355
1710985867455,19108.663059048355
1710985867494,19108.663059048355
1710985867534,18913.756262041396
1710985867575,18910.941964876838
1710985867615,17375.786171869608
1710985867656,17156.366168908775
1710985867695,17156.366168908775
1710985867735,17156.366168908775
1710985867775,17156.366168908775
1710985867816,17156.366168908775
1710985867856,17156.366168908775
1710985867896,17156.366168908775
1710985867936,17156.366168908775
1710985867976,17156.366168908775
1710985868016,16323.961007202044
1710985868057,15782.601957394276
1710985868097,15782.601957394276
1710985868137,15782.601957394276
1710985868177,15782.601957394276
1710985868217,15782.601957394276
1710985868258,15782.601957394276
1710985868297,15782.601957394276
1710985868337,15782.601957394276
1710985868378,15782.601957394276
1710985868418,15782.601957394276
1710985868458,11888.141425331822
1710985868498,11308.611981307156
1710985868538,11308.611981307156
1710985868578,11308.611981307156
1710985868618,11308.611981307156
1710985868659,11308.611981307156
1710985868699,11308.611981307156
1710985868739,11308.611981307156
1710985868779,11308.611981307156
1710985868819,11102.454833279131
1710985868860,10124.365381970769
1710985868900,10023.134116771631
1710985868939,10023.134116771631
1710985868980,10023.134116771631
1710985869020,10023.134116771631
1710985869060,9941.962995389942
1710985869100,9869.214616613928
1710985869140,9264.32780817151
1710985869180,9035.801210721023
1710985869220,9035.801210721023
1710985869261,5107.984725186601
1710985869300,340.3031234112568
1710985869340,-383.4599870580714
1710985869381,-383.4599870580714
1710985869421,-383.4599870580714
1710985869461,-383.4599870580714
1710985869501,-383.4599870580714
1710985869541,-383.4599870580714
1710985869581,-383.4599870580714
1710985869621,-383.4599870580714
1710985869662,-383.4599870580714
1710985869701,-779.2132893439848
1710985869741,-898.1592732504942
1710985869781,-898.1592732504942
1710985869822,-898.1592732504942
1710985869863,-898.1592732504942
1710985869902,-1490.8837009484414
1710985869942,-1934.5477420648094
1710985869982,-2400.975467801094
1710985870022,-2400.975467801094
1710985870063,-2400.975467801094
1710985870102,-4366.012041517533
1710985870142,-8409.221926661674
1710985870182,-8409.221926661674
1710985870223,-8409.221926661674
1710985870263,-8409.221926661674
1710985870303,-8409.221926661674
1710985870343,-8409.221926661674
1710985870383,-8409.221926661674
1710985870423,-8409.221926661674
1710985870464,-8409.221926661674
1710985870503,-8409.221926661674
1710985870543,-8805.68338594865
1710985870584,-8805.68338594865
1710985870624,-8805.68338594865
1710985870665,-8805.68338594865
1710985870704,-8805.68338594865
1710985870744,-8805.68338594865
1710985870784,-8805.68338594865
1710985870824,-8805.68338594865
1710985870865,-8805.68338594865
1710985870905,-8805.68338594865
1710985870945,-8805.68338594865
1710985870985,-8805.68338594865
1710985871025,-8805.68338594865
1710985871066,-8805.68338594865
1710985871105,-8805.68338594865
1710985871145,-8805.68338594865
1710985871186,-8805.68338594865
1710985871225,-8805.68338594865
1710985871266,-8805.68338594865
1710985871306,-8805.68338594865
1710985871346,-8805.68338594865
1710985871386,-8414.453363481443
1710985871426,-6585.14770035632
1710985871467,-6585.14770035632
1710985871506,-6585.14770035632
1710985871547,-6585.14770035632
1710985871587,-6585.14770035632
1710985871627,-6585.14770035632
1710985871668,-6585.14770035632
1710985871707,-6585.14770035632
1710985871747,-6585.14770035632
1710985871787,-6585.14770035632
1710985871827,-6175.902130801696
1710985871868,-6138.8645879707765
1710985871908,-6138.8645879707765
1710985871948,-6138.8645879707765
1710985871988,-6138.8645879707765
1710985872028,-6138.8645879707765
1710985872069,-6138.8645879707765
1710985872108,-6138.8645879707765
1710985872149,-6138.8645879707765
1710985872189,-6138.8645879707765
1710985872229,-6138.8645879707765
1710985872270,-6138.8645879707765
1710985872309,-5359.503359514521
1710985872349,-5359.503359514521
1710985872390,-5359.503359514521
1710985872430,-5359.503359514521
1710985872471,-5359.503359514521
1710985872510,-5359.503359514521
1710985872550,-5152.714863592293
1710985872590,-4437.261794409249
1710985872631,-4366.421683700522
1710985872671,-4366.421683700522
1710985872711,-4176.818284393288
1710985872751,-3671.9128529597074
1710985872791,-3146.8792070986237
1710985872831,-1948.2671481706202
1710985872872,-1948.2671481706202
1710985872911,-1948.2671481706202
1710985872952,-1948.2671481706202
1710985872992,-1948.2671481706202
1710985873032,-1948.2671481706202
1710985873073,-1948.2671481706202
1710985873112,-1948.2671481706202
1710985873152,-1948.2671481706202
1710985873192,734.8828922680113
1710985873233,3365.548985154368
1710985873273,3365.548985154368
1710985873313,3365.548985154368
1710985873353,3365.548985154368
1710985873393,3365.548985154368
1710985873433,3365.548985154368
1710985873474,3365.548985154368
1710985873514,4017.181933931075
1710985873554,4518.551150771091
1710985873594,5408.121257131686
1710985873634,5584.669588829391
1710985873675,6038.7091257805005
1710985873715,6959.1851886103395
1710985873755,6959.1851886103395
1710985873795,6959.1851886103395
1710985873835,6959.1851886103395
1710985873876,6959.1851886103395
1710985873915,6959.1851886103395
1710985873956,6959.1851886103395
1710985873996,6959.1851886103395
1710985874036,6959.1851886103395
1710985874077,8474.768051659223
1710985874116,11183.180157044902
1710985874156,13772.190586166922
1710985874200,16310.650155704468
1710985874240,16310.650155704468
1710985874280,16337.736051967833
1710985874320,16649.640610845294
1710985874360,16649.640610845294
1710985874400,16649.640610845294
1710985874441,16649.640610845294
1710985874481,16649.640610845294
1710985874521,16649.640610845294
1710985874561,16649.640610845294
1710985874601,16649.640610845294
1710985874641,16649.640610845294
1710985874682,16420.78206546465
1710985874721,16420.78206546465
1710985874761,16420.78206546465
1710985874802,16420.78206546465
1710985874841,16420.78206546465
1710985874882,16420.78206546465
1710985874922,16420.78206546465
1710985874962,16310.650155704468
1710985875002,15940.544681204949
1710985875042,15933.46619745763
1710985875083,13752.054934273707
1710985875122,13689.869281054009
1710985875162,13620.983400424477
1710985875202,11916.960312463343
1710985875243,11665.792329748627
1710985875284,10486.527352439938
1710985875323,10486.527352439938
1710985875363,10486.527352439938
1710985875403,9057.919941470725
1710985875443,6608.567100945627
1710985875484,6315.699689628556
1710985875523,5846.252952829935
1710985875563,5416.046315670479
1710985875604,5249.777075612452
1710985875644,4082.7795778345317
1710985875685,4082.7795778345317
1710985875724,4082.7795778345317
1710985875764,3806.2008311543614
1710985875804,3703.954298972618
1710985875844,3270.7613892324734
1710985875885,3105.0220779818483
1710985875925,2651.885352253914
1710985875965,2303.4235137808137
1710985876005,1282.9809000820387
1710985876045,1081.484486161964
1710985876086,623.2721486121882
1710985876125,287.59616097342223
1710985876165,-188.5143429362215
1710985876205,-3074.8385899229906
1710985876246,-8840.660470453324
1710985876286,-11634.23019521311
1710985876326,-11634.23019521311
1710985876366,-11634.23019521311
1710985876406,-11634.23019521311
1710985876446,-11634.23019521311
1710985876487,-11634.23019521311
1710985876526,-11634.23019521311
1710985876566,-11634.23019521311
1710985876607,-11634.23019521311
1710985876647,-11634.23019521311
1710985876687,-12958.388097993564
1710985876727,-12958.388097993564
1710985876767,-12958.388097993564
1710985876807,-12958.388097993564
1710985876847,-12958.388097993564
1710985876888,-12958.388097993564
1710985876927,-12958.388097993564
1710985876968,-12958.388097993564
1710985877008,-12958.388097993564
1710985877048,-12958.388097993564
1710985877089,-13215.702762012137
1710985877128,-13478.801760664908
1710985877168,-13478.801760664908
1710985877209,-13478.801760664908
1710985877249,-13478.801760664908
1710985877289,-13478.801760664908
1710985877329,-13478.801760664908
1710985877369,-13478.801760664908
1710985877409,-13478.801760664908
1710985877449,-13478.801760664908
1710985877490,-14707.910234543495
1710985877530,-15317.586951124715
1710985877570,-15317.586951124715
1710985877610,-15317.586951124715
1710985877650,-15317.586951124715
1710985877691,-14936.777929695789
1710985877730,-14707.910234543495
1710985877770,-14686.704662478063
1710985877811,-14426.696985429153
1710985877851,-14272.19179022871
1710985877891,-14180.615740561392
1710985877931,-13478.801760664908
1710985877971,-12316.797656341689
1710985878011,-12316.797656341689
1710985878052,-12316.797656341689
1710985878092,-12316.797656341689
1710985878132,-12316.797656341689
1710985878172,-12316.797656341689
1710985878212,-12316.797656341689
1710985878252,-12316.797656341689
1710985878293,-12316.797656341689
1710985878332,-10143.095069229137
1710985878373,-7610.649960162584
1710985878413,-7274.989739569137
1710985878453,-7001.152685017791
1710985878494,-6322.911205450073
1710985878533,-4771.922007407295
1710985878573,-4599.277479248587
1710985878613,-3599.310410314938
1710985878654,-3249.6324481014162
1710985878694,-3239.189484153874
1710985878734,-3021.8158446061425
1710985878774,-2756.080724664964
1710985878814,-1623.789925799938
1710985878854,-896.256989619229
1710985878895,-896.256989619229
1710985878935,-896.256989619229
1710985878975,-896.256989619229
1710985879015,-896.256989619229
1710985879055,-1385.8711204493884
1710985879096,-1623.789925799938
1710985879136,-1623.789925799938
1710985879175,-1623.789925799938
1710985879216,-1623.789925799938
1710985879256,-1623.789925799938
1710985879297,-1623.789925799938
1710985879336,-1623.789925799938
1710985879376,-1623.789925799938
1710985879416,-1623.789925799938
1710985879457,-1623.789925799938
1710985879498,-3389.5523311491124
1710985879537,-3389.5523311491124
1710985879577,-3389.5523311491124
1710985879617,-3389.5523311491124
1710985879657,-3389.5523311491124
1710985879698,-3389.5523311491124
1710985879738,-3389.5523311491124
1710985879778,-3389.5523311491124
1710985879818,-3389.5523311491124
1710985879858,-3389.5523311491124
1710985879899,-4206.623071903363
1710985879938,-4206.623071903363
1710985879979,-4051.4555801688693
1710985880019,-3389.5523311491124
1710985880059,-1697.4040822880343
1710985880100,-1445.435240656836
1710985880139,-1254.9541305880994
1710985880179,-106.14498854870908
1710985880220,-101.46570292161778
1710985880259,-25.181265438441187
1710985880300,447.1709031856153
1710985880340,587.7710132112261
1710985880380,2031.0369921540841
1710985880420,2617.306877938565
1710985880460,2926.450129487086
1710985880501,2926.450129487086
1710985880540,2926.450129487086
1710985880580,2926.450129487086
1710985880620,2926.450129487086
1710985880660,3843.3073138915934
1710985880701,5645.402875496307
1710985880741,6103.969576528063
1710985880781,6707.92532005813
1710985880821,7246.175445974106
1710985880861,7670.164993345272
1710985880902,7900.635632358491
1710985880942,9870.41146420734
1710985880981,10061.629376264755
1710985881022,10592.398617227096
1710985881062,11671.08476646617
1710985881102,11774.163575643906
1710985881142,12380.6458630017
1710985881182,13265.36843692325
1710985881222,13971.301298447885
1710985881262,14145.65611116984
1710985881303,14699.377147169318
1710985881342,14699.377147169318
1710985881383,15525.18455238291
1710985881423,17710.756486999104
1710985881463,17727.969461460598
1710985881504,18396.423274240457
1710985881543,18685.731736570597
1710985881583,19322.12377044186
1710985881623,19665.413772372995
1710985881664,20780.09526825929
1710985881704,20780.09526825929
1710985881744,20821.06055724225
1710985881784,20864.994465684984
1710985881824,21292.96894311672
1710985881864,21312.295317193493
1710985881905,21465.749279769138
1710985881944,21575.26551595982
1710985881984,21575.26551595982
1710985882025,21575.26551595982
1710985882065,21575.26551595982
1710985882105,21465.749279769138
1710985882145,21312.295317193493
1710985882185,20864.994465684984
1710985882225,20864.994465684984
1710985882265,20864.994465684984
1710985882306,20864.994465684984
1710985882345,20864.994465684984
1710985882386,20864.994465684984
1710985882426,20780.09526825929
1710985882466,20554.613829559647
1710985882507,19379.980815878604
1710985882546,18446.47065867274
1710985882586,18446.47065867274
1710985882627,18446.47065867274
1710985882667,18446.47065867274
1710985882707,18446.47065867274
1710985882747,18446.47065867274
1710985882787,18446.47065867274
1710985882827,18308.956476680236
1710985882867,18147.843029215
1710985882908,18026.584697641898
1710985882948,17942.748465777375
1710985882988,17942.748465777375
1710985883028,17942.748465777375
1710985883068,17942.748465777375
1710985883109,17942.748465777375
1710985883148,17942.748465777375
1710985883189,17818.52482261602
1710985883229,17681.162543686572
1710985883269,13875.15468906681
1710985883310,13875.15468906681
1710985883349,13875.15468906681
1710985883389,13875.15468906681
1710985883429,13875.15468906681
1710985883470,13875.15468906681
1710985883510,13875.15468906681
1710985883550,13875.15468906681
1710985883590,13875.15468906681
1710985883630,13775.169265141943
1710985883670,13765.229644203093
1710985883711,13045.954310104717
1710985883751,13045.954310104717
1710985883791,13045.954310104717
1710985883831,13045.954310104717
1710985883871,13045.954310104717
1710985883912,13045.954310104717
1710985883952,13045.954310104717
1710985883992,13045.954310104717
1710985884032,13045.954310104717
1710985884072,10262.148495133966
1710985884113,8232.411193825537
1710985884152,8232.411193825537
1710985884193,8232.411193825537
1710985884233,8232.411193825537
1710985884273,8232.411193825537
1710985884314,8232.411193825537
1710985884353,7468.398373567732
1710985884393,7446.368446148466
1710985884434,6949.755976920482
1710985884473,6898.059773370624
1710985884514,6841.217341350159
1710985884554,6489.959620040143
1710985884594,4771.079893232323
1710985884634,4744.7444056302775
1710985884674,4328.254474113928
1710985884715,4210.124004567973
1710985884755,4058.914639128372
1710985884795,2162.8049585560802
1710985884835,-119.7014384297654
1710985884875,-220.33276716666296
1710985884916,-355.414320145268
1710985884955,-710.4772460935637
1710985884996,-774.4918162624817
1710985885036,-1024.935805646237
1710985885076,-1873.6493361396715
1710985885117,-2489.369699597126
1710985885156,-3418.7077527660877
1710985885196,-3448.6916830758564
1710985885237,-3553.2563460371457
1710985885277,-3630.929421604844
1710985885318,-3730.6002686209977
1710985885357,-3936.869480019901
1710985885397,-6311.401335261762
1710985885437,-13249.325804255204
1710985885478,-13249.325804255204
1710985885518,-13249.325804255204
1710985885558,-13249.325804255204
1710985885598,-13249.325804255204
1710985885638,-13249.325804255204
1710985885678,-15205.082934231032
1710985885719,-16291.270078910748
1710985885758,-17345.9579040166
1710985885798,-17639.811253205873
1710985885838,-20427.836772910552
1710985885879,-21398.607063182164
1710985885919,-21398.607063182164
1710985885959,-21398.607063182164
1710985885999,-21398.607063182164
1710985886039,-21398.607063182164
1710985886079,-21467.5019759445
1710985886120,-24214.141540376004
1710985886159,-24214.141540376004
1710985886199,-24214.141540376004
1710985886237,-24214.141540376004
1710985886277,-24214.141540376004
1710985886317,-24214.141540376004
1710985886357,-24214.141540376004
1710985886397,-24214.141540376004
1710985886437,-25507.479904960142
1710985886477,-27227.950096779736
1710985886518,-27575.040264948737
1710985886557,-27596.331794410013
1710985886598,-27575.040264948737
1710985886638,-27227.950096779736
1710985886678,-26665.09896210837
1710985886719,-25507.479904960142
1710985886758,-25176.603322891053
1710985886798,-24588.30533380015
1710985886838,-24450.966190556297
1710985886878,-23789.298781058285
1710985886919,-23629.624264694983
1710985886959,-23328.316249127034
1710985886999,-21850.692373166326
1710985887039,-21850.692373166326
1710985887079,-21850.692373166326
1710985887120,-21850.692373166326
1710985887159,-21850.692373166326
1710985887199,-21850.692373166326
1710985887239,-18896.781692171702
1710985887280,-17486.475500945468
1710985887321,-17438.917693083407
1710985887360,-17291.600539973006
1710985887400,-15933.232987019699
1710985887440,-14883.858395573217
1710985887480,-14209.12708176719
1710985887521,-13831.12343524117
1710985887561,-13139.731613923563
1710985887600,-12335.125874273479
1710985887641,-11836.786092235707
1710985887681,-11060.345846969634
1710985887722,-10892.022983388044
1710985887761,-9740.734717987478
1710985887801,-9347.74769568583
1710985887841,-9347.74769568583
1710985887881,-9347.74769568583
1710985887922,-9347.74769568583
1710985887962,-7765.650010362035
1710985888002,-5132.919114774559
1710985888042,-3242.7216231548227
1710985888082,-3210.1155704336707
1710985888123,-3198.6500053852797
1710985888162,-2789.0226504001766
1710985888202,-1252.7885820199735
1710985888243,-761.2488504457287
1710985888283,-541.1258736387827
1710985888324,725.0793533117976
1710985888363,1151.90779073257
1710985888403,1221.6960321606603
1710985888443,1711.5714338384569
1710985888483,1944.3825851557776
1710985888524,3095.3040829855017
1710985888564,3178.952487429604
1710985888604,3178.952487429604
1710985888644,3178.952487429604
1710985888684,3178.952487429604
1710985888725,4896.554721847642
1710985888764,6913.40953284991
1710985888804,8679.438820066396
1710985888845,8967.36075202236
1710985888885,9107.875568186864
1710985888926,9121.18557121465
1710985888965,10836.001105003525
1710985889005,10900.891358479159
1710985889045,11139.41899935389
1710985889086,11655.800966795767
1710985889126,11802.800694952952
1710985889166,12123.664365961682
1710985889206,12215.874164107256
1710985889246,12384.513845679583
1710985889286,13053.756145889405
1710985889327,14290.54147715657
1710985889367,14290.54147715657
1710985889407,14290.54147715657
1710985889447,14290.54147715657
1710985889487,14290.54147715657
1710985889528,14290.54147715657
1710985889567,15510.17597872112
1710985889608,16986.082553073764
1710985889648,17755.4682607851
1710985889688,18095.23992160242
1710985889729,18179.657857754733
1710985889768,18280.96770912106
1710985889808,19559.556399140973
1710985889849,19619.992072851863
1710985889889,19893.860023498535
1710985889930,20322.612410862697
1710985889969,21580.49960618955
1710985890009,21660.656134645455
1710985890049,21710.396040968597
1710985890090,22097.366213239264
1710985890130,22387.93531977106
1710985890170,22688.837984776124
1710985890210,22688.837984776124
1710985890250,22688.837984776124
1710985890290,22688.837984776124
1710985890331,22688.837984776124
1710985890371,23416.79408061318
1710985890411,24413.22575123934
1710985890451,24413.22575123934
1710985890491,24413.22575123934
1710985890532,24413.22575123934
1710985890572,24413.22575123934
1710985890612,24489.367471507285
1710985890652,24701.034979636315
1710985890692,24701.034979636315
1710985890733,24701.034979636315
1710985890772,24883.33533142414
1710985890813,25150.047260285355
1710985890853,25250.13762370916
1710985890893,25250.13762370916
1710985890934,25250.13762370916
1710985890973,25250.13762370916
1710985891013,25250.13762370916
1710985891054,25250.13762370916
1710985891093,25250.13762370916
1710985891134,25250.13762370916
1710985891174,25250.13762370916
1710985891214,25150.047260285355
1710985891254,24883.33533142414
1710985891294,24883.33533142414
1710985891335,24883.33533142414
1710985891374,24883.33533142414
1710985891415,24883.33533142414
1710985891454,24883.33533142414
1710985891495,24883.33533142414
1710985891535,24883.33533142414
1710985891575,24883.33533142414
1710985891615,21500.048662522808
1710985891655,18225.829648951767
1710985891695,16003.926776470616
1710985891736,15965.456222917186
1710985891776,15066.614515660098
1710985891815,14565.240105907433
1710985891856,13789.471694285283
1710985891896,12497.052033286076
1710985891937,11254.862709138077
1710985891976,10961.474125783192
1710985892016,10870.027234891662
1710985892056,10627.921514555346
1710985892096,10463.218745218124
1710985892137,10198.241271671839
1710985892177,9871.173706964822
1710985892217,9497.354634910822
1710985892257,9153.672985233366
1710985892297,8967.571985326475
1710985892338,8805.964531946927
1710985892377,8574.708329874557
1710985892417,2962.8307512786705
1710985892457,-3586.9405544907786
1710985892498,-5496.516787771136
1710985892538,-5501.673814665526
1710985892578,-5648.156807868276
1710985892618,-5703.244248682167
1710985892658,-5703.244248682167
1710985892698,-5703.244248682167
1710985892739,-5703.244248682167
1710985892778,-5703.244248682167
1710985892818,-6356.316872773692
1710985892859,-6429.966616514372
1710985892899,-6462.94571830146
1710985892940,-6462.94571830146
1710985892979,-6462.94571830146
1710985893019,-6462.94571830146
1710985893059,-6538.517584646121
1710985893099,-6826.540453994647
1710985893140,-7601.17868528259
1710985893180,-7689.2152032121085
1710985893220,-7711.367602355313
1710985893260,-14332.393143632915
1710985893300,-15512.510904873721
1710985893341,-15512.510904873721
1710985893380,-15512.510904873721
1710985893420,-15512.510904873721
1710985893461,-15512.510904873721
1710985893501,-15512.510904873721
1710985893541,-15512.510904873721
1710985893581,-15512.510904873721
1710985893621,-15512.510904873721
1710985893661,-15651.954718198627
1710985893701,-15866.497984314337
1710985893742,-15866.497984314337
1710985893781,-15866.497984314337
1710985893822,-15866.497984314337
1710985893862,-15866.497984314337
1710985893902,-15866.497984314337
1710985893943,-16302.596770975273
1710985893982,-16472.755586358486
1710985894022,-16472.755586358486
1710985894063,-17733.682717945427
1710985894103,-17733.682717945427
1710985894143,-17733.682717945427
1710985894183,-17733.682717945427
1710985894223,-17733.682717945427
1710985894263,-17733.682717945427
1710985894303,-17733.682717945427
1710985894344,-17733.682717945427
1710985894383,-17733.682717945427
1710985894424,-19573.70452634152
1710985894464,-20277.65734991501
1710985894504,-19767.752276577987
1710985894545,-19573.70452634152
1710985894584,-17733.682717945427
1710985894624,-17478.999764229404
1710985894665,-16517.223659166368
1710985894705,-15691.393012123182
1710985894745,-15568.322773204185
1710985894785,-15567.711580230389
1710985894825,-15188.875005946262
1710985894865,-14510.905726258643
1710985894905,-14385.655340133933
1710985894946,-13845.002025309717
1710985894985,-13845.002025309717
1710985895026,-13845.002025309717
1710985895066,-13845.002025309717
1710985895106,-13845.002025309717
1710985895147,-14385.655340133933
1710985895186,-14510.905726258643
1710985895226,-14510.905726258643
1710985895267,-14510.905726258643
1710985895307,-14385.655340133933
1710985895348,-13845.002025309717
1710985895387,-12382.20978497155
1710985895427,-11945.62216289388
1710985895467,-11830.236760539468
1710985895508,-11808.273400491104
1710985895548,-11487.711711334065
1710985895588,-11416.436187691987
1710985895628,-11008.557403314393
1710985895668,-9946.164449335076
1710985895708,-9946.164449335076
1710985895749,-9946.164449335076
1710985895788,-9946.164449335076
1710985895829,-9946.164449335076
1710985895869,-9946.164449335076
1710985895909,-11008.557403314393
1710985895950,-10397.367597189732
1710985895989,-9946.164449335076
1710985896029,-9105.051198748406
1710985896070,-8677.893117343308
1710985896110,-8501.43682790501
1710985896151,-6937.084289260674
1710985896190,-5613.810601707082
1710985896230,-5067.852391021792
1710985896271,-5031.526561015286
1710985896311,-4901.973049520748
1710985896352,-4781.221607401269
1710985896391,-3872.871796523221
1710985896431,-3474.8950912482105
1710985896471,-2409.2737885934766
1710985896511,-2409.2737885934766
1710985896552,-2409.2737885934766
1710985896592,-2409.2737885934766
1710985896632,-2433.834398770705
1710985896672,-2409.2737885934766
1710985896712,-1649.8649611771107
1710985896753,-1516.2696702056564
1710985896792,-635.1554421898909
1710985896832,-273.29052816168405
1710985896872,1186.6109623680823
1710985896912,1848.3650372680277
1710985896953,1977.8328542411327
1710985896992,2175.211669696495
1710985897033,2190.078672703821
1710985897073,2251.2462318078615
1710985897113,2588.819595477078
1710985897154,3505.4065359863453
1710985897193,3505.4065359863453
1710985897233,3505.4065359863453
1710985897273,3505.4065359863453
1710985897314,2588.819595477078
1710985897354,2251.2462318078615
1710985897394,2251.2462318078615
1710985897434,2251.2462318078615
1710985897474,2251.2462318078615
1710985897514,2588.819595477078
1710985897555,2783.6402723859064
1710985897594,2783.6402723859064
1710985897634,2783.6402723859064
1710985897675,3086.295825228095
1710985897715,3361.0338717540726
1710985897755,3505.4065359863453
1710985897795,4486.677003989229
1710985897835,4486.677003989229
1710985897875,4486.677003989229
1710985897915,4486.677003989229
1710985897956,4486.677003989229
1710985897996,4486.677003989229
1710985898036,3361.0338717540726
1710985898076,3086.295825228095
1710985898116,2783.6402723859064
1710985898157,2783.6402723859064
1710985898196,2783.6402723859064
1710985898236,2783.6402723859064
1710985898276,2783.6402723859064
1710985898316,2783.6402723859064
1710985898357,1974.5519381430931
1710985898397,1907.573647171259
1710985898437,232.18494961899705
1710985898477,-1949.8575703795068
1710985898517,-1949.8575703795068
1710985898558,-1949.8575703795068
1710985898597,-1949.8575703795068
1710985898638,-1949.8575703795068
1710985898678,-1949.8575703795068
1710985898718,-1949.8575703795068
1710985898759,-1949.8575703795068
1710985898798,-3414.7718706761952
1710985898838,-3786.0956495509017
1710985898878,-3933.356951661175
1710985898918,-4066.616924726637
1710985898959,-4066.616924726637
1710985898999,-4066.616924726637
1710985899039,-4066.616924726637
1710985899079,-4411.422800524626
1710985899119,-4495.727241049521
1710985899160,-5346.593937918544
1710985899199,-6058.697407811414
1710985899239,-6645.738043935038
1710985899280,-6645.738043935038
1710985899320,-6645.738043935038
1710985899361,-6645.738043935038
1710985899400,-6645.738043935038
1710985899440,-6645.738043935038
1710985899480,-6645.738043935038
1710985899520,-6645.738043935038
1710985899561,-6645.738043935038
1710985899601,-7902.773863774259
1710985899641,-8566.67212357279
1710985899681,-8566.67212357279
1710985899721,-8566.67212357279
1710985899762,-8566.67212357279
1710985899801,-8566.67212357279
1710985899841,-8566.67212357279
1710985899881,-8566.67212357279
1710985899922,-8566.67212357279
1710985899963,-8566.67212357279
1710985900002,-8566.67212357279
1710985900042,-8566.67212357279
1710985900082,-8566.67212357279
1710985900122,-8566.67212357279
1710985900163,-8566.67212357279
1710985900203,-8566.67212357279
1710985900243,-8566.67212357279
1710985900283,-8566.67212357279
1710985900323,-8566.67212357279
1710985900364,-8566.67212357279
1710985900403,-9461.170437254943
1710985900443,-10107.529240314849
1710985900483,-10107.529240314849
1710985900524,-10107.529240314849
1710985900565,-10107.529240314849
1710985900604,-9461.170437254943
1710985900644,-9207.57589199394
1710985900684,-9207.57589199394
1710985900724,-9176.123453663895
1710985900765,-9163.019694249379
1710985900805,-8281.01562606101
1710985900845,-7625.205118707847
1710985900885,-6763.3969270370435
1710985900925,-6763.3969270370435
1710985900966,-6763.3969270370435
1710985901005,-6763.3969270370435
1710985901046,-6763.3969270370435
1710985901086,-6763.3969270370435
1710985901126,-6763.3969270370435
1710985901167,-8281.01562606101
1710985901206,-9163.019694249379
1710985901246,-9163.019694249379
1710985901286,-9163.019694249379
1710985901326,-9163.019694249379
1710985901367,-9163.019694249379
1710985901407,-9163.019694249379
1710985901447,-9163.019694249379
1710985901487,-9163.019694249379
1710985901527,-9163.019694249379
1710985901568,-8433.7784597727
1710985901608,-8433.7784597727
1710985901648,-8433.7784597727
1710985901688,-8433.7784597727
1710985901728,-8433.7784597727
1710985901769,-8433.7784597727
1710985901808,-8433.7784597727
1710985901848,-8433.7784597727
1710985901889,-8433.7784597727
1710985901929,-8433.7784597727
1710985901970,-8433.7784597727
1710985902009,-8433.7784597727
1710985902049,-8433.7784597727
1710985902089,-8433.7784597727
1710985902130,-7037.314502923749
1710985902170,-6833.17828911473
1710985902210,-5881.426385312807
1710985902250,-5786.253034531139
1710985902290,-5786.253034531139
1710985902330,-5544.48168669641
1710985902371,-5499.4661473874
1710985902410,-4250.100518430583
1710985902450,-3759.1044832821935
1710985902491,-2368.2533432845958
1710985902531,-2368.2533432845958
1710985902571,-2368.2533432845958
1710985902611,-2368.2533432845958
1710985902651,-2368.2533432845958
1710985902691,-2368.2533432845958
1710985902731,-2368.2533432845958
1710985902772,-2368.2533432845958
1710985902811,-257.3932834281586
1710985902852,-257.3932834281586
1710985902891,201.16660718945786
1710985902932,1410.3016436600592
1710985902973,1696.749924712116
1710985903012,2235.711452527903
1710985903052,3252.840636260342
1710985903092,3678.964597903192
1710985903132,3681.622426778078
1710985903173,3929.4509111768566
1710985903212,3999.4347061761655
1710985903253,4314.772734305821
1710985903293,4967.731139987474
1710985903333,5870.501023698598
1710985903374,5870.501023698598
1710985903413,5870.501023698598
1710985903453,5870.501023698598
1710985903493,5870.501023698598
1710985903533,5870.501023698598
1710985903574,5870.501023698598
1710985903614,6288.089172872715
1710985903654,6288.089172872715
1710985903694,6288.089172872715
1710985903734,6288.089172872715
1710985903775,6772.073023429373
1710985903814,7211.035980550572
1710985903854,7315.190208359389
1710985903894,7315.190208359389
1710985903935,7315.190208359389
1710985903975,7696.200645206729
1710985904015,7921.60095519782
1710985904055,8767.759191930527
1710985904095,9005.118430921808
1710985904135,9020.040297135245
1710985904176,9020.040297135245
1710985904215,9020.040297135245
1710985904255,9020.040297135245
1710985904296,9020.040297135245
1710985904336,9020.040297135245
1710985904376,9020.040297135245
1710985904416,8767.759191930527
1710985904456,8175.542819779599
1710985904496,8175.542819779599
1710985904536,8175.542819779599
1710985904577,8175.542819779599
1710985904617,8175.542819779599
1710985904657,8175.542819779599
1710985904697,8175.542819779599
1710985904737,8175.542819779599
1710985904778,8175.542819779599
1710985904817,8175.542819779599
1710985904857,6256.364456085954
1710985904898,6256.364456085954
1710985904938,6256.364456085954
1710985904978,6256.364456085954
1710985905018,6256.364456085954
1710985905058,6256.364456085954
1710985905098,6256.364456085954
1710985905138,6256.364456085954
1710985905179,6256.364456085954
1710985905218,5864.641150680836
1710985905259,5075.933254651725
1710985905299,5075.933254651725
1710985905342,5075.933254651725
1710985905380,5075.933254651725
1710985905419,5075.933254651725
1710985905459,5075.933254651725
1710985905500,5075.933254651725
1710985905539,5075.933254651725
1710985905580,5075.933254651725
1710985905620,5075.933254651725
1710985905660,4565.642902648309
1710985905700,4565.642902648309
1710985905740,4565.642902648309
1710985905781,4565.642902648309
1710985905820,4565.642902648309
1710985905861,4565.642902648309
1710985905901,4565.642902648309
1710985905941,4565.642902648309
1710985905982,4565.642902648309
1710985906021,4565.642902648309
1710985906061,2971.503250411246
1710985906102,2971.503250411246
1710985906141,2971.503250411246
1710985906182,2971.503250411246
1710985906222,2971.503250411246
1710985906262,2971.503250411246
1710985906302,2971.503250411246
1710985906342,2971.503250411246
1710985906383,2971.503250411246
1710985906422,2971.503250411246
1710985906463,2799.8722418826073
1710985906503,2799.8722418826073
1710985906543,2799.8722418826073
1710985906584,2799.8722418826073
1710985906623,2799.8722418826073
1710985906663,2799.8722418826073
1710985906704,2799.8722418826073
1710985906744,2799.8722418826073
1710985906785,2799.8722418826073
1710985906824,2799.8722418826073
1710985906864,2799.8722418826073
1710985906904,3320.677321112249
1710985906945,9886.58605162683
1710985906985,12968.250158568379
1710985907025,15251.268133953447
1710985907065,15251.268133953447
1710985907105,15251.268133953447
1710985907145,15251.268133953447
1710985907186,15251.268133953447
1710985907226,15251.268133953447
1710985907266,15251.268133953447
1710985907306,15251.268133953447
1710985907346,15251.268133953447
1710985907387,15251.268133953447
1710985907427,15251.268133953447
1710985907467,12847.282683844678
1710985907507,12086.526354051195
1710985907550,10589.413687886205
1710985907588,9403.363806216279
1710985907627,8970.95407518791
1710985907668,7932.936337486375
1710985907708,6601.414646879304
1710985907748,6223.981146545848
1710985907789,6076.812427795259
1710985907828,5807.5648985463195
1710985907868,5641.732932673767
1710985907908,5074.053533749189
1710985907948,1610.1593138161115
1710985907989,-116.44097519479692
1710985908029,-116.44097519479692
1710985908069,-116.44097519479692
1710985908109,-116.44097519479692
1710985908149,-116.44097519479692
1710985908190,-116.44097519479692
1710985908229,-116.44097519479692
1710985908269,-631.8844387289137
1710985908309,-1533.6107329209335
1710985908349,-1675.06419555936
1710985908390,-3584.642534322571
1710985908430,-3584.642534322571
1710985908470,-3584.642534322571
1710985908510,-3584.642534322571
1710985908550,-3714.155761094298
1710985908591,-5468.836173468735
1710985908630,-5830.605360684916
1710985908670,-6410.008637272753
1710985908711,-6410.008637272753
1710985908751,-6062.2423988771625
1710985908791,-6062.2423988771625
1710985908831,-6062.2423988771625
1710985908871,-6062.2423988771625
1710985908911,-6062.2423988771625
1710985908951,-6062.2423988771625
1710985908992,-8147.1938668903895
1710985909031,-8618.17537048203
1710985909071,-9885.180245142663
1710985909112,-10401.32530736411
1710985909152,-11036.072607062757
1710985909193,-11036.072607062757
1710985909232,-11036.072607062757
1710985909272,-11036.072607062757
1710985909312,-11036.072607062757
1710985909352,-11036.072607062757
1710985909393,-11036.072607062757
1710985909432,-11800.706075282302
1710985909473,-11800.706075282302
1710985909513,-11800.706075282302
1710985909553,-11800.706075282302
1710985909594,-11800.706075282302
1710985909633,-11800.706075282302
1710985909673,-11800.706075282302
1710985909713,-12724.380323324818
1710985909756,-13314.898006142117
1710985909794,-13606.650037128944
1710985909834,-13712.585790040437
1710985909874,-14205.908469943795
1710985909914,-14205.908469943795
1710985909954,-14205.908469943795
1710985909995,-14205.908469943795
1710985910034,-14345.358618109254
1710985910074,-14499.546850830782
1710985910115,-17909.540093730902
1710985910155,-17909.540093730902
1710985910196,-17909.540093730902
1710985910235,-17909.540093730902
1710985910275,-17909.540093730902
1710985910315,-17909.540093730902
1710985910355,-17909.540093730902
1710985910396,-17909.540093730902
1710985910436,-19615.388843497727
1710985910476,-21166.3171623738
1710985910516,-21589.409280332038
1710985910556,-21763.24644714594
1710985910597,-21737.685705194715
1710985910636,-21589.409280332038
1710985910677,-21166.3171623738
1710985910717,-20259.83826885908
1710985910757,-20146.885037107393
1710985910798,-20102.543049474247
1710985910837,-19778.120572228916
1710985910877,-19615.388843497727
1710985910917,-18361.69004733255
1710985910957,-17420.2277167195
1710985910998,-16913.00101016159
1710985911038,-16913.00101016159
1710985911078,-16913.00101016159
1710985911118,-16913.00101016159
1710985911158,-18361.69004733255
1710985911199,-18532.98239825014
1710985911238,-18532.98239825014
1710985911279,-18361.69004733255
1710985911319,-17472.732112850295
1710985911359,-16151.328203688841
1710985911400,-15624.739288806915
1710985911439,-15161.1147432141
1710985911479,-13947.895420893095
1710985911519,-13639.653591900831
1710985911559,-13367.116512464825
1710985911600,-13231.111480538966
1710985911640,-13091.152207194595
1710985911680,-11749.334876458859
1710985911720,-11623.636087182676
1710985911760,-10897.562793620396
1710985911801,-10897.562793620396
1710985911840,-11749.334876458859
1710985911881,-13091.152207194595
1710985911921,-13091.152207194595
1710985911961,-12420.924987731967
1710985912002,-11749.334876458859
1710985912041,-10078.901929421118
1710985912081,-9933.397700245026
1710985912121,-9805.245640164707
1710985912161,-7929.382807143964
1710985912202,-7767.221672573127
1710985912242,-6960.636335706338
1710985912282,-6670.219624108169
1710985912322,-6076.967790192692
1710985912362,-5153.547579778824
1710985912403,-5068.077471063007
1710985912442,-4431.804187935311
1710985912483,-4431.804187935311
1710985912523,-5068.077471063007
1710985912563,-5437.006126904162
1710985912604,-5437.006126904162
1710985912643,-5395.07276397408
1710985912683,-4431.804187935311
1710985912724,-3478.447304267902
1710985912763,-2860.5961167304777
1710985912804,-2353.189232857898
1710985912844,-1393.8949238166679
1710985912884,-754.015214312356
1710985912924,-429.65568895149045
1710985912964,-161.61377392010763
1710985913005,469.93357190839015
1710985913044,1115.4126672826242
1710985913085,2000.6744154766202
1710985913125,2387.9529806307983
1710985913165,2387.9529806307983
1710985913206,2387.9529806307983
1710985913245,1342.2764819944277
1710985913285,1342.2764819944277
1710985913326,1359.3240647858474
1710985913366,2387.9529806307983
1710985913407,2975.594607682433
1710985913446,3229.199342554901
1710985913486,4530.331434304826
1710985913526,4563.113169315504
1710985913567,4901.377485301578
1710985913607,4937.716233913321
1710985913647,5413.66701181652
1710985913687,5480.842986955307
1710985913727,6080.25596126914
1710985913767,6927.931410095422
1710985913808,7140.968220857205
1710985913847,7140.968220857205
1710985913887,7140.968220857205
1710985913927,6080.25596126914
1710985913967,5480.842986955307
1710985914008,5413.66701181652
1710985914048,5413.66701181652
1710985914088,5480.842986955307
1710985914128,6080.25596126914
1710985914168,6261.359562695026
1710985914209,6261.359562695026
1710985914248,6543.716904905392
1710985914288,6610.883461638354
1710985914329,6851.688458644319
1710985914369,7738.048626650358
1710985914410,8039.011027912842
1710985914449,8279.629466403974
1710985914489,8279.629466403974
1710985914529,8279.629466403974
1710985914569,8279.629466403974
1710985914610,8279.629466403974
1710985914649,7738.048626650358
1710985914689,6851.688458644319
1710985914730,6610.883461638354
1710985914770,6610.883461638354
1710985914811,6610.883461638354
1710985914850,6663.725599498255
1710985914890,6792.982687296346
1710985914930,6792.982687296346
1710985914970,6663.725599498255
1710985915011,6792.982687296346
1710985915051,7457.1380813149735
1710985915091,7738.048626650358
1710985915131,8575.62352689961
1710985915171,8575.62352689961
1710985915212,8575.62352689961
1710985915251,8575.62352689961
1710985915291,8575.62352689961
1710985915331,8575.62352689961
1710985915372,8575.62352689961
1710985915412,7457.1380813149735
1710985915452,6792.982687296346
1710985915492,6792.982687296346
1710985915532,6792.982687296346
1710985915572,6792.982687296346
1710985915613,6792.982687296346
1710985915652,6792.982687296346
1710985915692,6792.982687296346
1710985915733,6425.995590815321
1710985915772,6420.188924271148
1710985915813,7457.1380813149735
1710985915853,7526.102880073246
1710985915893,7526.102880073246
1710985915933,7526.102880073246
1710985915973,7526.102880073246
1710985916014,7526.102880073246
1710985916053,7526.102880073246
1710985916094,7526.102880073246
1710985916134,7526.102880073246
1710985916174,6360.286526154494
1710985916215,6201.83695170912
1710985916254,6201.83695170912
1710985916294,6201.83695170912
1710985916334,6201.83695170912
1710985916375,6201.83695170912
1710985916415,6201.83695170912
1710985916455,6045.2884641077835
1710985916495,6000.18294149451
1710985916535,6045.2884641077835
1710985916575,6452.179413469741
1710985916616,7526.102880073246
1710985916655,7785.706492804922
1710985916696,7785.706492804922
1710985916736,7785.706492804922
1710985916776,7785.706492804922
1710985916817,7785.706492804922
1710985916856,7103.779532506596
1710985916896,6452.179413469741
1710985916937,5884.255710168742
1710985916977,5626.621553431265
1710985917017,5626.621553431265
1710985917057,5626.621553431265
1710985917097,5626.621553431265
1710985917137,5626.621553431265
1710985917178,5626.621553431265
1710985917218,5401.142994420137
1710985917258,5140.59410347743
1710985917298,1162.6410599718802
1710985917338,346.5681081279181
1710985917378,346.5681081279181
1710985917419,346.5681081279181
1710985917458,346.5681081279181
1710985917499,346.5681081279181
1710985917539,346.5681081279181
1710985917579,346.5681081279181
1710985917620,-576.7652121256106
1710985917659,-787.0494990909938
1710985917699,-983.2175860989373
1710985917740,-1136.8244949970394
1710985917780,-1136.8244949970394
1710985917821,-1136.8244949970394
1710985917860,-1136.8244949970394
1710985917900,-1136.8244949970394
1710985917940,-1691.680944247637
1710985917980,-1698.8647925555706
1710985918021,-1746.0430762765463
1710985918061,-7012.87884830893
1710985918101,-7674.404934929451
1710985918141,-7674.404934929451
1710985918181,-7674.404934929451
1710985918222,-7674.404934929451
1710985918262,-7674.404934929451
1710985918302,-7674.404934929451
1710985918342,-7674.404934929451
1710985918382,-7674.404934929451
1710985918423,-7674.404934929451
1710985918462,-9361.932375165867
1710985918502,-9577.59742535511
1710985918542,-9577.59742535511
1710985918583,-9577.59742535511
1710985918624,-9577.59742535511
1710985918663,-9577.59742535511
1710985918703,-9682.335076001007
1710985918743,-10267.71916724369
1710985918783,-10267.71916724369
1710985918824,-10267.71916724369
1710985918864,-9682.335076001007
1710985918904,-8963.263085662387
1710985918944,-8963.263085662387
1710985918984,-8963.263085662387
1710985919025,-8963.263085662387
1710985919065,-8963.263085662387
1710985919105,-8963.263085662387
1710985919145,-8963.263085662387
1710985919185,-8963.263085662387
1710985919226,-10933.174470276572
1710985919265,-12259.344460987952
1710985919305,-12587.38804305764
1710985919345,-12587.38804305764
1710985919385,-11377.942828059662
1710985919426,-10933.174470276572
1710985919466,-10933.174470276572
1710985919506,-10933.174470276572
1710985919546,-10556.005811264273
1710985919586,-10554.499339052942
1710985919627,-8963.263085662387
1710985919666,-8670.859644996934
1710985919706,-7652.342640917748
1710985919746,-7652.342640917748
1710985919786,-7652.342640917748
1710985919827,-7652.342640917748
1710985919867,-7652.342640917748
1710985919907,-7652.342640917748
1710985919947,-7652.342640917748
1710985919987,-7652.342640917748
1710985920028,-7243.308149658609
1710985920067,-6529.334609806538
1710985920107,-6485.577633858658
1710985920147,-5670.885043217801
1710985920188,-5309.503792584408
1710985920228,-4960.8846049504355
1710985920268,-3440.847411374096
1710985920308,-3411.3823062470183
1710985920348,-2364.210808076896
1710985920388,-2186.369564926019
1710985920429,-1961.8409715727903
1710985920468,-1708.043021098245
1710985920508,-1703.0175914815627
1710985920549,-1635.2263952922076
1710985920589,-198.29118271637708
1710985920629,-198.29118271637708
1710985920669,-198.29118271637708
1710985920709,-198.29118271637708
1710985920749,-198.29118271637708
1710985920789,-198.29118271637708
1710985920830,429.3976045809686
1710985920870,951.6689593885094
1710985920910,1198.4975089200307
1710985920950,1367.4106243145652
1710985920990,3100.4285827449057
1710985921031,3447.080682413187
1710985921070,4308.552606902318
1710985921110,4760.343537842389
1710985921151,4896.0574458292685
1710985921190,5020.0009226766415
1710985921231,5070.8378286897205
1710985921271,5616.712186879944
1710985921311,6395.409169443883
1710985921351,7318.102968937485
1710985921391,7762.768579920055
1710985921432,7762.768579920055
1710985921471,6796.084227428539
1710985921512,6395.409169443883
1710985921552,5070.8378286897205
1710985921592,5070.8378286897205
1710985921633,5070.8378286897205
1710985921672,5070.8378286897205
1710985921712,5374.131746084429
1710985921752,5374.131746084429
1710985921792,5374.131746084429
1710985921833,5374.131746084429
1710985921873,5622.467543990817
1710985921913,6395.409169443883
1710985921953,6796.084227428539
1710985921993,6796.084227428539
1710985922034,6796.084227428539
1710985922073,6796.084227428539
1710985922114,6796.084227428539
1710985922154,6796.084227428539
1710985922194,5622.467543990817
1710985922235,5374.131746084429
1710985922274,4796.551819826011
1710985922314,4657.492571345065
1710985922350,4657.492571345065
1710985922390,4657.492571345065
1710985922431,4657.492571345065
1710985922471,4657.492571345065
1710985922511,4246.828346705064
1710985922551,3947.0313084064983
1710985922591,3174.322417875286
1710985922632,3174.322417875286
1710985922671,3174.322417875286
1710985922711,3174.322417875286
1710985922752,3174.322417875286
1710985922792,3174.322417875286
1710985922833,3174.322417875286
1710985922872,3174.322417875286
1710985922912,2776.801139792893
1710985922952,1625.921169680776
1710985922992,1568.5765951161738
1710985923033,1558.5119773002807
1710985923073,1558.5119773002807
1710985923113,1558.5119773002807
1710985923153,1568.5765951161738
1710985923193,1625.921169680776
1710985923234,1759.5048018302768
1710985923273,1832.0651155239902
1710985923314,2463.4603370442055
1710985923354,2776.801139792893
1710985923394,3355.9496827761177
1710985923435,4188.34595473879
1710985923474,4702.83872366976
1710985923514,4702.83872366976
1710985923554,4702.83872366976
1710985923594,4702.83872366976
1710985923635,3633.4066350278445
1710985923675,3355.9496827761177
1710985923715,2463.4603370442055
1710985923755,2812.7439891851973
1710985923795,3355.9496827761177
1710985923836,3633.4066350278445
1710985923876,4029.6619067098945
1710985923916,4349.021666793153
1710985923956,4389.745097142877
1710985923996,4538.527821185533
1710985924037,4551.506513314322
1710985924076,4702.83872366976
1710985924117,5165.895207121968
1710985924157,6028.570697074523
1710985924197,6028.570697074523
1710985924238,6028.570697074523
1710985924277,5165.895207121968
1710985924317,4832.467486309353
1710985924358,4551.506513314322
1710985924398,4538.527821185533
1710985924438,4389.745097142877
1710985924478,4389.745097142877
1710985924518,4389.745097142877
1710985924558,4389.745097142877
1710985924598,4389.745097142877
1710985924639,4389.745097142877
1710985924679,4349.021666793153
1710985924719,2645.953350570984
1710985924759,2645.953350570984
1710985924799,2645.953350570984
1710985924840,2645.953350570984
1710985924879,2645.953350570984
1710985924919,2645.953350570984
1710985924960,2645.953350570984
1710985925000,1663.4979735882953
1710985925040,1165.4432980213314
1710985925080,-160.51179051515646
1710985925120,-176.1134980369825
1710985925160,-287.08835737546906
1710985925200,-287.08835737546906
1710985925241,-287.08835737546906
1710985925280,-287.08835737546906
1710985925320,-390.64788640802726
1710985925361,-872.8494846597314
1710985925401,-912.1359328087419
1710985925441,-912.1359328087419
1710985925481,-912.1359328087419
1710985925521,-912.1359328087419
1710985925561,-912.1359328087419
1710985925601,-912.1359328087419
1710985925642,-912.1359328087419
1710985925681,-912.1359328087419
1710985925722,-912.1359328087419
1710985925762,-1249.2196133085527
1710985925802,-3001.931743655121
1710985925843,-3335.210027008783
1710985925882,-3335.210027008783
1710985925922,-3001.931743655121
1710985925962,-2399.3051495868713
1710985926002,-2399.3051495868713
1710985926043,-2399.3051495868713
1710985926083,-2222.925487810513
1710985926123,-1467.593651310075
1710985926163,-1249.2196133085527
1710985926203,-344.4254161468707
1710985926244,18.077618210110813
1710985926283,18.077618210110813
1710985926323,18.077618210110813
1710985926363,18.077618210110813
1710985926403,18.077618210110813
1710985926444,18.077618210110813
1710985926484,18.077618210110813
1710985926524,18.077618210110813
1710985926564,516.8451124737039
1710985926604,809.1840395203326
1710985926645,1001.5791610383894
1710985926684,1165.3061651077587
1710985926724,2174.990951633081
1710985926764,2406.7715759314597
1710985926805,3073.607833248563
1710985926845,3907.9560217992403
1710985926885,4142.978630350903
1710985926925,4417.580677787308
1710985926965,5308.5614348985255
1710985927005,5350.094515596051
1710985927046,5993.407297945581
1710985927085,6801.684731966583
1710985927126,8077.774015502073
1710985927166,8077.774015502073
1710985927206,8077.774015502073
1710985927247,8077.774015502073
1710985927286,8362.835690903943
1710985927326,9592.137239898788
1710985927366,9592.137239898788
1710985927407,9772.28524691891
1710985927447,10563.68908347981
1710985927487,10711.818559230538
1710985927527,11303.828426759923
1710985927567,11431.42182626389
1710985927607,11539.791710401885
1710985927648,11849.59789573634
1710985927687,11935.527458943427
1710985927727,12036.117548792157
1710985927768,12087.118263122393
1710985927808,12283.004145919578
1710985927849,12985.786956926808
1710985927888,12985.786956926808
1710985927928,12985.786956926808
1710985927968,12985.786956926808
1710985928009,12985.786956926808
1710985928049,12087.118263122393
1710985928089,12036.117548792157
1710985928129,12036.117548792157
1710985928169,12087.118263122393
1710985928209,12502.151478719898
1710985928250,12626.305453022476
1710985928289,12643.588214799063
1710985928329,12966.344780559186
1710985928370,13130.268238169607
1710985928410,13442.698536564363
1710985928451,13499.338512543123
1710985928490,13628.777063696645
1710985928530,14002.813108174596
1710985928570,14002.813108174596
1710985928611,14002.813108174596
1710985928651,14002.813108174596
1710985928691,14002.813108174596
1710985928731,13628.777063696645
1710985928771,13442.698536564363
1710985928811,13130.268238169607
1710985928852,12966.344780559186
1710985928892,12966.344780559186
1710985928932,12966.344780559186
1710985928972,12966.344780559186
1710985929012,12966.344780559186
1710985929053,12966.344780559186
1710985929092,12966.344780559186
1710985929132,11323.318486756645
1710985929173,7713.6554915676825
1710985929213,6698.019942275714
1710985929254,6698.019942275714
1710985929293,6698.019942275714
1710985929333,6698.019942275714
1710985929373,6698.019942275714
1710985929413,6698.019942275714
1710985929454,6591.988578630146
1710985929494,6422.660845469683
1710985929534,6308.037082344294
1710985929574,6135.829823830165
1710985929614,5912.053002538625
1710985929655,5862.074864059687
1710985929695,5862.074864059687
1710985929735,5568.259014763171
1710985929775,5489.060271107592
1710985929815,5475.732137260959
1710985929856,5080.032605919056
1710985929895,1171.6112344521098
1710985929936,-2544.546931409277
1710985929976,-2544.546931409277
1710985930016,-2544.546931409277
1710985930057,-2544.546931409277
1710985930096,-2544.546931409277
1710985930136,-2544.546931409277
1710985930176,-2544.546931409277
1710985930217,-2544.546931409277
1710985930257,-3291.0426729945466
1710985930297,-3776.539938325528
1710985930337,-3887.908267509425
1710985930377,-5146.156123142224
1710985930417,-5146.156123142224
1710985930458,-5146.156123142224
1710985930497,-5146.156123142224
1710985930538,-5171.727888719179
1710985930578,-5366.355118722422
1710985930618,-5587.708545277361
1710985930659,-5709.665293427883
1710985930698,-9229.376495297533
1710985930738,-9229.376495297533
1710985930778,-9229.376495297533
1710985930818,-9229.376495297533
1710985930859,-9229.376495297533
1710985930898,-9229.376495297533
1710985930938,-9229.376495297533
1710985930979,-9229.376495297533
1710985931019,-10001.998360009165
1710985931059,-10461.053844726877
1710985931099,-10500.717042696895
1710985931139,-10520.687242429703
1710985931179,-10520.687242429703
1710985931219,-10520.687242429703
1710985931260,-11207.214324199129
1710985931300,-11692.216306915972
1710985931340,-11738.576891856268
1710985931380,-11778.920988465194
1710985931420,-11980.108289581258
1710985931461,-13521.797858440084
1710985931500,-13521.797858440084
1710985931540,-13521.797858440084
1710985931580,-13521.797858440084
1710985931620,-13521.797858440084
1710985931661,-13521.797858440084
1710985931701,-13521.797858440084
1710985931741,-13521.797858440084
1710985931781,-13521.797858440084
1710985931821,-13521.797858440084
1710985931862,-13521.797858440084
1710985931901,-11420.671713975258
1710985931941,-6898.797403029166
1710985931981,-6302.66721290024
1710985932021,-5381.267945388798
1710985932062,-4155.4101589631755
1710985932102,-2857.9477947752457
1710985932142,-2210.6407027705573
1710985932182,-1531.3337112127338
1710985932222,-239.9754389319569
1710985932263,1188.169547519181
1710985932302,1477.0818239133805
1710985932343,2471.7632903615013
1710985932382,2611.754921521526
1710985932423,3351.4361452246085
1710985932464,3661.126344016753
1710985932503,3661.126344016753
1710985932543,3351.4361452246085
1710985932583,3351.4361452246085
1710985932623,3351.4361452246085
1710985932664,3351.4361452246085
1710985932704,3351.4361452246085
1710985932744,3351.4361452246085
1710985932784,3351.4361452246085
1710985932824,3351.4361452246085
1710985932865,3351.4361452246085
1710985932904,3325.8663754616864
1710985932944,882.6205414724536
1710985932984,882.6205414724536
1710985933024,882.6205414724536
1710985933065,882.6205414724536
1710985933105,882.6205414724536
1710985933145,882.6205414724536
1710985933185,882.6205414724536
1710985933225,882.6205414724536
1710985933266,882.6205414724536
1710985933306,882.6205414724536
1710985933346,603.6043634219095
1710985933386,882.6205414724536
1710985933426,1432.2033831826411
1710985933467,2141.2391262506135
1710985933506,2487.1019229711965
1710985933546,3326.16210558312
1710985933586,3326.16210558312
1710985933626,3326.16210558312
1710985933667,3326.16210558312
1710985933707,3366.2530392166227
1710985933747,3381.231453976361
1710985933787,3398.8130298946053
1710985933827,4735.647910331143
1710985933868,4790.148076382
1710985933907,4790.148076382
1710985933947,4790.148076382
1710985933988,4790.148076382
1710985934028,4508.265003906563
1710985934069,3398.8130298946053
1710985934108,3366.2530392166227
1710985934148,3366.2530392166227
1710985934188,3366.2530392166227
1710985934228,3366.2530392166227
1710985934269,3366.2530392166227
1710985934309,3326.16210558312
1710985934349,2737.088580719661
1710985934393,2711.0757764205337
1710985934433,2344.703244464472
1710985934474,1946.1833585065324
1710985934513,761.613528280519
1710985934553,743.5958401774988
1710985934593,718.4936794997193
1710985934634,718.4936794997193
1710985934674,718.4936794997193
1710985934714,718.4936794997193
1710985934754,8.184100054204464
1710985934794,-272.76499996194616
1710985934834,-545.9831191210542
1710985934875,-1445.1970440936275
1710985934915,-2370.239579555113
1710985934955,-2370.239579555113
1710985934995,-2370.239579555113
1710985935035,-2370.239579555113
1710985935076,-2370.239579555113
1710985935116,-2370.239579555113
1710985935156,-1738.3251069232356
1710985935196,-1714.9174532308243
1710985935236,-1657.6751591332722
1710985935277,-1445.1970440936275
1710985935316,-242.7324524014257
1710985935356,715.2977760350332
1710985935396,718.4936794997193
1710985935437,715.2977760350332
1710985935478,-242.7324524014257
1710985935517,-1657.6751591332722
1710985935557,-1714.9174532308243
1710985935597,-1714.9174532308243
1710985935637,-1714.9174532308243
1710985935678,-1714.9174532308243
1710985935718,-1714.9174532308243
1710985935758,-1714.9174532308243
1710985935798,-1738.3251069232356
1710985935838,-2686.0929229115136
1710985935879,-8603.929599459749
1710985935919,-12657.711084126262
1710985935959,-12657.711084126262
1710985935999,-12657.711084126262
1710985936039,-12657.711084126262
1710985936080,-12657.711084126262
1710985936119,-12657.711084126262
1710985936160,-13205.786061994499
1710985936200,-13425.769038825296
1710985936240,-13730.594795725308
1710985936280,-14017.266829505796
1710985936320,-14225.66326727951
1710985936360,-14246.87252637744
1710985936400,-14456.447171126492
1710985936440,-15343.728124327725
1710985936481,-15346.239797138609
1710985936520,-15761.882368730381
1710985936560,-16672.68103535846
1710985936600,-23157.826379834674
1710985936640,-24088.603891096544
1710985936681,-24088.603891096544
1710985936721,-24088.603891096544
1710985936761,-24088.603891096544
1710985936801,-24088.603891096544
1710985936841,-24088.603891096544
1710985936882,-24088.603891096544
1710985936921,-25019.583021255443
