Timestamp,Cleaned PPG
1712056772291,0.0
1712056772331,0.0
1712056772372,0.0
1712056772411,0.0
1712056772451,0.0
1712056772491,0.0
1712056772531,0.0
1712056772572,0.0
1712056772612,0.0
1712056772652,0.0
1712056772692,0.0
1712056772732,0.0
1712056772773,0.0
1712056772812,0.0
1712056772853,0.0
1712056772892,0.0
1712056772933,0.0
1712056772974,0.0
1712056773013,0.0
1712056773053,0.0
1712056773093,0.0
1712056773133,0.0
1712056773174,0.0
1712056773213,0.0
1712056773253,0.0
1712056773293,0.0
1712056773334,0.0
1712056773375,0.0
1712056773417,0.0
1712056773454,0.0
1712056773494,0.0
1712056773534,0.0
1712056773575,1569177.495112055
1712056773614,1569177.495112055
1712056773655,1569177.495112055
1712056773695,1694029.64964857
1712056773735,1760367.0471643726
1712056773776,1892327.0438575072
1712056773815,2007535.7969354321
1712056773855,2007535.7969354321
1712056773895,2007535.7969354321
1712056773935,2007535.7969354321
1712056773976,2007535.7969354321
1712056774016,1897950.9117386471
1712056774056,1892327.0438575072
1712056774096,1808768.9224772612
1712056774136,1760367.0471643726
1712056774177,1694029.64964857
1712056774216,1569177.495112055
1712056774256,1406854.3941624153
1712056774297,1383772.9662281275
1712056774337,1271581.8671053678
1712056774378,1111188.3158122292
1712056774417,526392.9634210346
1712056774457,257005.0000077868
1712056774497,242247.66502564307
1712056774537,240268.90562193468
1712056774578,239218.14981800877
1712056774618,234091.7337683402
1712056774658,228451.47612790018
1712056774698,224808.47939513158
1712056774738,209966.8257433693
1712056774779,209966.8257433693
1712056774818,209966.8257433693
1712056774858,209966.8257433693
1712056774899,209966.8257433693
1712056774939,209966.8257433693
1712056774980,209966.8257433693
1712056775019,209966.8257433693
1712056775059,209966.8257433693
1712056775099,209966.8257433693
1712056775139,209966.8257433693
1712056775180,652668.6458102665
1712056775220,652668.6458102665
1712056775260,652668.6458102665
1712056775300,652668.6458102665
1712056775340,652668.6458102665
1712056775381,652668.6458102665
1712056775420,652668.6458102665
1712056775460,652668.6458102665
1712056775501,652668.6458102665
1712056775541,652668.6458102665
1712056775582,652668.6458102665
1712056775624,634079.6295145359
1712056775661,586777.2773034144
1712056775701,542916.3525352464
1712056775742,513703.2944529094
1712056775783,502799.5948383445
1712056775822,477164.01628556754
1712056775862,469440.44036074774
1712056775902,441993.0244870465
1712056775942,402134.51739496365
1712056775984,372033.4854714619
1712056776023,356400.5898858835
1712056776063,320301.5896146642
1712056776103,287920.55199667066
1712056776143,281071.09780031815
1712056776184,246103.30399757624
1712056776224,240577.5207850784
1712056776264,237434.927264316
1712056776304,230120.08770147385
1712056776344,229345.86293090414
1712056776385,222733.56314227544
1712056776424,215603.93806884577
1712056776464,203257.44903855352
1712056776505,200159.00419820473
1712056776544,165472.37015627278
1712056776586,164585.2361746612
1712056776625,156827.16037839
1712056776665,153353.79059651494
1712056776705,150856.23056799732
1712056776745,141854.15580907278
1712056776786,138017.35167666245
1712056776825,128159.02755458048
1712056776865,123256.34789835522
1712056776905,118199.5418758886
1712056776946,98299.91368780751
1712056776987,-411770.7157189124
1712056777026,-1215850.6619839463
1712056777066,-1215850.6619839463
1712056777106,-1215850.6619839463
1712056777146,-1215850.6619839463
1712056777187,-1215850.6619839463
1712056777226,-1215850.6619839463
1712056777266,-1215850.6619839463
1712056777307,-1215850.6619839463
1712056777347,-1215850.6619839463
1712056777388,-1215850.6619839463
1712056777427,-1215850.6619839463
1712056777467,-1174725.7796825678
1712056777507,-1042966.5477183396
1712056777547,-901835.9166475884
1712056777588,-745580.1733692326
1712056777627,-542087.7117060455
1712056777668,-337568.0914615635
1712056777708,-146097.24455492338
1712056777748,147649.49462234788
1712056777789,170612.12754578516
1712056777828,175890.94481917564
1712056777868,177930.39801679086
1712056777908,177930.39801679086
1712056777948,177930.39801679086
1712056777989,189620.14260991383
1712056778029,192574.6194010973
1712056778069,214145.34477363247
1712056778109,234636.9783521779
1712056778149,237730.48986805882
1712056778190,276925.0722421808
1712056778229,276925.0722421808
1712056778269,276925.0722421808
1712056778309,276925.0722421808
1712056778350,276925.0722421808
1712056778391,276925.0722421808
1712056778430,276824.967321862
1712056778470,261490.3494694666
1712056778510,261490.3494694666
1712056778550,261490.3494694666
1712056778591,276824.967321862
1712056778631,276824.967321862
1712056778670,276824.967321862
1712056778711,276824.967321862
1712056778751,276824.967321862
1712056778792,276824.967321862
1712056778831,276824.967321862
1712056778871,276824.967321862
1712056778911,261490.3494694666
1712056778951,258497.8443265427
1712056778992,251113.57780463994
1712056779031,238973.94340983126
1712056779072,222911.47215699032
1712056779112,206435.58792836266
1712056779152,201104.37472960353
1712056779193,185303.14576581866
1712056779232,174063.95695815003
1712056779272,153388.09706909535
1712056779312,146717.40811841702
1712056779353,97832.18074261071
1712056779394,97832.18074261071
1712056779433,97832.18074261071
1712056779473,97832.18074261071
1712056779513,97832.18074261071
1712056779553,97832.18074261071
1712056779594,95593.40221352642
1712056779633,95593.40221352642
1712056779673,95593.40221352642
1712056779714,95593.40221352642
1712056779754,95593.40221352642
1712056779795,95376.55159432674
1712056779834,95376.55159432674
1712056779874,95376.55159432674
1712056779914,95376.55159432674
1712056779954,95376.55159432674
1712056779995,95376.55159432674
1712056780035,95376.55159432674
1712056780075,95376.55159432674
1712056780115,95376.55159432674
1712056780155,95376.55159432674
1712056780196,69557.09539112821
1712056780235,69030.97574341949
1712056780276,68776.41970253084
1712056780316,62692.68460482359
1712056780356,60806.956711700186
1712056780397,57562.23584402632
1712056780436,56924.73454741668
1712056780476,56401.86694475729
1712056780516,55060.15024959855
1712056780557,54664.99584031012
1712056780597,54406.569491724484
1712056780637,52616.698638956994
1712056780677,49987.30625719018
1712056780717,48845.86253332626
1712056780757,48718.921601804905
1712056780798,47984.81270145066
1712056780837,46694.085096987896
1712056780877,46692.93685083371
1712056780918,46569.23753881175
1712056780958,46377.63418381289
1712056780999,45184.399274192285
1712056781038,44042.020689827856
1712056781078,43361.7471392788
1712056781118,40582.36349960975
1712056781159,39986.813339414075
1712056781200,39081.93003252195
1712056781239,35921.23524638917
1712056781279,32453.21308737807
1712056781319,28593.834211670328
1712056781359,25054.880811911076
1712056781401,22712.089312202297
1712056781440,22712.089312202297
1712056781480,21866.38934113132
1712056781520,21364.657891242765
1712056781560,19874.149881452322
1712056781601,19811.83174832724
1712056781641,18737.550889752805
1712056781681,18521.62116094865
1712056781721,18393.108618790284
1712056781761,17974.93391214311
1712056781802,17600.22487993352
1712056781841,16569.874890821986
1712056781882,16021.7863587006
1712056781922,15503.233575408347
1712056781962,10302.021912626922
1712056782003,9312.0650519263
1712056782042,9312.0650519263
1712056782082,9312.0650519263
1712056782122,9312.0650519263
1712056782162,9312.0650519263
1712056782204,9312.0650519263
1712056782243,9312.0650519263
1712056782283,9312.0650519263
1712056782323,9312.0650519263
1712056782363,9312.0650519263
1712056782404,9312.0650519263
1712056782444,10433.437686420977
1712056782484,13452.09988700552
1712056782524,17588.840857842006
1712056782564,19563.123280688655
1712056782605,21801.746397523675
1712056782644,22591.40205461299
1712056782684,22725.56810340844
1712056782725,26655.412807581015
1712056782764,30829.346158023924
1712056782806,44445.281037805136
1712056782845,61622.73387110885
1712056782885,80237.00409464724
1712056782925,80237.00409464724
1712056782965,80237.00409464724
1712056783006,80541.418932328
1712056783045,80948.88847385999
1712056783085,81963.93603902217
1712056783125,85127.64628188545
1712056783166,85219.87864403147
1712056783207,85219.87864403147
1712056783246,85219.87864403147
1712056783286,85219.87864403147
1712056783326,85219.87864403147
1712056783366,85127.64628188545
1712056783407,81963.93603902217
1712056783446,80948.88847385999
1712056783486,80541.418932328
1712056783527,80438.11359073129
1712056783567,79407.04333178746
1712056783608,76935.75397532433
1712056783647,70218.30261349864
1712056783687,69568.00923917815
1712056783727,59996.79174678121
1712056783767,58183.07184278965
1712056783809,57150.465934145264
1712056783848,56336.718342919834
1712056783888,53692.735691125505
1712056783928,48937.34982919926
1712056783968,46578.99051888473
1712056784009,46578.99051888473
1712056784048,46311.28002502024
1712056784088,46311.28002502024
1712056784128,41978.6723325639
1712056784169,40816.08455414139
1712056784210,37351.95840783883
1712056784249,35518.36968678376
1712056784289,35200.63561932929
1712056784329,34615.28743334534
1712056784369,32277.062360844575
1712056784409,30282.583712307736
1712056784449,30282.583712307736
1712056784489,30282.583712307736
1712056784529,32154.200559161603
1712056784569,32277.062360844575
1712056784609,33639.21013924945
1712056784649,33681.07396689337
1712056784689,35200.63561932929
1712056784729,37351.95840783883
1712056784769,37351.95840783883
1712056784809,37351.95840783883
1712056784849,37351.95840783883
1712056784889,37351.95840783883
1712056784929,37351.95840783883
1712056784969,39021.89298581425
1712056785009,41908.18789656181
1712056785049,42807.26386852376
1712056785089,43887.0226808805
1712056785129,43900.84032814205
1712056785169,45098.0901816939
1712056785209,45312.251046074554
1712056785249,45530.07610608172
1712056785289,45609.49061468709
1712056785329,45641.052958232816
1712056785369,53566.53462132951
1712056785409,54026.351608996745
1712056785449,55547.107721443754
1712056785489,65048.66601122962
1712056785529,65048.66601122962
1712056785569,65048.66601122962
1712056785609,65048.66601122962
1712056785649,65048.66601122962
1712056785689,65048.66601122962
1712056785729,65048.66601122962
1712056785769,65048.66601122962
1712056785809,65048.66601122962
1712056785849,65048.66601122962
1712056785889,65048.66601122962
1712056785929,56543.7893394893
1712056785969,54525.32763704751
1712056786009,53875.7680079164
1712056786049,51891.91408109479
1712056786089,50567.15100579988
1712056786129,48629.95188920852
1712056786169,47758.78681477113
1712056786209,47553.664282635786
1712056786249,46082.10647042887
1712056786289,44269.833132208325
1712056786329,43649.29985697009
1712056786369,40658.42366906302
1712056786409,36756.41779333493
1712056786449,29119.374003494624
1712056786489,22274.363244600594
1712056786529,22089.78004432423
1712056786569,18433.979527362622
1712056786609,15919.593339345418
1712056786649,13907.537734658457
1712056786689,13456.15135422349
1712056786729,8146.129392610863
1712056786769,6338.24406770803
1712056786809,6338.24406770803
1712056786849,6338.24406770803
1712056786889,6311.445290973876
1712056786929,3607.784740750678
1712056786969,1893.3485402059741
1712056787009,-1172.975294190459
1712056787049,-1172.975294190459
1712056787089,-1172.975294190459
1712056787129,-1172.975294190459
1712056787169,-1172.975294190459
1712056787209,1893.3485402059741
1712056787249,3607.784740750678
1712056787289,6311.445290973876
1712056787329,6338.24406770803
1712056787369,8877.811569130048
1712056787409,11386.6992912204
1712056787449,24899.93557611946
1712056787489,28505.37431094423
1712056787529,29012.08936951682
1712056787569,30307.324002203066
1712056787609,30405.188807122875
1712056787649,30405.188807122875
1712056787689,30405.188807122875
1712056787729,32757.91564645199
1712056787769,33166.6005343236
1712056787809,33166.6005343236
1712056787849,33166.6005343236
1712056787889,33166.6005343236
1712056787929,33166.6005343236
1712056787969,33166.6005343236
1712056788009,32757.91564645199
1712056788049,32757.91564645199
1712056788089,32757.91564645199
1712056788129,28504.395245168358
1712056788169,26797.658067245036
1712056788209,24599.517669933848
1712056788249,24476.926125582308
1712056788289,19065.009917660616
1712056788329,11845.169657772407
1712056788369,6877.5137378824875
1712056788409,1608.9760526916943
1712056788449,-945.6946618389338
1712056788489,-5210.565316609107
1712056788529,-18104.80103190895
1712056788569,-21259.199514571577
1712056788609,-25418.044916856103
1712056788649,-26131.336730490904
1712056788689,-26131.336730490904
1712056788729,-27523.47063680552
1712056788769,-42301.16788377054
1712056788809,-42606.527758533135
1712056788849,-45337.1967960624
1712056788889,-58845.803282465786
1712056788929,-64967.004326484166
1712056788969,-77563.87807898689
1712056789009,-79574.32718543848
1712056789049,-79732.23100462742
1712056789089,-79732.23100462742
1712056789129,-79574.32718543848
1712056789169,-69127.30292931153
1712056789209,-64967.004326484166
1712056789249,-58977.55693965498
1712056789289,-58845.803282465786
1712056789329,-45337.1967960624
1712056789369,-45337.1967960624
1712056789409,-45337.1967960624
1712056789449,-45337.1967960624
1712056789489,-45337.1967960624
1712056789529,-45337.1967960624
1712056789569,-29843.3985688081
1712056789609,-26447.112461579498
1712056789649,-3371.8206489300355
1712056789689,8330.561914645135
1712056789729,29918.688312267885
1712056789769,36126.560636960436
1712056789809,36126.560636960436
1712056789849,36126.560636960436
1712056789889,36126.560636960436
1712056789929,36126.560636960436
1712056789969,36126.560636960436
1712056790009,36126.560636960436
1712056790049,40088.88539455924
1712056790089,40606.9053640645
1712056790129,40606.9053640645
1712056790169,42305.469205980655
1712056790209,42305.469205980655
1712056790249,42305.469205980655
1712056790289,42305.469205980655
1712056790329,39245.285222019535
1712056790369,37893.111497002654
1712056790409,33900.93865627749
1712056790450,27611.96963431919
1712056790491,22772.743830897845
1712056790532,21608.328521870077
1712056790573,20226.988299532328
1712056790614,18690.068194906227
1712056790655,16800.026228421833
1712056790696,8779.826156852301
1712056790737,6220.911576076411
1712056790778,-4272.247573688626
1712056790819,-25656.924328288995
1712056790860,-50860.26458222419
1712056790901,-51633.788634104654
1712056790942,-54674.346882761456
1712056790983,-55433.1733935331
1712056791024,-59308.791446568444
1712056791065,-60800.88608238287
1712056791106,-64213.03777928185
1712056791147,-64710.28138820268
1712056791188,-64710.28138820268
1712056791229,-66047.1861558645
1712056791270,-67506.58358431747
1712056791311,-67599.81988536846
1712056791352,-67785.79834119324
1712056791393,-68888.09119128063
1712056791434,-76224.64534716727
1712056791475,-77870.19002500596
1712056791516,-82494.21178568248
1712056791557,-82497.25696312264
1712056791598,-82497.25696312264
1712056791639,-82497.25696312264
1712056791680,-82497.25696312264
1712056791721,-82497.25696312264
1712056791762,-82497.25696312264
1712056791803,-78243.95562974364
1712056791844,-78243.95562974364
1712056791885,-78243.95562974364
1712056791926,-78243.95562974364
1712056791967,-82497.25696312264
1712056792008,-83561.47398542613
1712056792049,-83561.47398542613
1712056792090,-83561.47398542613
1712056792131,-78291.25873117521
1712056792172,-78243.95562974364
1712056792213,-75033.80980711151
1712056792254,-71839.39917577291
1712056792295,-64716.66256753076
1712056792336,-64048.627622522414
1712056792377,-60042.57185427332
1712056792418,-60042.57185427332
1712056792459,-64048.627622522414
1712056792500,-64580.41109720664
1712056792541,-64716.66256753076
1712056792582,-64716.66256753076
1712056792623,-64716.66256753076
1712056792664,-64580.41109720664
1712056792705,-60042.57185427332
1712056792746,-58787.55235416116
1712056792787,-49999.92253409838
1712056792828,-49931.4051665687
1712056792869,-47120.56562604103
1712056792910,-42761.24206828466
1712056792951,-40920.23157803528
1712056792992,-37020.09630022198
1712056793033,-33004.67962381197
1712056793074,-30870.032727404032
1712056793115,-20483.43235864304
1712056793156,-16002.817198138684
1712056793197,-1137.9777279933915
1712056793238,1660.8071691887453
1712056793279,2624.4943328234367
1712056793320,4205.4478753125295
1712056793361,10839.395611367654
1712056793402,16456.01190039795
1712056793443,20798.82307512127
1712056793484,26393.767694112845
1712056793525,70694.12086671405
1712056793566,71052.23712374782
1712056793607,72423.84894314501
1712056793648,72477.5967181581
1712056793689,76863.62612514757
1712056793730,78514.41012605932
1712056793771,78849.07749686483
1712056793812,80033.0003902032
1712056793853,80507.32417657692
1712056793894,82268.61923893075
1712056793935,84280.36486582924
1712056793976,84280.36486582924
1712056794017,84280.36486582924
1712056794058,84280.36486582924
1712056794099,84280.36486582924
1712056794140,82268.61923893075
1712056794181,81904.95780193387
1712056794222,81904.95780193387
1712056794263,81904.95780193387
1712056794304,81904.95780193387
1712056794345,81904.95780193387
1712056794386,81904.95780193387
1712056794427,81904.95780193387
1712056794468,81904.95780193387
1712056794509,79263.3287443514
1712056794550,76429.57066246867
1712056794591,65280.39486998413
1712056794632,63288.37432753574
1712056794673,61361.337951983325
1712056794714,60027.67463732138
1712056794755,59019.60458579473
1712056794796,58983.08244469855
1712056794837,50491.23132160725
1712056794878,50399.9487869218
1712056794919,48096.27827974409
1712056794960,46393.464345216285
1712056795001,46012.62987495866
1712056795042,43603.59909135755
1712056795083,43410.786869192496
1712056795124,40335.95162094198
1712056795165,39948.77890586015
1712056795206,35325.28065686207
1712056795247,32735.3776490679
1712056795288,30204.87804724928
1712056795329,29501.437446450815
1712056795370,26593.555848537013
1712056795411,24723.580380406696
1712056795452,22560.951940393075
1712056795493,19683.565321438015
1712056795534,18560.731335165445
1712056795575,17543.725165135227
1712056795616,17543.725165135227
1712056795657,17493.515832566656
1712056795698,17346.87520798575
1712056795739,17266.756433118135
1712056795780,16773.07905056281
1712056795821,16365.792638782412
1712056795862,16365.792638782412
1712056795903,16101.937209916301
1712056795944,15790.033399473876
1712056795985,15790.033399473876
1712056796026,14639.680278107524
1712056796067,13898.196578038856
1712056796108,12061.45735832164
1712056796149,4689.452930674888
1712056796190,4560.337128586136
1712056796231,3359.731503895484
1712056796272,-4055.21361986408
1712056796313,-5360.198916279711
1712056796354,-7173.793365100399
1712056796395,-9222.60889729485
1712056796436,-9222.60889729485
1712056796475,-9222.60889729485
1712056796514,-9222.60889729485
1712056796553,-9222.60889729485
1712056796592,-9222.60889729485
1712056796631,-9222.60889729485
1712056796670,-9222.60889729485
1712056796709,-9222.60889729485
1712056796748,-9222.60889729485
1712056796787,-7173.793365100399
1712056796826,12891.41463681031
1712056796865,16157.383967200294
1712056796904,30332.41702685086
1712056796943,40279.93888676353
1712056796982,46275.20127938129
1712056797021,51261.78394405916
1712056797060,56662.63902106043
1712056797099,57506.83767177537
1712056797138,60445.175458024256
1712056797177,64377.12984837871
1712056797216,64391.53323758952
1712056797255,65002.24334569322
1712056797294,68199.2338342485
1712056797333,68768.85864950716
1712056797372,77714.8446332654
1712056797411,77714.8446332654
1712056797450,77714.8446332654
1712056797490,77714.8446332654
1712056797530,77714.8446332654
1712056797570,68768.85864950716
1712056797610,64377.12984837871
1712056797650,60562.9434603909
1712056797690,57506.83767177537
1712056797730,57506.83767177537
1712056797770,57506.83767177537
1712056797810,56662.63902106043
1712056797850,53457.10321326554
1712056797890,46845.212976478506
1712056797930,46630.52749581123
1712056797970,41495.42525365576
1712056798010,29440.79513369687
1712056798050,23939.828401019797
1712056798090,16079.139067032374
1712056798130,1543.8887847396545
1712056798170,-11147.640125557315
1712056798210,-11147.640125557315
1712056798250,-11147.640125557315
1712056798290,-11147.640125557315
1712056798330,-11147.640125557315
1712056798370,-11147.640125557315
1712056798410,-11147.640125557315
1712056798450,-11147.640125557315
1712056798490,-11147.640125557315
1712056798530,-11147.640125557315
1712056798570,-11147.640125557315
1712056798610,-4638.547497044317
1712056798650,3999.5592862898484
1712056798690,4616.284935025033
1712056798730,6343.369294278324
1712056798770,6589.222078558989
1712056798810,8100.0564121110365
1712056798850,11817.428476854227
1712056798890,15274.272043497767
1712056798930,15967.966911699157
1712056798970,28226.65476547554
1712056799010,32227.210274240933
1712056799050,35386.01961822342
1712056799090,36445.66374670295
1712056799130,38927.01570758503
1712056799170,39589.22321314085
1712056799210,40610.86522596795
1712056799250,44720.07683946518
1712056799290,45617.91380895395
1712056799330,46131.454742476344
1712056799370,46131.454742476344
1712056799410,46131.454742476344
1712056799450,46131.454742476344
1712056799490,46131.454742476344
1712056799530,45617.91380895395
1712056799570,45168.16768469475
1712056799610,45168.16768469475
1712056799650,41656.658956137486
1712056799690,39589.22321314085
1712056799730,38927.01570758503
1712056799770,38927.01570758503
1712056799810,38927.01570758503
1712056799850,34663.43248373177
1712056799890,31598.843932088
1712056799930,26497.33970322786
1712056799970,20358.399157523178
1712056800010,18212.966159990057
1712056800050,17560.57482531015
1712056800090,14881.688539196271
1712056800130,13536.226094543003
1712056800170,-1045493.0391931636
1712056800210,-1113808.0571653424
1712056800250,-1113808.0571653424
1712056800290,-1113808.0571653424
1712056800330,-1113808.0571653424
1712056800370,-1113808.0571653424
1712056800410,-1113808.0571653424
1712056800450,-1113808.0571653424
1712056800490,-1113808.0571653424
1712056800530,-1113808.0571653424
1712056800570,-1113808.0571653424
1712056800610,-1071221.04165354
1712056800650,-1045493.0391931636
1712056800690,-1006166.2520291526
1712056800730,-952943.6319953767
1712056800770,-911317.0738538387
1712056800810,-859761.9349610507
1712056800850,-801854.0143136126
1712056800890,-749061.9057601616
1712056800930,-741989.5804156447
1712056800970,-698148.3626320586
1712056801010,-656100.7571964478
1712056801050,-617370.4330780059
1712056801090,-581017.2176857004
1712056801130,-547450.5733170952
1712056801170,-515015.01451502414
1712056801210,-474278.4425373534
1712056801250,-443450.7807062054
1712056801290,-418023.3533887621
1712056801330,-391979.22096594423
1712056801370,-368477.1098124804
1712056801410,-346753.1790495855
1712056801450,-326241.0948369326
1712056801490,-298953.3165414464
1712056801530,-271176.2213825388
1712056801570,-247426.55160613125
1712056801610,-243088.5844519697
1712056801650,-232184.2953344304
1712056801690,-224502.71017949563
1712056801730,-206271.62762817368
1712056801770,-193891.0486361971
1712056801810,-177237.11350342538
1712056801850,-162056.90334798582
1712056801890,-149960.95053356374
1712056801930,-138303.1870258199
1712056801970,-126364.51233525621
1712056802010,-117643.80308432551
1712056802050,-116976.16975114914
1712056802090,-115530.08514882997
1712056802130,-115065.59768398292
1712056802170,-109670.85557305068
1712056802210,-107713.50620369986
1712056802250,-106604.11956697935
1712056802290,-106274.06662025955
1712056802330,-101863.63977516908
1712056802370,-86740.54675320582
1712056802410,-76263.1210666243
1712056802450,-75553.73266178835
1712056802490,-74470.55210434366
1712056802530,-73459.74897213513
1712056802570,-71289.60182181885
1712056802610,-60260.8392138714
1712056802650,-50453.05351969553
1712056802690,-45842.88148975652
1712056802730,-40086.59988629352
1712056802770,-39189.87202819064
1712056802810,-38624.08648062777
1712056802850,-37835.562247156166
1712056802890,-36660.0232469216
1712056802930,-36349.37769041257
1712056802970,-34887.99898347072
1712056803010,-31211.61366132833
1712056803050,-21894.461885815486
1712056803090,-17664.032335622236
1712056803130,-12373.449510494247
1712056803170,-11628.351287791971
1712056803210,-11371.320429814048
1712056803250,-10992.4765088493
1712056803290,-8125.657910397276
1712056803330,-8109.742456994951
1712056803370,-6029.128547166474
1712056803410,-5332.042795054847
1712056803450,-1996.1542437039316
1712056803490,-1996.1542437039316
1712056803530,-1996.1542437039316
1712056803570,-1996.1542437039316
1712056803610,-1996.1542437039316
1712056803650,-1996.1542437039316
1712056803690,2161.5589065337554
1712056803730,2161.5589065337554
1712056803770,2161.5589065337554
1712056803810,2161.5589065337554
1712056803850,2161.5589065337554
1712056803890,2161.5589065337554
1712056803930,2614.407840919681
1712056803970,4722.756732453592
1712056804010,4722.756732453592
1712056804050,4722.756732453592
1712056804090,4722.756732453592
1712056804130,4722.756732453592
1712056804170,4722.756732453592
1712056804210,4722.756732453592
1712056804250,4722.756732453592
1712056804290,4722.756732453592
1712056804330,21277.80485731177
1712056804370,33693.19412429072
1712056804410,33693.19412429072
1712056804450,33693.19412429072
1712056804490,33693.19412429072
1712056804530,33693.19412429072
1712056804570,33693.19412429072
1712056804610,33693.19412429072
1712056804650,33693.19412429072
1712056804690,33693.19412429072
1712056804730,33693.19412429072
1712056804770,33693.19412429072
1712056804810,33693.19412429072
1712056804850,33693.19412429072
1712056804890,33693.19412429072
1712056804930,33693.19412429072
1712056804970,33693.19412429072
1712056805010,33693.19412429072
1712056805050,33693.19412429072
1712056805090,33693.19412429072
1712056805130,33693.19412429072
1712056805170,33693.19412429072
1712056805210,25072.100534643978
1712056805250,25072.100534643978
1712056805290,25072.100534643978
1712056805330,25072.100534643978
1712056805370,25072.100534643978
1712056805410,25072.100534643978
1712056805450,25072.100534643978
1712056805490,25072.100534643978
1712056805530,25072.100534643978
1712056805570,25072.100534643978
1712056805610,25072.100534643978
1712056805650,18647.64806244662
1712056805690,5257.755213735625
1712056805730,5257.755213735625
1712056805770,5257.755213735625
1712056805810,5257.755213735625
1712056805850,5257.755213735625
1712056805890,5257.755213735625
1712056805930,5257.755213735625
1712056805970,5257.755213735625
1712056806010,5257.755213735625
1712056806050,5257.755213735625
1712056806090,5257.755213735625
1712056806130,6449.526408446021
1712056806170,41254.49642124865
1712056806210,52870.48511133343
1712056806250,52870.48511133343
1712056806290,52870.48511133343
1712056806330,52870.48511133343
1712056806370,52870.48511133343
1712056806410,52870.48511133343
1712056806450,52870.48511133343
1712056806490,52870.48511133343
1712056806530,52870.48511133343
1712056806570,52870.48511133343
1712056806610,52870.48511133343
1712056806650,37826.25345168915
1712056806690,23441.148163056
1712056806730,13362.600047047716
1712056806770,-5146.7693856665865
1712056806810,-21549.515992549248
1712056806850,-22976.951418919023
1712056806890,-24031.20046123583
1712056806930,-25832.56478565093
1712056806970,-26505.404585422948
1712056807010,-26667.46882620873
1712056807050,-27041.664668636862
1712056807090,-28040.96693804767
1712056807130,-31948.057961777784
1712056807170,-32742.271103543695
1712056807210,-33869.54008128634
1712056807250,-34798.623668326996
1712056807290,-37840.69286258193
1712056807330,-39075.25007072743
1712056807370,-43628.95615503471
1712056807410,-44554.103796347976
1712056807450,-46386.17293100711
1712056807490,-51103.232028928585
1712056807530,-52695.25772765884
1712056807570,-54098.58462535124
1712056807610,-55058.83929712465
1712056807650,-55058.83929712465
1712056807690,-55058.83929712465
1712056807730,-55058.83929712465
1712056807770,-55058.83929712465
1712056807810,-55058.83929712465
1712056807850,-55058.83929712465
1712056807890,-54098.58462535124
1712056807930,-54098.58462535124
1712056807970,-52774.14186432748
1712056808010,-51103.232028928585
1712056808050,-51103.232028928585
1712056808090,-51103.232028928585
1712056808130,-47918.12953428086
1712056808170,-41267.996468183585
1712056808210,-37842.40222577797
1712056808250,-35556.9019268984
1712056808290,-30728.153353167698
1712056808330,-29337.736208800226
1712056808370,-2041.9193150799256
1712056808410,5606.447370502166
1712056808448,6132.303655839991
1712056808488,7663.06875919411
1712056808529,8034.240113944747
1712056808569,8871.543752283324
1712056808609,9295.824747019447
1712056808649,10190.735745307058
1712056808689,10839.826157092117
1712056808730,10839.826157092117
1712056808769,10839.826157092117
1712056808809,10839.826157092117
1712056808849,10839.826157092117
1712056808890,10190.735745307058
1712056808930,10126.396735394374
1712056808970,10126.396735394374
1712056809010,10190.735745307058
1712056809050,15655.34775668569
1712056809090,16303.81807058584
1712056809131,16303.81807058584
1712056809170,16303.81807058584
1712056809210,16303.81807058584
1712056809251,15655.34775668569
1712056809291,10126.396735394374
1712056809331,4868.474145010114
1712056809371,1009.4759446778335
1712056809411,661.5875066705048
1712056809451,661.5875066705048
1712056809491,661.5875066705048
1712056809532,661.5875066705048
1712056809571,661.5875066705048
1712056809612,661.5875066705048
1712056809651,4868.474145010114
1712056809692,5227.553828560747
1712056809733,5864.81817893777
1712056809772,11869.599810525775
1712056809812,11869.599810525775
1712056809852,11869.599810525775
1712056809892,11869.599810525775
1712056809933,11869.599810525775
1712056809972,12057.51603342779
1712056810012,12057.51603342779
1712056810052,13805.608094910858
1712056810093,13805.608094910858
1712056810133,13805.608094910858
1712056810173,13805.608094910858
1712056810213,13971.212496366818
1712056810253,13971.212496366818
1712056810293,13971.212496366818
1712056810334,13971.212496366818
1712056810373,13971.212496366818
1712056810413,13805.608094910858
1712056810454,13138.81952445209
1712056810494,12057.51603342779
1712056810534,8238.797627929598
1712056810574,7278.209791842848
1712056810614,6984.939594378695
1712056810654,4310.822700028773
1712056810694,-2012.7775796770584
1712056810735,-3256.3925144160166
1712056810774,-5615.858608643059
1712056810815,-7955.368867136538
1712056810855,-9357.700725576608
1712056810895,-15623.774027672363
1712056810936,-15909.46054974338
1712056810975,-16475.594317212002
1712056811015,-18125.29396495945
1712056811055,-22256.7919509043
1712056811095,-23991.26721849665
1712056811136,-38921.4748450988
1712056811176,-47922.60637559276
1712056811216,-47922.60637559276
1712056811256,-50086.79370751418
1712056811296,-52393.531724609435
1712056811337,-52797.715096481144
1712056811376,-52797.715096481144
1712056811416,-52797.715096481144
1712056811456,-52797.715096481144
1712056811497,-52797.715096481144
1712056811537,-52797.715096481144
1712056811577,-52797.715096481144
1712056811617,-52797.715096481144
1712056811657,-52797.715096481144
1712056811697,-50156.45005982206
1712056811738,-52797.715096481144
1712056811778,-50156.45005982206
1712056811818,-50156.45005982206
1712056811858,-49547.66281697503
1712056811898,-48469.45400033309
1712056811939,-48469.45400033309
1712056811978,-47712.04325889656
1712056812018,-45892.129928865004
1712056812058,-44649.42593511054
1712056812099,-41997.27256505983
1712056812139,-41733.55301411101
1712056812179,-41418.72064761934
1712056812219,-41418.72064761934
1712056812259,-41418.72064761934
1712056812299,-41418.72064761934
1712056812340,-41418.72064761934
1712056812380,-41418.72064761934
1712056812420,-22182.096993771847
1712056812460,-12252.878679699497
1712056812500,3462.2030649674125
1712056812541,9619.83361399849
1712056812580,9806.557062469888
1712056812620,11073.628740956075
1712056812660,12216.281690113014
1712056812701,12765.65344262938
1712056812741,12765.65344262938
1712056812781,12765.65344262938
1712056812821,12765.65344262938
1712056812861,12765.65344262938
1712056812901,12765.65344262938
1712056812942,12765.65344262938
1712056812982,12765.65344262938
1712056813022,12765.65344262938
1712056813062,12216.281690113014
1712056813102,11991.55560211814
1712056813143,11073.628740956075
1712056813182,8059.654450888978
1712056813222,8059.654450888978
1712056813263,2444.1849048510194
1712056813303,-201.13377692061476
1712056813344,-2095.2765724384226
1712056813383,-4325.105905574514
1712056813423,-5566.333301342791
1712056813463,-10150.629192078952
1712056813503,-13605.079499863088
1712056813544,-16047.891764694825
1712056813584,-21103.308236237615
1712056813624,-23151.832539484603
1712056813664,-27033.868382045766
1712056813704,-27033.868382045766
1712056813745,-27033.868382045766
1712056813784,-31692.462823139736
1712056813824,-32437.140436204616
1712056813865,-34559.5069221335
1712056813905,-37131.175850800006
1712056813946,-37176.0983286968
1712056813985,-39199.64113713824
1712056814025,-40333.119601007784
1712056814065,-43616.32859387109
1712056814105,-43616.32859387109
1712056814146,-43616.32859387109
1712056814186,-43616.32859387109
1712056814226,-43616.32859387109
1712056814266,-40333.119601007784
1712056814306,-37176.0983286968
1712056814346,-37176.0983286968
1712056814386,-37176.0983286968
1712056814426,-37176.0983286968
1712056814466,-37176.0983286968
1712056814506,-18187.8606624268
1712056814547,4971.2322098668665
1712056814586,23065.473768281983
1712056814626,38113.301552429795
1712056814667,38712.915932382224
1712056814707,40792.07561593433
1712056814748,41368.141196070006
1712056814787,41943.663765849546
1712056814827,42086.203035636805
1712056814867,42148.571243773215
1712056814907,42224.205887468066
1712056814948,43656.96743172617
1712056814987,45294.27978616813
1712056815028,45374.16301422869
1712056815068,51621.228968289215
1712056815108,55596.34943843307
1712056815149,57893.08600109001
1712056815188,58038.324150815606
1712056815228,59451.462841852335
1712056815268,59508.83811611496
1712056815308,60006.751617023954
1712056815349,60628.804079537746
1712056815389,61225.204405898694
1712056815429,61225.204405898694
1712056815469,61225.204405898694
1712056815509,61225.204405898694
1712056815550,61225.204405898694
1712056815589,61225.204405898694
1712056815629,60628.804079537746
1712056815669,60628.804079537746
1712056815709,59508.83811611496
1712056815750,59451.462841852335
1712056815789,57893.08600109001
1712056815830,43340.65325692645
1712056815870,43340.65325692645
1712056815910,43340.65325692645
1712056815951,43340.65325692645
1712056815990,43340.65325692645
1712056816030,43340.65325692645
1712056816070,43340.65325692645
1712056816110,43340.65325692645
1712056816151,43340.65325692645
1712056816191,43340.65325692645
1712056816231,43340.65325692645
1712056816271,46216.875083461404
1712056816311,46216.875083461404
1712056816352,46216.875083461404
1712056816391,46216.875083461404
1712056816431,46216.875083461404
1712056816471,46216.875083461404
1712056816511,46216.875083461404
1712056816553,46216.875083461404
1712056816592,46216.875083461404
1712056816632,46216.875083461404
1712056816672,46216.875083461404
1712056816712,42583.01810441073
1712056816753,39762.71667151712
1712056816792,36870.34534142632
1712056816832,35909.92630278971
1712056816872,35477.437832422554
1712056816912,32398.83362217527
1712056816954,32366.938283982687
1712056816993,29398.61543121049
1712056817033,28206.63393668458
1712056817073,28190.769393110648
1712056817113,27928.898105903063
1712056817154,26892.366095050704
1712056817194,26021.65062369127
1712056817233,19996.568187611643
1712056817274,18903.615464664064
1712056817314,16431.108859153464
1712056817355,16282.741629128344
1712056817394,9500.064299046528
1712056817434,9137.61524614878
1712056817474,5146.904734602198
1712056817514,1779.3780789291486
1712056817555,1209.7790467534214
1712056817594,1209.7790467534214
1712056817635,1209.7790467534214
1712056817675,1209.7790467534214
1712056817715,1209.7790467534214
1712056817756,1209.7790467534214
1712056817795,1209.7790467534214
1712056817835,1209.7790467534214
1712056817875,5146.904734602198
1712056817916,8100.332962253131
1712056817957,8100.332962253131
1712056817996,5146.904734602198
1712056818036,1209.7790467534214
1712056818076,119.4862349499017
1712056818116,119.4862349499017
1712056818157,119.4862349499017
1712056818196,119.4862349499017
1712056818236,119.4862349499017
1712056818277,119.4862349499017
1712056818317,119.4862349499017
1712056818358,119.4862349499017
1712056818397,119.4862349499017
1712056818437,-18906.620998769067
1712056818477,-22905.68613017816
1712056818518,-22961.47185827885
1712056818559,-23982.472083437257
1712056818598,-29320.667239081115
1712056818638,-29475.136937211268
1712056818678,-29475.136937211268
1712056818718,-29475.136937211268
1712056818759,-29475.136937211268
1712056818798,-29475.136937211268
1712056818838,-29475.136937211268
1712056818879,-29475.136937211268
1712056818919,-29320.667239081115
1712056818959,-29320.667239081115
1712056818999,-29320.667239081115
1712056819039,-29320.667239081115
1712056819079,-29320.667239081115
1712056819119,-29320.667239081115
1712056819160,-29475.136937211268
1712056819200,-30270.37380931899
1712056819240,-30270.37380931899
1712056819280,-30270.37380931899
1712056819320,-30270.37380931899
1712056819361,-30270.37380931899
1712056819400,-24057.486999561545
1712056819440,-17494.253825401887
1712056819481,-12918.09426378645
1712056819521,-11751.127018508036
1712056819561,-9625.0507255462
1712056819601,-9625.0507255462
1712056819641,-6986.478243122809
1712056819681,2894.9734997521155
1712056819721,17124.342261805665
1712056819762,17252.822850265075
1712056819802,18815.501141144894
1712056819842,19260.46686131414
1712056819882,19679.75390327722
1712056819922,23881.040823929943
1712056819963,23881.040823929943
1712056820002,23881.040823929943
1712056820042,23881.040823929943
1712056820083,23881.040823929943
1712056820123,23881.040823929943
1712056820164,21415.29078559717
1712056820203,19679.75390327722
1712056820243,19260.46686131414
1712056820283,18815.501141144894
1712056820324,17252.822850265075
1712056820364,17252.822850265075
1712056820404,13976.062051482964
1712056820444,8236.281236532144
1712056820488,8062.729978932068
1712056820528,5761.615843333304
1712056820569,3828.0983165986836
1712056820608,2879.047193973325
1712056820648,1419.324502072297
1712056820689,871.042689954862
1712056820728,-143.6747972164303
1712056820769,-366.4613344091922
1712056820809,-754.1809081006795
1712056820849,-4728.810955706984
1712056820889,-4783.264581652358
1712056820929,-5842.222256942652
1712056820970,-10006.153805034235
1712056821009,-24823.24541822914
1712056821049,-26729.54102502577
1712056821089,-31604.793895806186
1712056821129,-31929.770042643417
1712056821170,-33488.84720324958
1712056821210,-39263.92885922454
1712056821250,-43893.547945165075
1712056821290,-44488.441802192014
1712056821330,-62042.1299448153
1712056821371,-111043.72107550455
1712056821410,-128518.24099671654
1712056821450,-133492.08470129827
1712056821490,-139914.40470273024
1712056821531,-141247.35039607482
1712056821571,-143440.80681098788
1712056821611,-143795.5513124226
1712056821651,-143821.85205782996
1712056821691,-144348.77647112403
1712056821731,-144939.9614895368
1712056821772,-145257.20425817184
1712056821811,-150891.288325164
1712056821851,-151264.3837068677
1712056821891,-151333.14221328823
1712056821931,-152687.32653441187
1712056821972,-152687.32653441187
1712056822012,-152687.32653441187
1712056822052,-152687.32653441187
1712056822092,-152687.32653441187
1712056822132,-152687.32653441187
1712056822173,-152687.32653441187
1712056822212,-152687.32653441187
1712056822252,-152687.32653441187
1712056822292,-152687.32653441187
1712056822332,-150891.288325164
1712056822373,-148085.55493798666
1712056822413,-148085.55493798666
1712056822453,-148085.55493798666
1712056822493,-148085.55493798666
1712056822533,-148085.55493798666
1712056822574,-148085.55493798666
1712056822613,-143303.1859425602
1712056822653,-142467.90762264282
1712056822693,-142434.8663545719
1712056822734,-135744.6304901312
1712056822774,-130920.58547509299
1712056822814,-130334.908243516
1712056822854,-129768.8942582868
1712056822894,-125560.41770802578
1712056822934,-124790.98391813785
1712056822975,-124790.98391813785
1712056823014,-124790.98391813785
1712056823054,-124790.98391813785
1712056823095,-124790.98391813785
1712056823135,-122634.93561016419
1712056823175,-120352.60226990446
1712056823215,-119919.24182467582
1712056823255,-111132.0701209302
1712056823295,-108970.6080069493
1712056823335,-106258.348133981
1712056823376,-105433.93604915775
1712056823415,-97769.60393842403
1712056823456,-97745.06093639787
1712056823496,-97299.26575491112
1712056823536,-92623.30409154226
1712056823577,-90906.47986181453
1712056823616,-90662.96577906283
1712056823656,-81879.71365074348
1712056823696,-81470.9677345478
1712056823736,-76762.50535281538
1712056823777,-76260.42459367798
1712056823817,-76002.80644153291
1712056823857,-76002.80644153291
1712056823897,-71999.74925476126
1712056823937,-63439.97030127328
1712056823978,-61086.46277275309
1712056824017,-59427.10901484033
1712056824057,-57673.38411131129
1712056824097,-53921.90518448525
1712056824137,-52091.004912352655
1712056824178,-50539.324833767256
1712056824218,-49192.57409655303
1712056824258,-48353.45640172716
1712056824298,-47642.837875569705
1712056824338,-44676.20347396913
1712056824379,-43247.51260004006
1712056824418,-38975.6258804698
1712056824458,-37937.16553313518
1712056824498,-37937.16553313518
1712056824539,-37937.16553313518
1712056824579,-37937.16553313518
1712056824619,-37937.16553313518
1712056824659,-37175.863024652936
1712056824699,-36127.2104810765
1712056824739,-36127.2104810765
1712056824780,-35557.95190079091
1712056824819,-24070.62477612146
1712056824859,-21542.222294160165
1712056824900,-12274.919827769743
1712056824940,1337.1646160460077
1712056824980,1703.7281870513689
1712056825020,6019.539816486649
1712056825060,6289.179831261979
1712056825100,19553.46251497371
1712056825140,20441.035644946387
1712056825181,30876.002163142897
1712056825220,48495.88233084604
1712056825261,50634.15719070914
1712056825301,51051.919691063464
1712056825341,67181.54377639527
1712056825382,72572.18119868706
1712056825421,78311.06067073764
1712056825461,83652.6186405432
1712056825502,83700.67134033982
1712056825541,92547.08159717103
1712056825582,94766.78586401045
1712056825622,97091.89342646766
1712056825662,114114.15837634541
1712056825702,120064.32510463754
1712056825742,121935.29842731263
1712056825783,123424.95452574384
1712056825822,123974.69078604737
1712056825863,126252.34355957736
1712056825903,126422.95750143658
1712056825943,127000.46558643156
1712056825984,127845.58094341145
1712056826023,127845.58094341145
1712056826063,127845.58094341145
1712056826103,127845.58094341145
1712056826143,127845.58094341145
1712056826184,127845.58094341145
1712056826224,127845.58094341145
1712056826264,127845.58094341145
1712056826304,123974.69078604737
1712056826344,123974.69078604737
1712056826385,123974.69078604737
1712056826424,103732.66052391077
1712056826464,88558.5448412185
1712056826504,87653.58510364825
1712056826545,86208.45908687497
1712056826586,85411.76219492592
1712056826625,84461.30473120371
1712056826665,83132.35930764396
1712056826705,81617.14692786778
1712056826745,80778.57341892109
1712056826786,80594.81865205616
1712056826826,78819.83694685111
1712056826866,77658.66595824296
1712056826906,74969.02124878671
1712056826946,70131.28749402659
1712056826987,65105.81034325692
1712056827026,51923.638932309346
1712056827066,41437.502427621046
1712056827106,37646.166261504404
1712056827146,36113.799306416884
1712056827187,32436.978103032336
1712056827227,31511.286686334992
1712056827267,31455.47277888842
1712056827307,30986.234627465717
1712056827347,29766.91184855718
1712056827388,29657.858915149234
1712056827427,28986.215588336578
1712056827467,28674.31001107348
1712056827507,28207.912283554208
1712056827547,27810.373983522877
1712056827588,27793.91348717874
1712056827628,27507.088725259295
1712056827668,22656.38205230795
1712056827708,22401.071352737956
1712056827748,21559.945593497017
1712056827789,19106.812129055616
1712056827828,10305.172303932719
1712056827868,6675.526209906442
1712056827908,6675.526209906442
1712056827948,6675.526209906442
1712056827989,6675.526209906442
1712056828029,6675.526209906442
1712056828069,6675.526209906442
1712056828109,6675.526209906442
1712056828149,6675.526209906442
1712056828190,6675.526209906442
1712056828229,4102.99729385972
1712056828269,3826.9862295570783
1712056828309,3826.9862295570783
1712056828349,3826.9862295570783
1712056828390,3826.9862295570783
1712056828429,3826.9862295570783
1712056828469,3826.9862295570783
1712056828510,3826.9862295570783
1712056828550,3826.9862295570783
1712056828590,3826.9862295570783
1712056828633,3826.9862295570783
1712056828670,2715.606066624401
1712056828710,2715.606066624401
1712056828750,2715.606066624401
1712056828791,2715.606066624401
1712056828830,2715.606066624401
1712056828871,2715.606066624401
1712056828911,2715.606066624401
1712056828951,2715.606066624401
1712056828992,238.1700782473199
1712056829031,-309.81160446000285
1712056829071,-1424.1859315149486
1712056829111,-1424.1859315149486
1712056829151,-1424.1859315149486
1712056829192,-1424.1859315149486
1712056829231,-1424.1859315149486
1712056829271,-1424.1859315149486
1712056829311,-1424.1859315149486
1712056829352,-1424.1859315149486
1712056829392,-5437.711902779993
1712056829432,-5437.711902779993
1712056829472,-5437.711902779993
1712056829512,-5437.711902779993
1712056829552,-5437.711902779993
1712056829593,-5437.711902779993
1712056829632,-5437.711902779993
1712056829672,-5437.711902779993
1712056829713,-5437.711902779993
1712056829753,-5437.711902779993
1712056829793,-7138.940801937133
1712056829833,-7343.59604596789
1712056829873,-7343.59604596789
1712056829913,-7343.59604596789
1712056829953,-7343.59604596789
1712056829994,-7343.59604596789
1712056830033,-7343.59604596789
1712056830074,-7343.59604596789
1712056830114,-7343.59604596789
1712056830154,-7343.59604596789
1712056830195,-7343.59604596789
1712056830234,-7343.59604596789
1712056830274,-7343.59604596789
1712056830314,-7343.59604596789
1712056830354,-7343.59604596789
1712056830395,-7343.59604596789
1712056830435,-7343.59604596789
1712056830475,-7343.59604596789
1712056830515,-7343.59604596789
1712056830555,-9106.427900420502
1712056830596,-9293.477881481871
1712056830635,-9682.015551090706
1712056830675,-9682.015551090706
1712056830715,-9682.015551090706
1712056830755,-9682.015551090706
1712056830796,-9682.015551090706
1712056830838,-9682.015551090706
1712056830876,-9682.015551090706
1712056830916,-10097.098053176887
1712056830956,-10181.386888022767
1712056830997,-10551.459942545975
1712056831036,-11431.558067187434
1712056831076,-12249.68933836976
1712056831117,-12249.68933836976
1712056831157,-12249.68933836976
1712056831197,-12249.68933836976
1712056831237,-12249.68933836976
1712056831277,-12249.68933836976
1712056831317,-12249.68933836976
1712056831357,-12249.68933836976
1712056831398,-12249.68933836976
1712056831438,-11431.558067187434
1712056831478,-10551.459942545975
1712056831518,-9516.54134175321
1712056831558,798.044982991647
1712056831599,3049.456616842188
1712056831638,7155.5806304174475
1712056831678,7212.683917810209
1712056831718,7212.683917810209
1712056831759,7212.683917810209
1712056831799,8310.941580512095
1712056831839,9163.410380230285
1712056831879,10145.046871295664
1712056831919,10157.158732497366
1712056831959,11695.0723469418
1712056832000,14167.087029944174
1712056832040,15153.297144030686
1712056832080,15153.297144030686
1712056832120,15153.297144030686
1712056832160,15153.297144030686
1712056832201,15153.297144030686
1712056832240,15921.474563414697
1712056832280,24494.14796100743
1712056832321,30097.581693233456
1712056832361,34523.29395486601
1712056832402,39058.25309932628
1712056832441,39058.25309932628
1712056832481,39058.25309932628
1712056832520,39058.25309932628
1712056832560,39058.25309932628
1712056832601,39058.25309932628
1712056832641,39058.25309932628
1712056832681,39058.25309932628
1712056832721,39058.25309932628
1712056832761,39058.25309932628
1712056832802,39058.25309932628
1712056832841,31740.320402359124
1712056832881,28415.70862578461
1712056832922,22110.53479792364
1712056832962,21920.521820153343
1712056833003,21920.521820153343
1712056833042,21298.269049265888
1712056833082,21236.68466499541
1712056833122,19727.52055187337
1712056833162,17835.72498579696
1712056833203,14834.42696076259
1712056833243,14606.876635029912
1712056833283,9839.278249708936
1712056833323,9265.249479622813
1712056833363,8145.186755985487
1712056833404,2586.57823612052
1712056833443,6327.683469754178
1712056833483,6327.683469754178
1712056833524,6327.683469754178
1712056833564,2586.57823612052
1712056833605,-542.754573406186
1712056833644,-7970.993038608227
1712056833684,-9060.625889250077
1712056833724,-11319.371452273568
1712056833764,-12651.378609388135
1712056833805,-13613.469764026115
1712056833844,-15973.827458828455
1712056833885,-36967.3111706255
1712056833925,-37721.99501133757
1712056833965,-41363.98625727766
1712056834006,-42103.30664587207
1712056834045,-43942.47224180843
1712056834085,-44113.00971357431
1712056834125,-46102.93827512092
1712056834165,-46102.93827512092
1712056834206,-46102.93827512092
1712056834245,-46102.93827512092
1712056834286,-46102.93827512092
1712056834326,-44113.00971357431
1712056834366,-44113.00971357431
1712056834407,-44113.00971357431
1712056834446,-43942.47224180843
1712056834486,-40011.67621552432
1712056834526,-37721.99501133757
1712056834566,-36967.3111706255
1712056834607,-34857.1385882874
1712056834647,-28174.74931585556
1712056834687,-21870.003676904365
1712056834727,-7056.0959106527735
1712056834767,2079.7744842465036
1712056834808,8716.604332521325
1712056834847,11072.304948063102
1712056834887,19755.0983175179
1712056834927,19764.03181131254
1712056834967,22423.40570791089
1712056835008,29026.886685214005
1712056835047,35309.1070232871
1712056835087,41639.83713891497
1712056835128,41639.83713891497
1712056835168,41639.83713891497
1712056835208,41639.83713891497
1712056835248,41639.83713891497
1712056835288,41639.83713891497
1712056835328,41639.83713891497
1712056835368,41639.83713891497
1712056835409,41639.83713891497
1712056835448,41639.83713891497
1712056835488,32347.626874800306
1712056835528,31006.336114153964
1712056835568,31006.336114153964
1712056835609,30113.233050950803
1712056835649,24262.312301787082
1712056835689,18949.278938072268
1712056835729,14661.793020422105
1712056835769,13378.528894954594
1712056835810,12232.044010186102
1712056835849,7809.421377999941
1712056835889,6036.56847503921
1712056835929,294.05385344894603
1712056835970,-11101.699217782822
1712056836010,-11479.903703477932
1712056836050,-12391.694719206542
1712056836090,-21180.492511444958
1712056836130,-24894.662057922687
1712056836170,-24894.662057922687
1712056836211,-24894.662057922687
1712056836250,-24894.662057922687
1712056836290,-24894.662057922687
1712056836331,-29589.06823380338
1712056836371,-34219.54412812786
1712056836411,-40979.53108541784
1712056836451,-41234.16710567451
1712056836491,-42160.13504976849
1712056836531,-43082.603928118944
1712056836571,-43082.603928118944
1712056836612,-43082.603928118944
1712056836651,-43403.930798217654
1712056836692,-45154.309090975905
1712056836732,-45154.309090975905
1712056836772,-49554.97240462061
1712056836813,-60487.26079354528
1712056836852,-70392.83673770074
1712056836892,-79882.47009308264
1712056836932,-79882.47009308264
1712056836972,-79882.47009308264
1712056837013,-79882.47009308264
1712056837053,-79882.47009308264
1712056837093,-79882.47009308264
1712056837133,-79882.47009308264
1712056837173,-79882.47009308264
1712056837214,-79882.47009308264
1712056837253,-79882.47009308264
1712056837293,-79882.47009308264
1712056837333,-77123.19011260895
1712056837373,-71164.06838630466
1712056837414,-70984.76249635825
1712056837454,-66793.52021228825
1712056837494,-66686.58942344086
1712056837534,-63642.52970317402
1712056837574,-61793.379190644715
1712056837615,-58617.84615628747
1712056837654,-56609.962437650654
1712056837694,-56267.7862261706
1712056837734,-55119.53195892088
1712056837775,-54935.01650301786
1712056837815,-52415.19401040394
1712056837855,-54103.39704040298
1712056837895,-54103.39704040298
1712056837935,-54103.39704040298
1712056837975,-53746.739939761814
1712056838016,-52415.19401040394
1712056838055,-50214.34660331253
1712056838095,-49268.43752728589
1712056838136,-46513.92911103554
1712056838176,-44789.215667101555
1712056838217,-44214.4698212971
1712056838256,-43547.617403166834
1712056838296,-41450.74963509943
1712056838336,-40187.485717394855
1712056838376,-39501.189302704064
1712056838417,-36318.18664127635
1712056838457,-36318.18664127635
1712056838497,-36318.18664127635
1712056838537,-36318.18664127635
1712056838577,-36318.18664127635
1712056838618,-36318.18664127635
1712056838657,-36318.18664127635
1712056838697,-36318.18664127635
1712056838738,-36318.18664127635
1712056838778,-33595.46548312763
1712056838819,-32236.23117069318
1712056838858,-30017.358277488034
1712056838898,-27850.33661765838
1712056838938,-27699.605232430622
1712056838979,-27324.41096715862
1712056839019,-25826.74902514252
1712056839059,-24534.562734057894
1712056839099,-23162.69359314791
1712056839139,-23114.138073583832
1712056839179,-19900.97392467456
1712056839220,-19900.97392467456
1712056839259,-19900.97392467456
1712056839300,-19900.97392467456
1712056839340,-19900.97392467456
1712056839380,-19900.97392467456
1712056839421,-19900.97392467456
1712056839460,-19900.97392467456
1712056839500,-19900.97392467456
1712056839541,-19900.97392467456
1712056839581,-19900.97392467456
1712056839621,-18950.109792076517
1712056839661,-16321.487239863258
1712056839701,-15908.71355912718
1712056839741,-15522.470851927064
1712056839781,-15123.503834366566
1712056839822,-14251.865744603332
1712056839862,-12047.449949640548
1712056839902,-11400.33488516137
1712056839942,-8096.930147797102
1712056839982,-7804.445973924827
1712056840023,-7804.445973924827
1712056840062,-7804.445973924827
1712056840103,-7804.445973924827
1712056840143,-7804.445973924827
1712056840183,-7804.445973924827
1712056840223,-11400.33488516137
1712056840263,-11400.33488516137
1712056840303,-11400.33488516137
1712056840343,-11400.33488516137
1712056840383,-11400.33488516137
1712056840424,-9567.769202919677
1712056840463,-9567.769202919677
1712056840503,-9567.769202919677
1712056840544,-9567.769202919677
1712056840584,-9567.769202919677
1712056840624,-7804.445973924827
1712056840664,-7366.811005807249
1712056840704,-7366.811005807249
1712056840744,-7366.811005807249
1712056840784,-7366.811005807249
1712056840825,-7366.811005807249
1712056840864,-7366.811005807249
1712056840904,-7366.811005807249
1712056840944,-9567.769202919677
1712056840985,-10004.412591109984
1712056841025,-10225.150346172042
1712056841065,-10225.150346172042
1712056841105,-10225.150346172042
1712056841145,-10225.150346172042
1712056841185,-10225.150346172042
1712056841226,-10225.150346172042
1712056841265,-11477.973728478886
1712056841305,-11735.719767580042
1712056841345,-13779.445310242241
1712056841386,-13779.445310242241
1712056841426,-13779.445310242241
1712056841466,-13779.445310242241
1712056841506,-13779.445310242241
1712056841546,-13779.445310242241
1712056841586,-13779.445310242241
1712056841627,-13779.445310242241
1712056841666,-13779.445310242241
1712056841706,-13779.445310242241
1712056841747,-13779.445310242241
1712056841787,-13779.445310242241
1712056841827,-13779.445310242241
1712056841867,-13779.445310242241
1712056841907,-13779.445310242241
1712056841947,-13779.445310242241
1712056841987,-13779.445310242241
1712056842028,-13779.445310242241
1712056842067,-13779.445310242241
1712056842108,-13779.445310242241
1712056842148,-13779.445310242241
1712056842188,-12542.027496545343
1712056842229,-12542.027496545343
1712056842268,-12542.027496545343
1712056842308,-12542.027496545343
1712056842348,-12542.027496545343
1712056842388,-12542.027496545343
1712056842429,-12542.027496545343
1712056842469,-12542.027496545343
1712056842508,-12542.027496545343
1712056842549,-12542.027496545343
1712056842589,-12542.027496545343
1712056842630,-12542.027496545343
1712056842669,-12542.027496545343
1712056842709,-12542.027496545343
1712056842749,-12542.027496545343
1712056842789,-12542.027496545343
1712056842830,-12542.027496545343
1712056842869,-12542.027496545343
1712056842910,-12542.027496545343
1712056842950,-12542.027496545343
1712056842990,-12542.027496545343
1712056843031,-12754.237743669655
1712056843070,-12754.237743669655
1712056843110,-12754.237743669655
1712056843150,-12754.237743669655
1712056843190,-12754.237743669655
1712056843231,-12754.237743669655
1712056843270,-12754.237743669655
1712056843311,-12754.237743669655
1712056843351,-12754.237743669655
1712056843391,-12754.237743669655
1712056843432,-12754.237743669655
1712056843471,-9813.266143281478
1712056843511,-5867.836516800104
1712056843551,-5867.836516800104
1712056843591,-5867.836516800104
1712056843632,-5867.836516800104
1712056843672,-5867.836516800104
1712056843712,-5867.836516800104
1712056843752,-5867.836516800104
1712056843792,-5867.836516800104
1712056843833,-5867.836516800104
1712056843872,-5867.836516800104
1712056843912,-5867.836516800104
1712056843952,-5416.187959467992
1712056843992,-5416.187959467992
1712056844033,-5416.187959467992
1712056844073,-5416.187959467992
1712056844113,-5416.187959467992
1712056844153,-5416.187959467992
1712056844193,-5416.187959467992
1712056844234,-5416.187959467992
1712056844273,-5416.187959467992
1712056844313,-5416.187959467992
1712056844354,-5416.187959467992
1712056844394,-1668.9687431030907
1712056844435,1418.3747001893353
1712056844474,1418.3747001893353
1712056844514,1418.3747001893353
1712056844554,1418.3747001893353
1712056844594,1418.3747001893353
1712056844635,1418.3747001893353
1712056844675,1418.3747001893353
1712056844715,1418.3747001893353
1712056844755,1418.3747001893353
1712056844795,1418.3747001893353
1712056844836,1418.3747001893353
1712056844875,2108.3080847733654
1712056844915,2108.3080847733654
1712056844956,2108.3080847733654
1712056844996,2108.3080847733654
1712056845037,2108.3080847733654
1712056845076,2108.3080847733654
1712056845116,2108.3080847733654
1712056845156,2108.3080847733654
1712056845196,2108.3080847733654
1712056845237,2108.3080847733654
1712056845277,1170.1417824360542
1712056845317,1170.1417824360542
1712056845357,1170.1417824360542
1712056845397,1170.1417824360542
1712056845438,1170.1417824360542
1712056845478,1170.1417824360542
1712056845518,1170.1417824360542
1712056845558,1170.1417824360542
1712056845598,1170.1417824360542
1712056845639,1170.1417824360542
1712056845678,281.36957102664746
1712056845718,281.36957102664746
1712056845758,281.36957102664746
1712056845798,281.36957102664746
1712056845839,281.36957102664746
1712056845879,281.36957102664746
1712056845919,281.36957102664746
1712056845959,281.36957102664746
1712056845999,281.36957102664746
1712056846040,281.36957102664746
1712056846080,281.36957102664746
1712056846120,281.36957102664746
1712056846160,281.36957102664746
1712056846200,281.36957102664746
1712056846241,281.36957102664746
1712056846280,281.36957102664746
1712056846320,281.36957102664746
1712056846360,281.36957102664746
1712056846401,281.36957102664746
1712056846442,281.36957102664746
1712056846481,281.36957102664746
1712056846521,-1547.5453112509567
1712056846561,-9363.360411528032
1712056846601,-9363.360411528032
1712056846642,-9363.360411528032
1712056846681,-9363.360411528032
1712056846722,-9363.360411528032
1712056846762,-9363.360411528032
1712056846802,-9363.360411528032
1712056846842,-9363.360411528032
1712056846882,-9363.360411528032
1712056846922,-9363.360411528032
1712056846962,-9363.360411528032
1712056847002,-5407.700376656838
1712056847043,-2094.188940402586
1712056847082,-2094.188940402586
1712056847122,-2094.188940402586
1712056847163,-2094.188940402586
1712056847203,-2094.188940402586
1712056847243,-2094.188940402586
1712056847283,-2094.188940402586
1712056847323,-2094.188940402586
1712056847363,-2094.188940402586
1712056847403,-2094.188940402586
1712056847444,-2094.188940402586
1712056847483,-6053.426770484308
1712056847524,-10271.77569180238
1712056847564,-10271.77569180238
1712056847604,-10271.77569180238
1712056847645,-10271.77569180238
1712056847684,-10271.77569180238
1712056847724,-10271.77569180238
1712056847764,-10271.77569180238
1712056847804,-10271.77569180238
1712056847845,-10271.77569180238
1712056847885,-10271.77569180238
1712056847925,-10271.77569180238
1712056847965,-6485.357364836615
1712056848005,-3042.0416499762796
1712056848046,96.47896682145074
1712056848085,96.47896682145074
1712056848125,96.47896682145074
1712056848165,96.47896682145074
1712056848205,96.47896682145074
1712056848246,96.47896682145074
1712056848286,96.47896682145074
1712056848326,96.47896682145074
1712056848366,96.47896682145074
1712056848406,96.47896682145074
1712056848447,96.47896682145074
1712056848486,-3632.0675658935215
1712056848526,-6079.429979634471
1712056848566,-6079.429979634471
1712056848606,-6079.429979634471
1712056848647,-6079.429979634471
1712056848686,-6079.429979634471
1712056848727,-6079.429979634471
1712056848767,-6079.429979634471
1712056848807,-6079.429979634471
1712056848848,-6079.429979634471
1712056848887,-6079.429979634471
1712056848927,-6079.429979634471
1712056848967,-2294.466608368326
1712056849007,1212.815569350263
1712056849048,4187.648278247565
1712056849088,5298.482093125815
1712056849128,5298.482093125815
1712056849168,5298.482093125815
1712056849208,5298.482093125815
1712056849249,5298.482093125815
1712056849288,5298.482093125815
1712056849328,5298.482093125815
1712056849368,5298.482093125815
1712056849408,5298.482093125815
1712056849449,5298.482093125815
1712056849489,5298.482093125815
1712056849529,-3440.957377615152
1712056849569,-3440.957377615152
1712056849609,-3440.957377615152
1712056849650,-3440.957377615152
1712056849689,-3440.957377615152
1712056849729,-3440.957377615152
1712056849769,-3440.957377615152
1712056849810,-3440.957377615152
1712056849850,-3440.957377615152
1712056849890,-3440.957377615152
1712056849930,-3440.957377615152
1712056849970,-313.5316785555333
1712056850010,3108.7076780141797
1712056850051,6624.254556879401
1712056850090,6624.254556879401
1712056850131,6624.254556879401
1712056850171,6624.254556879401
1712056850211,6624.254556879401
1712056850252,6624.254556879401
1712056850291,6624.254556879401
1712056850331,6624.254556879401
1712056850371,6624.254556879401
1712056850412,6624.254556879401
1712056850452,6624.254556879401
1712056850492,5100.751281940378
1712056850532,-210.53008544933982
1712056850572,-210.53008544933982
1712056850612,-210.53008544933982
1712056850653,-210.53008544933982
1712056850693,-210.53008544933982
1712056850733,-210.53008544933982
1712056850773,-210.53008544933982
1712056850813,-210.53008544933982
1712056850854,-210.53008544933982
1712056850893,-210.53008544933982
1712056850933,-210.53008544933982
1712056850973,2838.337733207736
1712056851014,5703.9702655703295
1712056851054,5703.9702655703295
1712056851094,5703.9702655703295
1712056851134,5703.9702655703295
1712056851174,5703.9702655703295
1712056851214,5703.9702655703295
1712056851255,5703.9702655703295
1712056851294,5703.9702655703295
1712056851334,5703.9702655703295
1712056851375,5703.9702655703295
1712056851415,5703.9702655703295
1712056851455,4117.412009503227
1712056851495,1509.453365559224
1712056851535,1509.453365559224
1712056851575,1509.453365559224
1712056851615,1509.453365559224
1712056851656,1509.453365559224
1712056851696,1509.453365559224
1712056851736,1509.453365559224
1712056851776,1509.453365559224
1712056851816,1509.453365559224
1712056851857,1509.453365559224
1712056851896,1509.453365559224
1712056851937,1509.453365559224
1712056851977,1509.453365559224
1712056852017,1509.453365559224
1712056852058,1509.453365559224
1712056852097,1509.453365559224
1712056852137,1509.453365559224
1712056852177,1509.453365559224
1712056852218,1509.453365559224
1712056852258,1509.453365559224
1712056852298,1509.453365559224
1712056852338,-3473.6255907248706
1712056852378,-3473.6255907248706
1712056852418,-3473.6255907248706
1712056852459,-3473.6255907248706
1712056852498,-3473.6255907248706
1712056852539,-3473.6255907248706
1712056852579,-3473.6255907248706
1712056852619,-3473.6255907248706
1712056852660,-3473.6255907248706
1712056852699,-3473.6255907248706
1712056852739,-3473.6255907248706
1712056852779,-3445.1905438117683
1712056852820,-1570.8529023062438
1712056852860,-1570.8529023062438
1712056852900,-1570.8529023062438
1712056852940,-1570.8529023062438
1712056852980,-1570.8529023062438
1712056853020,-1570.8529023062438
1712056853061,-1570.8529023062438
1712056853100,-1570.8529023062438
1712056853140,-1570.8529023062438
1712056853180,-1570.8529023062438
1712056853220,-1570.8529023062438
1712056853261,-10415.288063894259
1712056853301,-10415.288063894259
1712056853341,-10415.288063894259
1712056853381,-10415.288063894259
1712056853421,-10415.288063894259
1712056853462,-10415.288063894259
1712056853501,-10415.288063894259
1712056853541,-10415.288063894259
1712056853581,-10415.288063894259
1712056853622,-10415.288063894259
1712056853663,-10415.288063894259
1712056853702,-7192.776121346746
1712056853742,-4164.638071716297
1712056853782,-297.4494914433453
1712056853822,-297.4494914433453
1712056853863,-297.4494914433453
1712056853902,-297.4494914433453
1712056853942,-297.4494914433453
1712056853982,-297.4494914433453
1712056854023,-297.4494914433453
1712056854063,-297.4494914433453
1712056854103,-297.4494914433453
1712056854143,-297.4494914433453
1712056854183,-297.4494914433453
1712056854223,-2126.1608599142637
1712056854264,-5321.712743531447
1712056854303,-5321.712743531447
1712056854343,-5321.712743531447
1712056854384,-5321.712743531447
1712056854424,-5321.712743531447
1712056854464,-5321.712743531447
1712056854504,-5321.712743531447
1712056854544,-5321.712743531447
1712056854584,-5321.712743531447
1712056854624,-5321.712743531447
1712056854665,-5321.712743531447
1712056854704,-2490.6930297045037
1712056854744,800.3076232748572
1712056854785,3652.63434281433
1712056854825,3652.63434281433
1712056854865,3652.63434281433
1712056854905,3652.63434281433
1712056854945,3652.63434281433
1712056854985,3652.63434281433
1712056855025,3652.63434281433
1712056855066,3652.63434281433
1712056855106,3652.63434281433
1712056855146,3652.63434281433
1712056855186,3652.63434281433
1712056855226,2750.0229876823723
1712056855267,-2012.1064158612862
1712056855306,-2012.1064158612862
1712056855346,-2012.1064158612862
1712056855386,-2012.1064158612862
1712056855426,-2012.1064158612862
1712056855467,-2012.1064158612862
1712056855507,-2012.1064158612862
1712056855547,-2012.1064158612862
1712056855587,-2012.1064158612862
1712056855627,-2012.1064158612862
1712056855668,-2012.1064158612862
1712056855707,586.9657538963947
1712056855747,3483.3076931117103
1712056855787,5417.534169459948
1712056855828,5417.534169459948
1712056855869,5417.534169459948
1712056855908,5417.534169459948
1712056855948,5417.534169459948
1712056855988,5417.534169459948
1712056856028,5417.534169459948
1712056856069,5417.534169459948
1712056856109,5417.534169459948
1712056856149,5417.534169459948
1712056856189,5417.534169459948
1712056856229,3292.9078887659125
1712056856270,319.78072399040684
1712056856309,319.78072399040684
1712056856349,319.78072399040684
1712056856389,319.78072399040684
1712056856430,319.78072399040684
1712056856470,319.78072399040684
1712056856510,319.78072399040684
1712056856550,319.78072399040684
1712056856590,319.78072399040684
1712056856630,319.78072399040684
1712056856671,319.78072399040684
1712056856711,3108.0663875164464
1712056856751,6082.169418324251
1712056856791,8586.399021322373
1712056856831,9910.463618821697
1712056856872,9910.463618821697
1712056856911,9910.463618821697
1712056856951,9910.463618821697
1712056856992,9910.463618821697
1712056857032,9910.463618821697
1712056857073,9910.463618821697
1712056857112,9910.463618821697
1712056857152,9910.463618821697
1712056857192,9910.463618821697
1712056857232,9910.463618821697
1712056857273,5421.6811706086155
1712056857313,5421.6811706086155
1712056857353,5421.6811706086155
1712056857393,5421.6811706086155
1712056857433,5421.6811706086155
1712056857474,5421.6811706086155
1712056857514,5421.6811706086155
1712056857554,5421.6811706086155
1712056857594,5421.6811706086155
1712056857634,5421.6811706086155
1712056857675,5421.6811706086155
1712056857714,7542.354371399619
1712056857755,9459.322933218675
1712056857795,9459.322933218675
1712056857835,9459.322933218675
1712056857876,9459.322933218675
1712056857915,9459.322933218675
1712056857955,9459.322933218675
1712056857996,9459.322933218675
1712056858036,9459.322933218675
1712056858077,9459.322933218675
1712056858116,9459.322933218675
1712056858156,9459.322933218675
1712056858196,4370.314861935563
1712056858237,4370.314861935563
1712056858277,4370.314861935563
1712056858317,4370.314861935563
1712056858357,4370.314861935563
1712056858397,4370.314861935563
1712056858437,4370.314861935563
1712056858478,4370.314861935563
1712056858518,4370.314861935563
1712056858558,4370.314861935563
1712056858598,4370.314861935563
1712056858638,6294.390213215491
1712056858679,8634.369432731997
1712056858718,8634.369432731997
1712056858758,8634.369432731997
1712056858798,8634.369432731997
1712056858838,8634.369432731997
1712056858879,8634.369432731997
1712056858918,8634.369432731997
1712056858959,8634.369432731997
1712056858999,8634.369432731997
1712056859039,8634.369432731997
1712056859080,8634.369432731997
1712056859119,2907.6912875422277
1712056859159,-2378.0870974527206
1712056859199,-2378.0870974527206
1712056859239,-2378.0870974527206
1712056859280,-2378.0870974527206
1712056859320,-2378.0870974527206
1712056859360,-2378.0870974527206
1712056859400,-2378.0870974527206
1712056859440,-2378.0870974527206
1712056859480,-2378.0870974527206
1712056859520,-2378.0870974527206
1712056859560,-2378.0870974527206
1712056859600,-159.75348600000143
1712056859640,2230.379334414145
1712056859681,2230.379334414145
1712056859720,2230.379334414145
1712056859761,2230.379334414145
1712056859801,2230.379334414145
1712056859841,2230.379334414145
1712056859882,2230.379334414145
1712056859921,2230.379334414145
1712056859961,2230.379334414145
1712056860001,2230.379334414145
1712056860041,2230.379334414145
1712056860082,415.97890263050795
1712056860121,-6768.781616947148
1712056860162,-6768.781616947148
1712056860202,-6768.781616947148
1712056860242,-6768.781616947148
1712056860283,-6768.781616947148
1712056860322,-6768.781616947148
1712056860362,-6768.781616947148
1712056860402,-6768.781616947148
1712056860442,-6768.781616947148
1712056860483,-6768.781616947148
1712056860523,-6768.781616947148
1712056860562,-4666.993615310639
1712056860603,-2461.7961868185084
1712056860643,55.91964196879417
1712056860684,55.91964196879417
1712056860723,55.91964196879417
1712056860763,55.91964196879417
1712056860803,55.91964196879417
1712056860843,55.91964196879417
1712056860884,55.91964196879417
1712056860923,55.91964196879417
1712056860964,55.91964196879417
1712056861004,55.91964196879417
1712056861044,55.91964196879417
1712056861085,-4953.497754485346
1712056861124,-7354.419380245265
1712056861164,-7354.419380245265
1712056861204,-7354.419380245265
1712056861245,-7354.419380245265
1712056861285,-7354.419380245265
1712056861325,-7354.419380245265
1712056861365,-7354.419380245265
1712056861405,-7354.419380245265
1712056861445,-7354.419380245265
1712056861486,-7354.419380245265
1712056861525,-7354.419380245265
1712056861565,-4396.835276117781
1712056861606,-1540.6380183603615
1712056861646,462.46682948665693
1712056861686,462.46682948665693
1712056861726,462.46682948665693
1712056861766,462.46682948665693
1712056861806,462.46682948665693
1712056861846,462.46682948665693
1712056861887,462.46682948665693
1712056861926,462.46682948665693
1712056861967,462.46682948665693
1712056862007,462.46682948665693
1712056862047,462.46682948665693
1712056862088,-3002.4950791369192
1712056862127,-3107.267032017
1712056862167,-3107.267032017
1712056862207,-3107.267032017
1712056862247,-3107.267032017
1712056862288,-3107.267032017
1712056862328,-3107.267032017
1712056862368,-3107.267032017
1712056862408,-3107.267032017
1712056862448,-3107.267032017
1712056862489,-3107.267032017
1712056862528,-3107.267032017
1712056862569,-660.5722521811258
1712056862609,-660.5722521811258
1712056862649,-660.5722521811258
1712056862690,-660.5722521811258
1712056862729,-660.5722521811258
1712056862769,-660.5722521811258
1712056862810,-660.5722521811258
1712056862849,-660.5722521811258
1712056862890,-660.5722521811258
1712056862930,-660.5722521811258
1712056862970,-660.5722521811258
1712056863010,-3015.980092414189
1712056863050,-3015.980092414189
1712056863091,-3015.980092414189
1712056863130,-3015.980092414189
1712056863171,-3015.980092414189
1712056863211,-3015.980092414189
1712056863251,-3015.980092414189
1712056863292,-3015.980092414189
1712056863331,-3015.980092414189
1712056863371,-3015.980092414189
1712056863412,-3015.980092414189
1712056863452,-408.33886446850374
1712056863492,-408.33886446850374
1712056863532,-408.33886446850374
1712056863572,-408.33886446850374
1712056863612,-408.33886446850374
1712056863653,-408.33886446850374
1712056863693,-408.33886446850374
1712056863733,-408.33886446850374
1712056863773,-408.33886446850374
1712056863813,-408.33886446850374
1712056863853,-408.33886446850374
1712056863894,-1550.1213440969586
1712056863933,-4404.046446150169
1712056863973,-4404.046446150169
1712056864014,-4404.046446150169
1712056864054,-4404.046446150169
1712056864095,-4404.046446150169
1712056864134,-4404.046446150169
1712056864174,-4404.046446150169
1712056864214,-4404.046446150169
1712056864255,-4404.046446150169
1712056864295,-4404.046446150169
1712056864335,-4404.046446150169
1712056864375,-1955.0512866084464
1712056864415,-985.8193863641936
1712056864455,-985.8193863641936
1712056864496,-985.8193863641936
1712056864536,-985.8193863641936
1712056864576,-985.8193863641936
1712056864616,-985.8193863641936
1712056864656,-985.8193863641936
1712056864697,-985.8193863641936
1712056864736,-985.8193863641936
1712056864777,-985.8193863641936
1712056864817,-985.8193863641936
1712056864857,-4389.609768714523
1712056864897,-4389.609768714523
1712056864937,-4389.609768714523
1712056864977,-4389.609768714523
1712056865017,-4389.609768714523
1712056865057,-4389.609768714523
1712056865098,-4389.609768714523
1712056865137,-4389.609768714523
1712056865177,-4389.609768714523
1712056865218,-4389.609768714523
1712056865258,-4389.609768714523
1712056865298,-1815.9342898256145
1712056865338,797.7425615089014
1712056865378,3061.0564408937935
1712056865418,3061.0564408937935
1712056865458,3061.0564408937935
1712056865499,3061.0564408937935
1712056865538,3061.0564408937935
1712056865579,3061.0564408937935
1712056865619,3061.0564408937935
1712056865659,3061.0564408937935
1712056865700,3061.0564408937935
1712056865739,3061.0564408937935
1712056865779,3061.0564408937935
1712056865819,-1151.7665315181948
1712056865859,-1151.7665315181948
1712056865900,-1151.7665315181948
1712056865939,-1151.7665315181948
1712056865979,-1151.7665315181948
1712056866019,-1151.7665315181948
1712056866060,-1151.7665315181948
1712056866100,-1151.7665315181948
1712056866140,-1151.7665315181948
1712056866180,-1151.7665315181948
1712056866220,-1151.7665315181948
1712056866260,-616.3877083130646
1712056866301,1519.0050708088093
1712056866340,3928.7284138049
1712056866380,3928.7284138049
1712056866421,3928.7284138049
1712056866461,3928.7284138049
1712056866501,3928.7284138049
1712056866541,3928.7284138049
1712056866581,3928.7284138049
1712056866621,3928.7284138049
1712056866661,3928.7284138049
1712056866702,3928.7284138049
1712056866741,3928.7284138049
1712056866782,1953.860399207333
1712056866822,1953.860399207333
1712056866862,1953.860399207333
1712056866903,1953.860399207333
1712056866942,1953.860399207333
1712056866982,1953.860399207333
1712056867022,1953.860399207333
1712056867062,1953.860399207333
1712056867103,1953.860399207333
1712056867143,1953.860399207333
1712056867183,1953.860399207333
1712056867223,4659.333727780497
1712056867263,4659.333727780497
1712056867304,4659.333727780497
1712056867343,4659.333727780497
1712056867383,4659.333727780497
1712056867423,4659.333727780497
1712056867464,4659.333727780497
1712056867504,4659.333727780497
1712056867544,4659.333727780497
1712056867584,4659.333727780497
1712056867624,4659.333727780497
1712056867664,2492.047573534306
1712056867705,2492.047573534306
1712056867744,2492.047573534306
1712056867784,2492.047573534306
1712056867825,2492.047573534306
1712056867865,2492.047573534306
1712056867905,2492.047573534306
1712056867945,2492.047573534306
1712056867985,2492.047573534306
1712056868025,2492.047573534306
1712056868065,2492.047573534306
1712056868106,1199.6186779655982
1712056868145,1199.6186779655982
1712056868186,1199.6186779655982
1712056868226,1199.6186779655982
1712056868266,1199.6186779655982
1712056868307,1024.9622418424115
1712056868346,1024.9622418424115
1712056868386,1024.9622418424115
1712056868426,1024.9622418424115
1712056868467,1024.9622418424115
1712056868507,-3292.415872863494
1712056868547,-3703.342822369188
1712056868587,-3703.342822369188
1712056868629,-3703.342822369188
1712056868669,-3703.342822369188
1712056868710,-3703.342822369188
1712056868749,-3703.342822369188
1712056868790,-3703.342822369188
1712056868830,-3703.342822369188
1712056868870,-3703.342822369188
1712056868911,-3703.342822369188
1712056868950,-5297.9232994597405
1712056868990,-5297.9232994597405
1712056869030,-5297.9232994597405
1712056869071,-5297.9232994597405
1712056869111,-5297.9232994597405
1712056869151,-5297.9232994597405
1712056869191,-5297.9232994597405
1712056869231,-5297.9232994597405
1712056869271,-5297.9232994597405
1712056869312,-5297.9232994597405
1712056869352,-8063.72930646874
1712056869392,-12327.599235560512
1712056869432,-12327.599235560512
1712056869472,-12327.599235560512
1712056869513,-12327.599235560512
1712056869552,-12327.599235560512
1712056869592,-12327.599235560512
1712056869633,-12327.599235560512
1712056869673,-12327.599235560512
1712056869713,-12327.599235560512
1712056869753,-12327.599235560512
1712056869793,-12327.599235560512
1712056869833,-11215.358843270456
1712056869873,-11215.358843270456
1712056869914,-11215.358843270456
1712056869954,-11215.358843270456
1712056869994,-11215.358843270456
1712056870034,-11215.358843270456
1712056870074,-11215.358843270456
1712056870115,-11215.358843270456
1712056870155,-11215.358843270456
1712056870195,-11215.358843270456
1712056870235,-11215.358843270456
1712056870275,-14573.162273427937
1712056870316,-14573.162273427937
1712056870355,-14573.162273427937
1712056870396,-14573.162273427937
1712056870436,-14573.162273427937
1712056870476,-14573.162273427937
1712056870517,-14573.162273427937
1712056870556,-14573.162273427937
1712056870596,-14573.162273427937
1712056870636,-14573.162273427937
1712056870677,-14573.162273427937
1712056870717,-12295.523269329686
1712056870757,-9781.417230953928
1712056870797,-8811.021881188499
1712056870837,-8811.021881188499
1712056870877,-8811.021881188499
1712056870918,-8811.021881188499
1712056870957,-8811.021881188499
1712056870998,-8811.021881188499
1712056871037,-8811.021881188499
1712056871078,-8811.021881188499
1712056871118,-8811.021881188499
1712056871158,-8811.021881188499
1712056871198,-8811.021881188499
1712056871238,-8811.021881188499
1712056871278,-8811.021881188499
1712056871319,-8811.021881188499
1712056871358,-8811.021881188499
1712056871398,-8811.021881188499
1712056871438,-8811.021881188499
1712056871479,-8811.021881188499
1712056871519,-8811.021881188499
1712056871559,-8811.021881188499
1712056871599,-8811.021881188499
1712056871639,-6597.831731199287
1712056871679,-3912.130403987132
1712056871720,-1420.8746553761885
1712056871759,-1420.8746553761885
1712056871799,-1420.8746553761885
1712056871840,-1420.8746553761885
1712056871880,-1420.8746553761885
1712056871920,-1420.8746553761885
1712056871960,-1420.8746553761885
1712056872000,-1420.8746553761885
1712056872040,-1420.8746553761885
1712056872080,-1420.8746553761885
1712056872121,-1420.8746553761885
1712056872160,-467.73918178025633
1712056872201,-467.73918178025633
1712056872241,-467.73918178025633
1712056872281,-467.73918178025633
1712056872322,-467.73918178025633
1712056872361,-467.73918178025633
1712056872401,-467.73918178025633
1712056872441,-467.73918178025633
1712056872481,-467.73918178025633
1712056872522,-467.73918178025633
1712056872561,-344.48148278845474
1712056872601,-344.48148278845474
1712056872642,-344.48148278845474
1712056872682,-344.48148278845474
1712056872722,-344.48148278845474
1712056872762,-344.48148278845474
1712056872802,-344.48148278845474
1712056872842,-344.48148278845474
1712056872882,-344.48148278845474
1712056872923,-344.48148278845474
1712056872962,903.7306435406208
1712056873002,1267.304253097158
1712056873043,1267.304253097158
1712056873083,1267.304253097158
1712056873123,1267.304253097158
1712056873163,1267.304253097158
1712056873203,1267.304253097158
1712056873243,1267.304253097158
1712056873283,1267.304253097158
1712056873324,1267.304253097158
1712056873363,1267.304253097158
1712056873404,2768.413085065782
1712056873444,4655.673953495454
1712056873484,4655.673953495454
1712056873525,4655.673953495454
1712056873564,4655.673953495454
1712056873604,4655.673953495454
1712056873644,4655.673953495454
1712056873684,4655.673953495454
1712056873725,4655.673953495454
1712056873765,4655.673953495454
1712056873805,4655.673953495454
1712056873845,4655.673953495454
1712056873885,2985.6320616509765
1712056873926,2985.6320616509765
1712056873965,2985.6320616509765
1712056874005,2985.6320616509765
1712056874045,2985.6320616509765
1712056874086,2985.6320616509765
1712056874126,2985.6320616509765
1712056874166,2985.6320616509765
1712056874206,2985.6320616509765
1712056874246,2985.6320616509765
1712056874286,2985.6320616509765
1712056874327,3608.3825332298875
1712056874367,6036.091917190235
1712056874407,6036.091917190235
1712056874447,6036.091917190235
1712056874487,6036.091917190235
1712056874528,6036.091917190235
1712056874567,6036.091917190235
1712056874608,6036.091917190235
1712056874647,6036.091917190235
1712056874688,6036.091917190235
1712056874729,6036.091917190235
1712056874768,6036.091917190235
1712056874808,4028.9801996902097
1712056874848,4028.9801996902097
1712056874888,4028.9801996902097
1712056874929,4028.9801996902097
1712056874969,4028.9801996902097
1712056875009,4028.9801996902097
1712056875049,4028.9801996902097
1712056875089,4028.9801996902097
1712056875130,4028.9801996902097
1712056875169,4028.9801996902097
1712056875209,4028.9801996902097
1712056875249,4461.188933534548
1712056875290,6473.4144242359325
1712056875331,8637.360794265987
1712056875370,8637.360794265987
1712056875410,8637.360794265987
1712056875450,8637.360794265987
1712056875490,8637.360794265987
1712056875531,8637.360794265987
1712056875571,8637.360794265987
1712056875611,8637.360794265987
1712056875651,8637.360794265987
1712056875691,8637.360794265987
1712056875732,8637.360794265987
1712056875771,6862.226382709807
1712056875811,6862.226382709807
1712056875851,6862.226382709807
1712056875891,6862.226382709807
1712056875932,6862.226382709807
1712056875972,6862.226382709807
1712056876012,6862.226382709807
1712056876052,6862.226382709807
1712056876092,6862.226382709807
1712056876133,6862.226382709807
1712056876173,6862.226382709807
1712056876212,6862.226382709807
1712056876253,6862.226382709807
1712056876293,6862.226382709807
1712056876334,6862.226382709807
1712056876373,6862.226382709807
1712056876413,6862.226382709807
1712056876453,6862.226382709807
1712056876494,6862.226382709807
1712056876534,6862.226382709807
1712056876574,6862.226382709807
1712056876614,5435.447642891202
1712056876654,1797.1122604361735
1712056876694,1797.1122604361735
1712056876735,1797.1122604361735
1712056876775,1797.1122604361735
1712056876815,1797.1122604361735
1712056876855,1797.1122604361735
1712056876895,1797.1122604361735
1712056876936,1797.1122604361735
1712056876975,1797.1122604361735
1712056877016,1797.1122604361735
1712056877056,982.1344998488203
1712056877096,398.627080473816
1712056877136,398.627080473816
1712056877176,398.627080473816
1712056877216,398.627080473816
1712056877256,398.627080473816
1712056877296,318.0044808778912
1712056877337,318.0044808778912
1712056877376,318.0044808778912
1712056877416,318.0044808778912
1712056877456,-797.89701599814
1712056877497,-4584.382548683556
1712056877537,-4584.382548683556
1712056877577,-4584.382548683556
1712056877617,-4584.382548683556
1712056877657,-4584.382548683556
1712056877697,-4584.382548683556
1712056877738,-4584.382548683556
1712056877777,-4584.382548683556
1712056877817,-4584.382548683556
1712056877858,-4584.382548683556
1712056877898,-4584.382548683556
1712056877938,-2856.336775973439
1712056877978,-2581.447428340558
1712056878018,-2581.447428340558
1712056878058,-2581.447428340558
1712056878098,-2581.447428340558
1712056878139,-2581.447428340558
1712056878178,-2581.447428340558
1712056878219,-2581.447428340558
1712056878258,-2581.447428340558
1712056878299,-2581.447428340558
1712056878339,-2581.447428340558
1712056878379,-2581.447428340558
1712056878419,-7546.400115865283
1712056878459,-7546.400115865283
1712056878499,-7546.400115865283
1712056878540,-7546.400115865283
1712056878579,-7546.400115865283
1712056878619,-7546.400115865283
1712056878659,-7546.400115865283
1712056878700,-7546.400115865283
1712056878740,-7546.400115865283
1712056878780,-7546.400115865283
1712056878820,-7546.400115865283
1712056878860,-5213.114708355162
1712056878900,-5213.114708355162
1712056878941,-5213.114708355162
1712056878980,-5213.114708355162
1712056879021,-5213.114708355162
1712056879061,-5213.114708355162
1712056879101,-5213.114708355162
1712056879141,-5213.114708355162
1712056879181,-5213.114708355162
1712056879221,-5213.114708355162
1712056879261,-5213.114708355162
1712056879301,-9513.097106124274
1712056879342,-9513.097106124274
1712056879381,-9513.097106124274
1712056879422,-9513.097106124274
1712056879462,-9513.097106124274
1712056879502,-9513.097106124274
1712056879543,-9513.097106124274
1712056879582,-9513.097106124274
1712056879622,-9513.097106124274
1712056879663,-9513.097106124274
1712056879702,-9513.097106124274
1712056879743,-6649.506885297596
1712056879783,-6649.506885297596
1712056879823,-6649.506885297596
1712056879863,-6649.506885297596
1712056879903,-6649.506885297596
1712056879944,-6649.506885297596
1712056879983,-6649.506885297596
1712056880023,-6649.506885297596
1712056880063,-6649.506885297596
1712056880104,-6649.506885297596
1712056880144,-5313.243526460137
1712056880184,-5057.267100600759
1712056880224,-5057.267100600759
1712056880264,-5057.267100600759
1712056880304,-5057.267100600759
1712056880345,-5057.267100600759
1712056880384,-5057.267100600759
1712056880424,-5057.267100600759
1712056880465,-5057.267100600759
1712056880505,-5057.267100600759
1712056880545,-5313.243526460137
1712056880585,-6769.831485882867
1712056880625,-6769.831485882867
1712056880664,-6769.831485882867
1712056880704,-6769.831485882867
1712056880745,-6769.831485882867
1712056880785,-6769.831485882867
1712056880825,-6769.831485882867
1712056880865,-6769.831485882867
1712056880905,-6769.831485882867
1712056880946,-7507.650959068909
1712056880985,-7507.650959068909
1712056881025,-7507.650959068909
1712056881066,-7507.650959068909
1712056881106,-7507.650959068909
1712056881147,-7507.650959068909
1712056881186,-7507.650959068909
1712056881226,-7507.650959068909
1712056881266,-7507.650959068909
1712056881306,-7507.650959068909
1712056881347,-10006.382964963326
1712056881387,-10006.382964963326
1712056881427,-10006.382964963326
1712056881467,-10006.382964963326
1712056881507,-10006.382964963326
1712056881548,-10006.382964963326
1712056881587,-10006.382964963326
1712056881627,-10006.382964963326
1712056881668,-10006.382964963326
1712056881708,-10006.382964963326
1712056881748,-8173.181193280965
1712056881788,-8173.181193280965
1712056881828,-8173.181193280965
1712056881868,-8173.181193280965
1712056881908,-8173.181193280965
1712056881949,-8173.181193280965
1712056881989,-8173.181193280965
1712056882029,-8173.181193280965
1712056882069,-8173.181193280965
1712056882109,-8173.181193280965
1712056882150,-8173.181193280965
1712056882190,-7629.769840557827
1712056882230,-7629.769840557827
1712056882270,-7629.769840557827
1712056882310,-7629.769840557827
1712056882351,-7629.769840557827
1712056882390,-7629.769840557827
1712056882430,-7629.769840557827
1712056882470,-7629.769840557827
1712056882511,-7629.769840557827
1712056882552,-7629.769840557827
1712056882591,-7629.769840557827
1712056882631,-7629.769840557827
1712056882671,-7629.769840557827
1712056882711,-7629.769840557827
1712056882752,-7629.769840557827
1712056882792,-7629.769840557827
1712056882832,-7629.769840557827
1712056882872,-7629.769840557827
1712056882912,-7629.769840557827
1712056882953,-7629.769840557827
1712056882992,-7629.769840557827
1712056883033,-5704.776012556162
1712056883073,-3171.5373393129557
1712056883113,-3171.5373393129557
1712056883154,-3171.5373393129557
1712056883193,-3171.5373393129557
1712056883233,-3171.5373393129557
1712056883273,-3171.5373393129557
1712056883313,-3171.5373393129557
1712056883354,-3171.5373393129557
1712056883394,-3171.5373393129557
1712056883434,-3171.5373393129557
1712056883474,-3171.5373393129557
1712056883514,-4418.306066355435
1712056883555,-4418.306066355435
1712056883594,-4418.306066355435
1712056883634,-4418.306066355435
1712056883674,-4418.306066355435
1712056883714,-4418.306066355435
1712056883755,-4418.306066355435
1712056883794,-4418.306066355435
1712056883835,-4418.306066355435
1712056883875,-4418.306066355435
1712056883915,-4418.306066355435
1712056883956,-2438.0953032672405
1712056883995,-1873.4216298114043
1712056884035,-1873.4216298114043
1712056884075,-1873.4216298114043
1712056884115,-1873.4216298114043
1712056884156,-1873.4216298114043
1712056884195,-1873.4216298114043
1712056884236,-1873.4216298114043
1712056884276,-1873.4216298114043
1712056884316,-1279.6968474038877
1712056884357,-203.33582638157532
1712056884396,-15.29181264899671
1712056884436,2146.783407649491
1712056884476,2146.783407649491
1712056884516,2146.783407649491
1712056884557,2146.783407649491
1712056884597,2146.783407649491
1712056884637,2146.783407649491
1712056884677,2146.783407649491
1712056884717,2146.783407649491
1712056884758,2146.783407649491
1712056884797,2146.783407649491
1712056884837,4219.6253013229
1712056884877,6240.888091651257
1712056884917,6858.7291110160295
1712056884958,6858.7291110160295
1712056884998,6858.7291110160295
1712056885038,6858.7291110160295
1712056885078,6858.7291110160295
1712056885118,6858.7291110160295
1712056885159,6858.7291110160295
1712056885198,6858.7291110160295
1712056885238,6858.7291110160295
1712056885278,6858.7291110160295
1712056885319,7359.589964102255
1712056885359,7359.589964102255
1712056885399,7359.589964102255
1712056885439,7359.589964102255
1712056885479,7359.589964102255
1712056885519,7359.589964102255
1712056885560,7359.589964102255
1712056885599,7359.589964102255
1712056885639,7359.589964102255
1712056885680,7359.589964102255
1712056885720,6858.7291110160295
1712056885760,6000.429529966321
1712056885800,6000.429529966321
1712056885840,6000.429529966321
1712056885880,6000.429529966321
1712056885920,6000.429529966321
1712056885961,6000.429529966321
1712056886000,6000.429529966321
1712056886041,6000.429529966321
1712056886081,6000.429529966321
1712056886121,5892.403560683597
1712056886162,3377.049096869305
1712056886201,3377.049096869305
1712056886241,3377.049096869305
1712056886281,3377.049096869305
1712056886321,3377.049096869305
1712056886362,3377.049096869305
1712056886402,3377.049096869305
1712056886442,3377.049096869305
1712056886482,3377.049096869305
1712056886522,3377.049096869305
1712056886563,3377.049096869305
1712056886602,3377.049096869305
1712056886642,3377.049096869305
1712056886682,3377.049096869305
1712056886723,3377.049096869305
1712056886763,3377.049096869305
1712056886803,3377.049096869305
1712056886843,3377.049096869305
1712056886883,3377.049096869305
1712056886923,3377.049096869305
1712056886964,3377.049096869305
1712056887004,1238.1945589948446
1712056887044,1238.1945589948446
1712056887084,1238.1945589948446
1712056887124,1238.1945589948446
1712056887165,1238.1945589948446
1712056887204,1238.1945589948446
1712056887244,1238.1945589948446
1712056887284,1238.1945589948446
1712056887325,1238.1945589948446
1712056887365,1238.1945589948446
1712056887405,1238.1945589948446
1712056887445,3060.090707279509
1712056887485,3060.090707279509
1712056887525,3060.090707279509
1712056887566,3060.090707279509
1712056887606,3060.090707279509
1712056887646,3060.090707279509
1712056887686,3060.090707279509
1712056887726,3060.090707279509
1712056887767,3060.090707279509
1712056887806,3060.090707279509
1712056887847,3060.090707279509
1712056887887,768.6359472456388
1712056887927,-2745.4908462085295
1712056887968,-2745.4908462085295
1712056888007,-2745.4908462085295
1712056888047,-2745.4908462085295
1712056888087,-2745.4908462085295
1712056888127,-2745.4908462085295
1712056888168,-2745.4908462085295
1712056888208,-2745.4908462085295
1712056888248,-2745.4908462085295
1712056888288,-2745.4908462085295
1712056888328,-2745.4908462085295
1712056888369,-1386.482759071514
1712056888408,382.17676082020625
1712056888449,382.17676082020625
1712056888489,382.17676082020625
1712056888529,382.17676082020625
1712056888570,382.17676082020625
1712056888609,382.17676082020625
1712056888649,382.17676082020625
1712056888690,382.17676082020625
1712056888730,382.17676082020625
1712056888770,382.17676082020625
1712056888813,382.17676082020625
1712056888850,-3542.766758574173
1712056888890,-3542.766758574173
1712056888930,-3542.766758574173
1712056888971,-3542.766758574173
1712056889011,-3542.766758574173
1712056889051,-3542.766758574173
1712056889091,-3542.766758574173
1712056889131,-3542.766758574173
1712056889172,-3542.766758574173
1712056889211,-3542.766758574173
1712056889252,-3542.766758574173
1712056889292,-2483.3309532252606
1712056889332,-2483.3309532252606
1712056889373,-2483.3309532252606
1712056889412,-2483.3309532252606
1712056889452,-2483.3309532252606
1712056889492,-2483.3309532252606
1712056889532,-2483.3309532252606
1712056889573,-2483.3309532252606
1712056889612,-2483.3309532252606
1712056889653,-2483.3309532252606
1712056889693,-2483.3309532252606
1712056889733,-4179.752686445368
1712056889774,-4468.516164191533
1712056889813,-4468.516164191533
1712056889853,-4468.516164191533
1712056889893,-4468.516164191533
1712056889933,-4468.516164191533
1712056889974,-4468.516164191533
1712056890013,-4468.516164191533
1712056890053,-4468.516164191533
1712056890094,-4468.516164191533
1712056890134,-4468.516164191533
1712056890174,-4468.516164191533
1712056890214,-2124.9744953378104
1712056890254,-2124.9744953378104
1712056890294,-2124.9744953378104
1712056890334,-2124.9744953378104
1712056890375,-2124.9744953378104
1712056890414,-2124.9744953378104
1712056890455,-2124.9744953378104
1712056890495,-2124.9744953378104
1712056890535,-2124.9744953378104
1712056890575,-2124.9744953378104
1712056890615,-2124.9744953378104
1712056890655,-2546.2831872631796
1712056890695,-2546.2831872631796
1712056890735,-2546.2831872631796
1712056890776,-2546.2831872631796
1712056890815,-2546.2831872631796
1712056890856,-2546.2831872631796
1712056890896,-2546.2831872631796
1712056890936,-2546.2831872631796
1712056890977,-2546.2831872631796
1712056891019,-2546.2831872631796
1712056891056,-2901.8736191531643
1712056891096,-2901.8736191531643
1712056891136,-2901.8736191531643
1712056891177,-2901.8736191531643
1712056891217,-2901.8736191531643
1712056891257,-2901.8736191531643
1712056891297,-2901.8736191531643
1712056891337,-2901.8736191531643
1712056891378,-2901.8736191531643
1712056891417,-2901.8736191531643
1712056891457,-2546.2831872631796
1712056891497,-2536.5108102955855
1712056891537,-2536.5108102955855
1712056891578,-2536.5108102955855
1712056891618,-2536.5108102955855
1712056891658,-2536.5108102955855
1712056891698,-2536.5108102955855
1712056891738,-2536.5108102955855
1712056891779,-2536.5108102955855
1712056891818,-2536.5108102955855
1712056891858,-2901.8736191531643
1712056891898,-3762.3786223852076
1712056891939,-3762.3786223852076
1712056891979,-3762.3786223852076
1712056892019,-3762.3786223852076
1712056892059,-3762.3786223852076
1712056892099,-3815.3305680197664
1712056892139,-4220.831774378428
1712056892180,-4220.831774378428
1712056892220,-4220.831774378428
1712056892260,-6846.095318139065
1712056892300,-6846.095318139065
1712056892340,-6846.095318139065
1712056892381,-6846.095318139065
1712056892420,-6846.095318139065
1712056892460,-6846.095318139065
1712056892500,-6846.095318139065
1712056892541,-6846.095318139065
1712056892581,-6846.095318139065
1712056892621,-6846.095318139065
1712056892661,-6846.095318139065
1712056892699,-7194.711814025417
1712056892739,-7194.711814025417
1712056892780,-7194.711814025417
1712056892819,-7194.711814025417
1712056892859,-7194.711814025417
1712056892900,-7194.711814025417
1712056892940,-7194.711814025417
1712056892981,-7194.711814025417
1712056893020,-7194.711814025417
1712056893060,-7194.711814025417
1712056893100,-7796.937910471344
1712056893140,-7796.937910471344
1712056893181,-7796.937910471344
1712056893221,-7796.937910471344
1712056893261,-7796.937910471344
1712056893301,-7796.937910471344
1712056893341,-7796.937910471344
1712056893382,-7796.937910471344
1712056893421,-7796.937910471344
1712056893461,-7796.937910471344
1712056893502,-7796.937910471344
1712056893542,-5099.8367438907735
1712056893582,-5099.8367438907735
1712056893622,-5099.8367438907735
1712056893662,-5099.8367438907735
1712056893702,-5099.8367438907735
1712056893742,-5099.8367438907735
1712056893783,-5099.8367438907735
1712056893823,-5099.8367438907735
1712056893863,-5099.8367438907735
1712056893903,-5099.8367438907735
1712056893943,-5099.8367438907735
1712056893984,-7474.860485760495
1712056894023,-7474.860485760495
1712056894063,-7474.860485760495
1712056894104,-7474.860485760495
1712056894144,-7474.860485760495
1712056894184,-7474.860485760495
1712056894224,-7474.860485760495
1712056894264,-7474.860485760495
1712056894304,-7474.860485760495
1712056894344,-7474.860485760495
1712056894385,-7474.860485760495
1712056894424,-7743.500389751513
1712056894465,-7743.500389751513
1712056894505,-7743.500389751513
1712056894545,-7743.500389751513
1712056894586,-7743.500389751513
1712056894625,-7743.500389751513
1712056894665,-7743.500389751513
1712056894706,-7743.500389751513
1712056894746,-7743.500389751513
1712056894786,-7743.500389751513
1712056894826,-5952.637707184069
1712056894866,-5952.637707184069
1712056894906,-5952.637707184069
1712056894947,-5952.637707184069
1712056894987,-5952.637707184069
1712056895027,-5952.637707184069
1712056895067,-5952.637707184069
1712056895107,-5952.637707184069
1712056895147,-5952.637707184069
1712056895188,-5952.637707184069
1712056895228,-6455.261260901578
1712056895268,-6455.261260901578
1712056895308,-6455.261260901578
1712056895348,-6455.261260901578
1712056895389,-6455.261260901578
1712056895428,-6442.859513147501
1712056895468,-6163.141126735136
1712056895508,-5952.637707184069
1712056895549,-5871.300444992026
1712056895589,-5421.94098226307
1712056895629,-3825.2474958996754
1712056895669,-3609.7348080505617
1712056895709,-2136.8158836858347
1712056895749,-2136.8158836858347
1712056895790,-2136.8158836858347
1712056895829,-2136.8158836858347
1712056895869,-2136.8158836858347
1712056895909,-2136.8158836858347
1712056895949,-2136.8158836858347
1712056895990,-2136.8158836858347
1712056896030,-3825.2474958996754
1712056896070,-3825.2474958996754
1712056896110,-3825.2474958996754
1712056896150,-3825.2474958996754
1712056896191,-3825.2474958996754
1712056896230,-3405.332787546795
1712056896270,-3252.196607511025
1712056896310,-3069.363330863882
1712056896350,-2357.1579344067723
1712056896391,-2136.8158836858347
1712056896431,-1632.065246256534
1712056896471,-662.2403574902564
1712056896511,-662.2403574902564
1712056896551,-662.2403574902564
1712056896592,-662.2403574902564
1712056896631,-662.2403574902564
1712056896671,-662.2403574902564
1712056896711,-662.2403574902564
1712056896752,-662.2403574902564
1712056896792,-662.2403574902564
1712056896832,1920.7756551364437
1712056896872,1920.7756551364437
1712056896912,1920.7756551364437
1712056896952,1920.7756551364437
1712056896993,1920.7756551364437
1712056897032,1945.6326396772638
1712056897072,2131.67198017193
1712056897113,2131.67198017193
1712056897153,2131.67198017193
1712056897193,2322.5989678441547
1712056897233,2851.808335752692
1712056897273,4420.348466473166
1712056897313,4420.348466473166
1712056897353,4420.348466473166
1712056897394,4420.348466473166
1712056897433,4420.348466473166
1712056897474,4420.348466473166
1712056897514,4420.348466473166
1712056897554,4420.348466473166
1712056897595,2851.808335752692
1712056897634,2460.7882951148786
1712056897674,2460.7882951148786
1712056897714,2460.7882951148786
1712056897754,2460.7882951148786
1712056897795,2460.7882951148786
1712056897835,2460.7882951148786
1712056897875,2460.7882951148786
1712056897915,2460.7882951148786
1712056897955,2601.9251280580647
1712056897996,2851.808335752692
1712056898035,4089.2105797068216
1712056898075,4089.2105797068216
1712056898115,4089.2105797068216
1712056898156,4089.2105797068216
1712056898196,4089.2105797068216
1712056898236,4089.2105797068216
1712056898276,4089.2105797068216
1712056898316,4089.2105797068216
1712056898356,4089.2105797068216
1712056898397,2601.9251280580647
1712056898437,2601.9251280580647
1712056898477,2601.9251280580647
1712056898517,2601.9251280580647
1712056898557,2601.9251280580647
1712056898598,2601.9251280580647
1712056898637,2601.9251280580647
1712056898677,2601.9251280580647
1712056898717,2601.9251280580647
1712056898757,2601.9251280580647
1712056898798,1316.3690573358908
1712056898838,1316.3690573358908
1712056898878,1316.3690573358908
1712056898918,1316.3690573358908
1712056898958,1316.3690573358908
1712056898999,1316.3690573358908
1712056899038,1316.3690573358908
1712056899078,1316.3690573358908
1712056899118,1316.3690573358908
1712056899159,1316.3690573358908
1712056899199,1316.3690573358908
1712056899239,2445.881647316506
1712056899279,2445.881647316506
1712056899319,2445.881647316506
1712056899359,2445.881647316506
1712056899400,2445.881647316506
1712056899440,2445.881647316506
1712056899480,2445.881647316506
1712056899520,2445.881647316506
1712056899560,2445.881647316506
1712056899601,2445.881647316506
1712056899640,2445.881647316506
1712056899680,-2696.607022162527
1712056899720,-2696.607022162527
1712056899761,-2696.607022162527
1712056899801,-2696.607022162527
1712056899841,-2696.607022162527
1712056899881,-2696.607022162527
1712056899921,-2696.607022162527
1712056899961,-2696.607022162527
1712056900002,-2696.607022162527
1712056900042,-2696.607022162527
1712056900082,-2696.607022162527
1712056900122,-1876.094243587926
1712056900162,-158.62682043062523
1712056900203,-158.62682043062523
1712056900242,-158.62682043062523
1712056900282,-158.62682043062523
1712056900323,-158.62682043062523
1712056900363,-158.62682043062523
1712056900404,-158.62682043062523
1712056900443,-158.62682043062523
1712056900483,-158.62682043062523
1712056900523,-158.62682043062523
1712056900563,-158.62682043062523
1712056900604,-1396.1111130700447
1712056900644,-2006.1040248270147
1712056900684,-2006.1040248270147
1712056900724,-2006.1040248270147
1712056900764,-2006.1040248270147
1712056900805,-2006.1040248270147
1712056900845,-2006.1040248270147
1712056900885,-2006.1040248270147
1712056900925,-2006.1040248270147
1712056900965,-2006.1040248270147
1712056901006,-2006.1040248270147
1712056901045,-2006.1040248270147
1712056901086,-1034.7228988115676
1712056901126,-1034.7228988115676
1712056901166,-1034.7228988115676
1712056901207,-1034.7228988115676
1712056901246,-1034.7228988115676
1712056901286,-1034.7228988115676
1712056901326,-1034.7228988115676
1712056901366,-1034.7228988115676
1712056901407,-1034.7228988115676
1712056901447,-1034.7228988115676
1712056901487,-1034.7228988115676
1712056901527,-1034.7228988115676
1712056901567,-1034.7228988115676
1712056901608,-1034.7228988115676
1712056901647,-1034.7228988115676
1712056901687,-1034.7228988115676
1712056901727,-1034.7228988115676
1712056901767,-1034.7228988115676
1712056901808,-1034.7228988115676
1712056901847,-1034.7228988115676
1712056901888,-1034.7228988115676
1712056901928,-674.7391880995128
1712056901968,-674.7391880995128
1712056902009,-674.7391880995128
1712056902048,-674.7391880995128
1712056902088,-674.7391880995128
1712056902128,-674.7391880995128
1712056902168,-674.7391880995128
1712056902209,-674.7391880995128
1712056902249,-674.7391880995128
1712056902289,-674.7391880995128
1712056902329,-674.7391880995128
1712056902369,-1620.2107321447693
1712056902410,-1620.2107321447693
1712056902449,-1620.2107321447693
1712056902489,-1620.2107321447693
1712056902529,-1620.2107321447693
1712056902569,-1620.2107321447693
1712056902610,-1620.2107321447693
1712056902650,-1620.2107321447693
1712056902690,-1620.2107321447693
1712056902730,-1620.2107321447693
1712056902770,-1620.2107321447693
1712056902811,-1620.2107321447693
1712056902850,-1620.2107321447693
1712056902890,-1620.2107321447693
1712056902931,-1620.2107321447693
1712056902971,-1620.2107321447693
1712056903012,-1620.2107321447693
1712056903051,-1620.2107321447693
1712056903091,-1620.2107321447693
1712056903131,-1620.2107321447693
1712056903171,-1620.2107321447693
1712056903212,-2232.7802367147524
1712056903251,-3081.6848542406224
1712056903291,-3081.6848542406224
1712056903332,-3081.6848542406224
1712056903372,-3081.6848542406224
1712056903412,-3081.6848542406224
1712056903452,-3081.6848542406224
1712056903492,-3081.6848542406224
1712056903532,-3081.6848542406224
1712056903572,-3081.6848542406224
1712056903613,-3081.6848542406224
1712056903652,-3081.6848542406224
1712056903692,-1156.5900780544616
1712056903733,-1156.5900780544616
1712056903773,-1156.5900780544616
1712056903813,-1156.5900780544616
1712056903853,-1156.5900780544616
1712056903893,-1156.5900780544616
1712056903933,-1156.5900780544616
1712056903973,-1156.5900780544616
1712056904014,-1156.5900780544616
1712056904053,-1156.5900780544616
1712056904094,-1156.5900780544616
1712056904134,-4222.550503256731
1712056904174,-5332.226695944555
1712056904215,-5332.226695944555
1712056904254,-5332.226695944555
1712056904294,-5332.226695944555
1712056904334,-5332.226695944555
1712056904374,-5332.226695944555
1712056904415,-5332.226695944555
1712056904455,-5332.226695944555
1712056904495,-5332.226695944555
1712056904535,-5332.226695944555
1712056904575,-5332.226695944555
1712056904616,-3689.6793962637894
1712056904655,-1485.3423734544776
1712056904695,-184.7293849713169
1712056904736,-184.7293849713169
1712056904777,-184.7293849713169
1712056904818,-184.7293849713169
1712056904857,-184.7293849713169
1712056904897,-184.7293849713169
1712056904937,-184.7293849713169
1712056904977,-184.7293849713169
1712056905018,-184.7293849713169
1712056905058,-184.7293849713169
1712056905098,-184.7293849713169
1712056905138,-3917.8568854269106
1712056905178,-3917.8568854269106
1712056905219,-3917.8568854269106
1712056905258,-3917.8568854269106
1712056905298,-3917.8568854269106
1712056905338,-3917.8568854269106
1712056905379,-3917.8568854269106
1712056905420,-3917.8568854269106
1712056905459,-3917.8568854269106
1712056905499,-3917.8568854269106
1712056905539,-3917.8568854269106
1712056905579,-1895.5253908606246
1712056905620,82.4848701688461
1712056905660,2249.4186214823276
1712056905700,2249.4186214823276
1712056905740,2249.4186214823276
1712056905780,2249.4186214823276
1712056905821,2249.4186214823276
1712056905860,2249.4186214823276
1712056905900,2249.4186214823276
1712056905941,2249.4186214823276
1712056905981,2249.4186214823276
1712056906022,2249.4186214823276
1712056906061,2249.4186214823276
1712056906101,1375.21162334783
1712056906142,1375.21162334783
1712056906182,1375.21162334783
1712056906222,1375.21162334783
1712056906262,1375.21162334783
1712056906302,1375.21162334783
1712056906342,1375.21162334783
1712056906382,1375.21162334783
1712056906423,1375.21162334783
1712056906463,1375.21162334783
1712056906503,1375.21162334783
1712056906543,1375.21162334783
1712056906583,1375.21162334783
1712056906624,1375.21162334783
1712056906663,1375.21162334783
1712056906703,1375.21162334783
1712056906744,1375.21162334783
1712056906784,1375.21162334783
1712056906825,1375.21162334783
1712056906864,1375.21162334783
1712056906904,1375.21162334783
1712056906944,695.8939994075336
1712056906985,-1273.6794842043892
1712056907025,-1273.6794842043892
1712056907065,-1273.6794842043892
1712056907105,-1273.6794842043892
1712056907145,-1273.6794842043892
1712056907186,-1273.6794842043892
1712056907226,-1273.6794842043892
1712056907266,-1273.6794842043892
1712056907306,-1273.6794842043892
1712056907346,-1273.6794842043892
1712056907386,-1273.6794842043892
1712056907427,-1273.6794842043892
1712056907466,-1273.6794842043892
1712056907506,-1273.6794842043892
1712056907547,-1273.6794842043892
1712056907587,-1273.6794842043892
1712056907627,-1273.6794842043892
1712056907667,-1273.6794842043892
1712056907707,-1273.6794842043892
1712056907747,-1273.6794842043892
1712056907787,-1273.6794842043892
1712056907828,-3230.420669298386
1712056907867,-6741.40793379792
1712056907908,-6741.40793379792
1712056907948,-6741.40793379792
1712056907988,-6741.40793379792
1712056908029,-6741.40793379792
1712056908068,-6741.40793379792
1712056908108,-6741.40793379792
1712056908148,-6741.40793379792
1712056908188,-6741.40793379792
1712056908229,-6741.40793379792
1712056908268,-6741.40793379792
1712056908309,-4807.94656546833
1712056908349,-2914.354112124536
1712056908389,-2914.354112124536
1712056908430,-2914.354112124536
1712056908469,-2914.354112124536
1712056908509,-2914.354112124536
1712056908550,-2914.354112124536
1712056908589,-2914.354112124536
1712056908630,-2914.354112124536
1712056908670,-2914.354112124536
1712056908710,-2914.354112124536
1712056908750,-2914.354112124536
1712056908790,-6908.429266895633
1712056908831,-10084.928092500195
1712056908870,-10084.928092500195
1712056908911,-10084.928092500195
1712056908951,-10084.928092500195
1712056908991,-10084.928092500195
1712056909032,-10084.928092500195
1712056909071,-10084.928092500195
1712056909111,-10084.928092500195
1712056909151,-10084.928092500195
1712056909191,-10084.928092500195
1712056909232,-10084.928092500195
1712056909272,-8535.03992624348
1712056909312,-6347.899144007824
1712056909352,-4442.384157921188
1712056909392,-4442.384157921188
1712056909433,-4442.384157921188
1712056909472,-4442.384157921188
1712056909513,-4442.384157921188
1712056909553,-4442.384157921188
1712056909593,-4442.384157921188
1712056909634,-4442.384157921188
1712056909673,-4442.384157921188
1712056909713,-4442.384157921188
1712056909754,-4442.384157921188
1712056909794,-11227.92146875104
1712056909834,-11227.92146875104
1712056909874,-11227.92146875104
1712056909914,-11227.92146875104
1712056909954,-11227.92146875104
1712056909994,-11227.92146875104
1712056910035,-11227.92146875104
1712056910074,-11227.92146875104
1712056910115,-11227.92146875104
1712056910155,-11227.92146875104
1712056910195,-11227.92146875104
1712056910236,-8763.056995610008
1712056910275,-6444.468778241426
1712056910315,-4618.256265685894
1712056910356,-2335.2635291577317
1712056910396,-2335.2635291577317
1712056910436,-2335.2635291577317
1712056910476,-2335.2635291577317
1712056910516,-2335.2635291577317
1712056910556,-2335.2635291577317
1712056910596,-2335.2635291577317
1712056910637,-2335.2635291577317
1712056910677,-2335.2635291577317
1712056910717,-2335.2635291577317
1712056910757,-2335.2635291577317
1712056910797,-5228.418274368625
1712056910838,-5228.418274368625
1712056910877,-5228.418274368625
1712056910917,-5228.418274368625
1712056910958,-5228.418274368625
1712056910998,-5228.418274368625
1712056911039,-5228.418274368625
1712056911078,-5228.418274368625
1712056911118,-5228.418274368625
1712056911158,-5228.418274368625
1712056911199,-5228.418274368625
1712056911239,-3200.817322988063
1712056911279,-1047.4338547463994
1712056911319,1326.1445593065582
1712056911359,1326.1445593065582
1712056911399,1326.1445593065582
1712056911440,1326.1445593065582
1712056911479,1326.1445593065582
1712056911520,1326.1445593065582
1712056911560,1326.1445593065582
1712056911600,1326.1445593065582
1712056911641,1326.1445593065582
1712056911680,1326.1445593065582
1712056911720,1326.1445593065582
1712056911760,-758.441668700194
1712056911801,-758.441668700194
1712056911841,-758.441668700194
1712056911881,-758.441668700194
1712056911921,-758.441668700194
1712056911961,-758.441668700194
1712056912001,-758.441668700194
1712056912042,-758.441668700194
1712056912082,-758.441668700194
1712056912122,-758.441668700194
1712056912162,-758.441668700194
1712056912202,1271.7110003840644
1712056912243,1271.7110003840644
1712056912283,1271.7110003840644
1712056912323,1271.7110003840644
1712056912363,1271.7110003840644
1712056912403,1271.7110003840644
1712056912444,1271.7110003840644
1712056912483,1271.7110003840644
1712056912523,1271.7110003840644
1712056912563,1271.7110003840644
1712056912604,1271.7110003840644
1712056912645,-753.3284945662599
1712056912684,-753.3284945662599
1712056912724,-753.3284945662599
1712056912764,-753.3284945662599
1712056912804,-753.3284945662599
1712056912845,-753.3284945662599
1712056912885,-753.3284945662599
1712056912925,-753.3284945662599
1712056912965,-753.3284945662599
1712056913005,-753.3284945662599
1712056913046,-753.3284945662599
1712056913085,-753.3284945662599
1712056913125,-753.3284945662599
1712056913165,-753.3284945662599
1712056913205,-753.3284945662599
1712056913246,-753.3284945662599
1712056913286,-753.3284945662599
1712056913326,-753.3284945662599
1712056913366,-753.3284945662599
1712056913406,-753.3284945662599
1712056913447,-753.3284945662599
1712056913486,-1897.967713021906
1712056913526,-4379.390600645682
1712056913566,-4379.390600645682
1712056913607,-4379.390600645682
1712056913647,-4379.390600645682
1712056913687,-4379.390600645682
1712056913727,-4379.390600645682
1712056913767,-4379.390600645682
1712056913807,-4379.390600645682
1712056913848,-4379.390600645682
1712056913887,-4379.390600645682
1712056913927,-4379.390600645682
1712056913968,-2189.8022554083727
1712056914007,-68.32922690780833
1712056914048,-68.32922690780833
1712056914088,-68.32922690780833
1712056914128,-68.32922690780833
1712056914168,-68.32922690780833
1712056914208,-68.32922690780833
1712056914249,-68.32922690780833
1712056914288,-68.32922690780833
1712056914329,-68.32922690780833
1712056914368,-68.32922690780833
1712056914409,-68.32922690780833
1712056914450,-6653.224914127495
1712056914489,-6653.224914127495
1712056914529,-6653.224914127495
1712056914569,-6653.224914127495
1712056914609,-6653.224914127495
1712056914650,-6653.224914127495
1712056914690,-6653.224914127495
1712056914729,-6653.224914127495
1712056914769,-6653.224914127495
1712056914810,-6653.224914127495
1712056914850,-6653.224914127495
1712056914890,-6607.388793729944
1712056914930,-5012.503799128579
1712056914970,-2714.0202381098643
1712056915010,-2298.3157902504317
1712056915051,-2298.3157902504317
1712056915090,-2298.3157902504317
1712056915131,-2298.3157902504317
1712056915171,-2298.3157902504317
1712056915211,-2298.3157902504317
1712056915252,-2298.3157902504317
1712056915291,-2298.3157902504317
1712056915331,-2298.3157902504317
1712056915371,-2298.3157902504317
1712056915411,-2298.3157902504317
1712056915452,-6099.3918404823635
1712056915492,-6099.3918404823635
1712056915532,-6099.3918404823635
1712056915572,-6099.3918404823635
1712056915612,-6099.3918404823635
1712056915653,-6099.3918404823635
1712056915692,-6099.3918404823635
1712056915732,-6099.3918404823635
1712056915773,-6099.3918404823635
1712056915813,-6099.3918404823635
1712056915853,-6099.3918404823635
1712056915893,-3805.540589612676
1712056915933,-1475.168598456774
1712056915973,685.8393404129893
1712056916013,685.8393404129893
1712056916054,685.8393404129893
1712056916094,685.8393404129893
1712056916134,685.8393404129893
1712056916174,685.8393404129893
1712056916214,685.8393404129893
1712056916255,685.8393404129893
1712056916294,685.8393404129893
1712056916334,685.8393404129893
1712056916375,685.8393404129893
1712056916415,-4699.7335668315645
1712056916455,-4699.7335668315645
1712056916495,-4699.7335668315645
1712056916535,-4699.7335668315645
1712056916575,-4699.7335668315645
1712056916615,-4699.7335668315645
1712056916656,-4699.7335668315645
1712056916696,-4699.7335668315645
1712056916736,-4699.7335668315645
1712056916776,-4699.7335668315645
1712056916816,-4699.7335668315645
1712056916857,-2652.7751831258647
1712056916896,-99.5914917329792
1712056916936,2429.0583456205204
1712056916977,2429.0583456205204
1712056917016,2429.0583456205204
1712056917057,2429.0583456205204
1712056917097,2429.0583456205204
1712056917137,2429.0583456205204
1712056917177,2429.0583456205204
1712056917217,2429.0583456205204
1712056917258,2429.0583456205204
1712056917297,2429.0583456205204
1712056917338,2429.0583456205204
1712056917378,660.7708604123909
1712056917418,660.7708604123909
1712056917459,660.7708604123909
1712056917498,660.7708604123909
1712056917538,660.7708604123909
1712056917579,660.7708604123909
1712056917619,660.7708604123909
1712056917659,660.7708604123909
1712056917699,660.7708604123909
1712056917739,660.7708604123909
1712056917779,660.7708604123909
1712056917820,2094.667987656314
1712056917860,4106.3354106550105
1712056917900,4106.3354106550105
1712056917940,4106.3354106550105
1712056917980,4106.3354106550105
1712056918020,4106.3354106550105
1712056918061,4106.3354106550105
1712056918100,4106.3354106550105
1712056918141,4106.3354106550105
1712056918181,4106.3354106550105
1712056918221,4106.3354106550105
1712056918262,4106.3354106550105
1712056918301,-1116.382802881766
1712056918341,-1116.382802881766
1712056918382,-1116.382802881766
1712056918422,-1116.382802881766
1712056918463,-1116.382802881766
1712056918502,-1116.382802881766
1712056918542,-1116.382802881766
1712056918582,-1116.382802881766
1712056918622,-1116.382802881766
1712056918663,-1116.382802881766
1712056918703,-1116.382802881766
1712056918743,-650.0282870735973
1712056918783,-650.0282870735973
1712056918823,-650.0282870735973
1712056918864,-650.0282870735973
1712056918903,-650.0282870735973
1712056918943,-650.0282870735973
1712056918984,-650.0282870735973
1712056919024,-650.0282870735973
1712056919064,-650.0282870735973
1712056919104,-650.0282870735973
1712056919144,-650.0282870735973
1712056919184,-6567.189831441268
1712056919224,-6567.189831441268
1712056919265,-6567.189831441268
1712056919304,-6567.189831441268
1712056919344,-6567.189831441268
