Timestamp,Cleaned PPG
1711685648550,0.0
1711685648590,0.0
1711685648630,0.0
1711685648670,0.0
1711685648711,0.0
1711685648751,0.0
1711685648791,0.0
1711685648831,0.0
1711685648871,0.0
1711685648912,0.0
1711685648951,0.0
1711685648991,0.0
1711685649031,0.0
1711685649071,0.0
1711685649113,0.0
1711685649152,0.0
1711685649192,0.0
1711685649232,0.0
1711685649272,0.0
1711685649313,0.0
1711685649352,0.0
1711685649392,0.0
1711685649433,0.0
1711685649473,0.0
1711685649514,0.0
1711685649553,0.0
1711685649593,0.0
1711685649633,0.0
1711685649673,0.0
1711685649717,0.0
1711685649753,0.0
1711685649794,0.0
1711685649834,1097388.875006427
1711685649874,1097388.875006427
1711685649915,1097388.875006427
1711685649954,1097388.875006427
1711685649994,1097388.875006427
1711685650034,1097388.875006427
1711685650074,1097388.875006427
1711685650115,1097388.875006427
1711685650154,1097388.875006427
1711685650194,1097388.875006427
1711685650234,1097388.875006427
1711685650275,1030441.3493190536
1711685650316,967240.3298913487
1711685650355,908302.4650552259
1711685650395,852107.3286529845
1711685650435,793614.9853434111
1711685650475,737303.372377157
1711685650516,686215.2592537529
1711685650555,640192.7616043133
1711685650595,600024.311297554
1711685650635,560704.7718191782
1711685650676,530576.937747505
1711685650717,496728.704677165
1711685650756,464325.7172455541
1711685650796,437117.790808714
1711685650836,409000.38077686355
1711685650876,387703.7896683845
1711685650917,363376.822324106
1711685650956,340082.1104223069
1711685650996,319528.66019774904
1711685651036,302394.82263802784
1711685651076,285755.70089159394
1711685651117,269398.5728690522
1711685651157,249727.98515775544
1711685651197,226320.57491141
1711685651237,210025.29273679154
1711685651277,195054.60345916054
1711685651318,183613.09329145798
1711685651357,174770.87851950945
1711685651397,166539.9517773192
1711685651437,163040.51630500052
1711685651477,156698.74139141547
1711685651518,150405.85389792826
1711685651557,145981.7797996574
1711685651598,140178.27832704317
1711685651638,135138.23288235045
1711685651678,133899.5049984539
1711685651719,128738.58792033186
1711685651758,121238.28510795883
1711685651798,116217.47855959367
1711685651838,109893.25895481394
1711685651878,106480.62101175054
1711685651922,95004.81716106692
1711685651958,79141.4225784801
1711685651999,68246.00240055821
1711685652039,58557.94015007489
1711685652079,53352.28891252121
1711685652120,47290.277985445224
1711685652159,43583.18552225572
1711685652199,38731.41030302108
1711685652239,35956.80078924168
1711685652279,29085.848799312487
1711685652320,27420.535048234742
1711685652359,23701.806995510357
1711685652399,22519.469934908906
1711685652440,21112.005450751632
1711685652480,20642.745541041717
1711685652521,17980.198877796764
1711685652560,17802.509627375286
1711685652600,16682.135039817076
1711685652640,11530.253871880472
1711685652680,6081.524955178611
1711685652721,-680.6601780066267
1711685652760,-4415.032093627844
1711685652800,-5972.239122812636
1711685652841,-5972.239122812636
1711685652881,-5972.239122812636
1711685652922,-5972.239122812636
1711685652961,-8011.682964111911
1711685653001,-8587.389746129746
1711685653041,-8877.133999209153
1711685653081,-9408.289688050281
1711685653122,-10398.16628910834
1711685653161,-10721.25150691322
1711685653202,-11006.842216015328
1711685653242,-11877.554213639116
1711685653282,-11904.719149906654
1711685653323,-12555.030739658512
1711685653362,-13786.551778121153
1711685653402,-13789.12151066144
1711685653442,-13786.551778121153
1711685653482,-13786.551778121153
1711685653523,-13786.551778121153
1711685653563,-13786.551778121153
1711685653603,-13786.551778121153
1711685653643,-15927.108415405266
1711685653683,-17083.41723758634
1711685653724,-17366.92849560012
1711685653763,-17555.37721499987
1711685653803,-17669.316138739232
1711685653843,-17738.17928209738
1711685653883,-17669.316138739232
1711685653924,-17555.37721499987
1711685653964,-17366.92849560012
1711685654004,-17083.41723758634
1711685654044,-16289.44713927363
1711685654084,-15927.108415405266
1711685654125,-13727.245287429076
1711685654164,-13605.056508098729
1711685654204,-13071.35455363337
1711685654244,-11758.291762413923
1711685654285,-11496.611961064627
1711685654326,-11335.852113147266
1711685654365,-10045.109270238783
1711685654405,-8798.906581422547
1711685654445,-5603.829141522292
1711685654485,-2384.9192233029753
1711685654526,-1883.5753723429516
1711685654565,-1883.5753723429516
1711685654605,-1883.5753723429516
1711685654646,-1883.5753723429516
1711685654686,-1883.5753723429516
1711685654727,-1883.5753723429516
1711685654766,-1883.5753723429516
1711685654806,-1883.5753723429516
1711685654846,-1883.5753723429516
1711685654886,-1883.5753723429516
1711685654927,-1883.5753723429516
1711685654966,-1883.5753723429516
1711685655006,-2244.8099168799818
1711685655046,-2421.293950316729
1711685655087,-3144.5677613774315
1711685655128,-3728.7531368662603
1711685655167,-3761.757482895162
1711685655207,-3902.606649936177
1711685655247,-4178.10636672657
1711685655287,-4629.266503721941
1711685655328,-5829.266944496427
1711685655368,-5900.850989266997
1711685655408,-7093.044143231818
1711685655448,-7402.49440961564
1711685655488,-8148.112963736057
1711685655529,-8148.112963736057
1711685655568,-8148.112963736057
1711685655608,-8148.112963736057
1711685655648,-8148.112963736057
1711685655688,-8148.112963736057
1711685655730,-8148.112963736057
1711685655769,-8148.112963736057
1711685655809,-8148.112963736057
1711685655849,-8148.112963736057
1711685655889,-8148.112963736057
1711685655930,-7192.77921467647
1711685655970,-5870.547254588222
1711685656010,-2846.765529997181
1711685656050,-2248.0456314703915
1711685656090,-2248.0456314703915
1711685656131,-1701.0305091226473
1711685656170,-1701.0305091226473
1711685656210,-1531.2717143709306
1711685656250,-1322.7811837741174
1711685656291,-1291.158779892372
1711685656332,-1046.632558491081
1711685656371,-1007.6642256227788
1711685656411,-688.8947645402513
1711685656451,-688.8947645402513
1711685656491,-688.8947645402513
1711685656532,-1007.6642256227788
1711685656572,-1046.632558491081
1711685656612,-1046.632558491081
1711685656652,-1046.632558491081
1711685656692,-1007.6642256227788
1711685656733,-692.4428840370383
1711685656772,-1007.6642256227788
1711685656812,-1007.6642256227788
1711685656852,-692.4428840370383
1711685656893,-340.59284886647947
1711685656934,405.38679230143316
1711685656973,497.7774355453439
1711685657013,1836.550612426363
1711685657053,1860.224608522607
1711685657093,2200.1983993698377
1711685657134,2358.409801952308
1711685657173,2638.576563954586
1711685657213,2638.576563954586
1711685657254,2359.8473659907468
1711685657294,2359.8473659907468
1711685657335,2359.8473659907468
1711685657374,2359.8473659907468
1711685657414,2359.8473659907468
1711685657454,2638.576563954586
1711685657494,3077.4180059183855
1711685657535,3077.4180059183855
1711685657574,3370.464507750701
1711685657614,3841.9880102796014
1711685657655,4005.611308854539
1711685657695,4373.242071506567
1711685657736,5034.2844505370595
1711685657775,5034.2844505370595
1711685657815,5034.2844505370595
1711685657855,5034.2844505370595
1711685657895,4666.961239665281
1711685657936,4373.242071506567
1711685657975,4005.611308854539
1711685658015,3370.464507750701
1711685658055,3370.464507750701
1711685658096,3370.464507750701
1711685658137,3370.464507750701
1711685658176,3370.464507750701
1711685658216,3370.464507750701
1711685658256,3370.464507750701
1711685658296,2768.7474397295155
1711685658337,2768.7474397295155
1711685658376,3516.516174425604
1711685658416,3516.516174425604
1711685658456,3516.516174425604
1711685658497,3516.516174425604
1711685658537,3516.516174425604
1711685658577,3516.516174425604
1711685658617,3516.516174425604
1711685658657,3516.516174425604
1711685658697,2395.167512797052
1711685658738,2367.156532085268
1711685658777,2367.156532085268
1711685658817,2367.156532085268
1711685658857,2367.156532085268
1711685658897,2367.156532085268
1711685658938,2367.156532085268
1711685658978,2144.8693045589607
1711685659018,2144.8693045589607
1711685659058,2151.787690207828
1711685659098,2367.156532085268
1711685659139,3516.516174425604
1711685659178,3618.302095757099
1711685659218,3618.302095757099
1711685659258,3618.302095757099
1711685659298,3618.302095757099
1711685659339,3618.302095757099
1711685659378,3618.302095757099
1711685659419,2151.787690207828
1711685659459,2144.8693045589607
1711685659499,2124.502102638129
1711685659540,2124.502102638129
1711685659579,2124.502102638129
1711685659619,2124.502102638129
1711685659659,2124.502102638129
1711685659699,2124.502102638129
1711685659740,2124.502102638129
1711685659779,2144.8693045589607
1711685659820,1887.8572858830448
1711685659860,2151.787690207828
1711685659900,2160.173101176042
1711685659941,2160.173101176042
1711685659980,2160.173101176042
1711685660020,2160.173101176042
1711685660060,2160.173101176042
1711685660100,1887.8572858830448
1711685660141,1622.2933263659943
1711685660181,1620.7744824676774
1711685660221,1475.2278431900777
1711685660261,1475.2278431900777
1711685660301,1475.2278431900777
1711685660342,1475.2278431900777
1711685660381,1475.2278431900777
1711685660421,1475.2278431900777
1711685660461,482.36315358499996
1711685660501,336.6831539077684
1711685660543,-2470.8896423093975
1711685660581,-2470.8896423093975
1711685660621,-2470.8896423093975
1711685660661,-2470.8896423093975
1711685660701,-2470.8896423093975
1711685660742,-2470.8896423093975
1711685660781,-2470.8896423093975
1711685660821,-2470.8896423093975
1711685660862,-3230.969791023992
1711685660902,-3421.8910282510333
1711685660943,-3867.7429127336945
1711685660982,-4382.114103657659
1711685661022,-4382.114103657659
1711685661062,-4382.114103657659
1711685661102,-4382.114103657659
1711685661143,-4382.114103657659
1711685661182,-4382.114103657659
1711685661222,-4382.114103657659
1711685661263,-5502.829204500653
1711685661303,-6456.827459540218
1711685661344,-6456.827459540218
1711685661383,-6456.827459540218
1711685661423,-6456.827459540218
1711685661463,-6456.827459540218
1711685661504,-6456.827459540218
1711685661544,-6456.827459540218
1711685661584,-8046.852150819963
1711685661624,-8358.603939779103
1711685661664,-8430.731919566635
1711685661704,-8724.434181720018
1711685661745,-8981.87518121628
1711685661784,-8981.87518121628
1711685661824,-8981.87518121628
1711685661865,-8981.87518121628
1711685661905,-8981.87518121628
1711685661946,-9038.852197547443
1711685661985,-8430.731919566635
1711685662025,-8358.603939779103
1711685662065,-8046.852150819963
1711685662105,-6456.827459540218
1711685662146,-6090.796519384719
1711685662185,-6090.796519384719
1711685662226,-6090.796519384719
1711685662266,-6090.796519384719
1711685662306,-6090.796519384719
1711685662347,-6090.796519384719
1711685662386,-6090.796519384719
1711685662426,-1131.132733025821
1711685662466,3510.82705207821
1711685662506,7104.960361591075
1711685662547,11885.647516322788
1711685662587,12640.406370130368
1711685662627,13209.861109787133
1711685662667,14401.01617925195
1711685662707,14901.003647428006
1711685662748,16305.891339540482
1711685662787,17183.120833606226
1711685662827,17183.120833606226
1711685662867,18589.890486693243
1711685662907,18682.611788354116
1711685662949,18682.611788354116
1711685662988,18682.611788354116
1711685663028,18682.611788354116
1711685663068,18682.611788354116
1711685663108,18358.89021727559
1711685663149,18358.89021727559
1711685663189,18358.89021727559
1711685663229,18358.89021727559
1711685663269,18358.89021727559
1711685663309,18358.89021727559
1711685663350,16629.954104030738
1711685663389,12171.615971995983
1711685663429,10404.611366387457
1711685663469,2627.3831228227355
1711685663510,2021.1554720494896
1711685663551,2021.1554720494896
1711685663590,2021.1554720494896
1711685663630,2021.1554720494896
1711685663670,1796.7733356149402
1711685663710,1154.9943849407136
1711685663751,1138.2992997448891
1711685663791,962.9918918039184
1711685663831,265.19565527839586
1711685663871,-206.8674608618021
1711685663911,-252.29645759123378
1711685663952,-712.3888686446007
1711685663991,-1125.95319195115
1711685664032,-2203.6345037422143
1711685664072,-2252.8194455881603
1711685664112,-6025.841056043282
1711685664153,-11946.945647219662
1711685664192,-13107.116676215548
1711685664232,-13107.116676215548
1711685664272,-13107.116676215548
1711685664312,-13107.116676215548
1711685664353,-13107.116676215548
1711685664393,-13107.116676215548
1711685664433,-13107.116676215548
1711685664473,-13540.665053495672
1711685664513,-14332.101562972879
1711685664554,-15703.192469899543
1711685664593,-16516.201937353704
1711685664633,-17908.890790050384
1711685664673,-17908.890790050384
1711685664713,-17908.890790050384
1711685664755,-17908.890790050384
1711685664794,-17908.890790050384
1711685664834,-17908.890790050384
1711685664874,-17908.890790050384
1711685664914,-17908.890790050384
1711685664955,-17908.890790050384
1711685664994,-17908.890790050384
1711685665034,-17908.890790050384
1711685665074,-17908.890790050384
1711685665114,-17908.890790050384
1711685665155,-17908.890790050384
1711685665195,-17908.890790050384
1711685665235,-18056.908804053674
1711685665275,-19384.8384075535
1711685665315,-19748.683523507323
1711685665356,-19761.84363156045
1711685665395,-21378.729269277304
1711685665435,-21378.729269277304
1711685665475,-21378.729269277304
1711685665515,-21378.729269277304
1711685665556,-21378.729269277304
1711685665596,-21378.729269277304
1711685665636,-22310.153493877035
1711685665676,-22365.745372772682
1711685665716,-22365.745372772682
1711685665757,-22969.04942132067
1711685665796,-23079.123688586522
1711685665836,-23079.123688586522
1711685665876,-23079.123688586522
1711685665916,-23233.793135944987
1711685665957,-24088.892592602642
1711685665997,-24331.44804704166
1711685666037,-25472.615899371915
1711685666077,-26029.633208863437
1711685666117,-26534.866513947723
1711685666158,-27241.765812488273
1711685666197,-27374.969308762113
1711685666237,-27804.237816344248
1711685666277,-27812.51711388561
1711685666317,-29111.42249451927
1711685666358,-32324.53294766601
1711685666398,-32324.53294766601
1711685666438,-32324.53294766601
1711685666478,-32324.53294766601
1711685666518,-32324.53294766601
1711685666559,-32324.53294766601
1711685666598,-32324.53294766601
1711685666638,-32324.53294766601
1711685666678,-33018.81600259803
1711685666718,-33391.82840722427
1711685666759,-34065.277413795004
1711685666799,-34065.277413795004
1711685666839,-33852.56128682103
1711685666879,-33391.82840722427
1711685666919,-33018.81600259803
1711685666960,-31941.46967531275
1711685666999,-31506.882399004884
1711685667039,-31039.813165734988
1711685667079,-30779.440929583507
1711685667119,-29669.784800108057
1711685667160,-29651.054923233576
1711685667200,-29296.715919115115
1711685667240,-28295.06326743029
1711685667280,-28232.413510127226
1711685667320,-26535.646149217384
1711685667361,-26535.646149217384
1711685667400,-26535.646149217384
1711685667440,-26535.646149217384
1711685667480,-24645.380800543353
1711685667521,-22726.66778003564
1711685667561,-22681.97897930001
1711685667601,-22542.972502971068
1711685667641,-22434.17226347886
1711685667681,-20805.079164056573
1711685667721,-20700.82073226059
1711685667762,-19978.109291072935
1711685667801,-18809.636264717206
1711685667841,-17217.87925678701
1711685667882,-17122.717380598653
1711685667922,-16235.427034787834
1711685667962,-16188.720069071744
1711685668002,-15222.62437961204
1711685668042,-14736.523747805506
1711685668082,-13865.972750400193
1711685668122,-13865.972750400193
1711685668163,-12162.704010810703
1711685668203,-10111.77995950426
1711685668243,-7995.14077234501
1711685668283,-6561.124535459559
1711685668323,-6519.52284321608
1711685668364,-6361.687276650919
1711685668403,-5586.630726534408
1711685668443,-5108.856476026354
1711685668483,-4669.075764764799
1711685668523,-2965.066128118895
1711685668564,-2912.698441326618
1711685668604,-1987.6578375559766
1711685668644,-1720.2497197645716
1711685668684,-720.2361505464651
1711685668724,-315.6470445985906
1711685668765,290.3026061137207
1711685668804,842.4268865995109
1711685668844,895.417256466113
1711685668884,2087.695912232157
1711685668925,3569.717609112384
1711685668965,4802.648453711532
1711685669005,6011.3121327084955
1711685669045,6033.718664210523
1711685669085,6568.047025032807
1711685669125,7017.836099588545
1711685669166,8050.488404204138
1711685669205,8084.751965519274
1711685669245,8128.3968448983505
1711685669286,9097.195556628052
1711685669326,10090.384587985463
1711685669366,10220.610110370908
1711685669406,11222.62296241289
1711685669446,11295.60377578577
1711685669486,11605.306321057025
1711685669526,11619.026520271786
1711685669567,12303.922503099777
1711685669606,13282.103542551864
1711685669647,14495.924062879058
1711685669687,15406.900487212697
1711685669727,15578.869819257408
1711685669768,15864.070213297615
1711685669807,16255.561899316497
1711685669847,16714.05914352089
1711685669887,17019.55305568897
1711685669928,17947.15801518224
1711685669968,18242.234194512013
1711685670008,18740.53106359509
1711685670048,19073.95068639936
1711685670088,19106.702909895685
1711685670128,19337.693452359177
1711685670169,19433.073116427287
1711685670208,19730.604973202804
1711685670248,19730.604973202804
1711685670289,19433.073116427287
1711685670329,19433.073116427287
1711685670370,19532.893545080442
1711685670409,19730.604973202804
1711685670449,20157.3353810641
1711685670489,20696.72035322711
1711685670529,20827.95225622272
1711685670570,20830.614104710985
1711685670610,21030.03813889716
1711685670650,21048.315243793186
1711685670690,21103.260446562897
1711685670730,21339.705108737573
1711685670771,21339.705108737573
1711685670810,21339.705108737573
1711685670850,21339.705108737573
1711685670891,21339.705108737573
1711685670931,21103.260446562897
1711685670971,21048.315243793186
1711685671011,21030.03813889716
1711685671051,20830.614104710985
1711685671091,21048.315243793186
1711685671132,21103.260446562897
1711685671172,21339.705108737573
1711685671211,21339.705108737573
1711685671252,21446.399213030003
1711685671292,21446.399213030003
1711685671332,21726.556502736174
1711685671373,22077.79255248909
1711685671412,22134.25433319225
1711685671452,22237.128633634653
1711685671492,22237.128633634653
1711685671532,22237.128633634653
1711685671573,22237.128633634653
1711685671612,22134.25433319225
1711685671652,22077.79255248909
1711685671692,21726.556502736174
1711685671733,21446.399213030003
1711685671773,21446.399213030003
1711685671813,21446.399213030003
1711685671853,21446.399213030003
1711685671893,21446.399213030003
1711685671933,21305.448995761806
1711685671974,21051.783005075064
1711685672013,20212.838318855967
1711685672053,20148.012510023545
1711685672094,20148.012510023545
1711685672134,20148.012510023545
1711685672174,20148.012510023545
1711685672214,20148.012510023545
1711685672254,20148.012510023545
1711685672294,19955.40980392974
1711685672334,19901.285040254705
1711685672375,19586.480833327165
1711685672414,19449.16276212316
1711685672454,19265.577292741276
1711685672494,19265.577292741276
1711685672535,19265.577292741276
1711685672575,19265.577292741276
1711685672617,19104.308557212353
1711685672657,19064.941798496293
1711685672697,18754.581474634353
1711685672737,17613.57298419997
1711685672778,17613.57298419997
1711685672817,17613.57298419997
1711685672857,17613.57298419997
1711685672898,17613.57298419997
1711685672938,17613.57298419997
1711685672978,17547.143312402768
1711685673018,17023.21129168803
1711685673058,16965.900857152883
1711685673098,16914.254097157158
1711685673138,16882.600564940833
1711685673179,16882.600564940833
1711685673218,16882.600564940833
1711685673258,16882.600564940833
1711685673299,16882.600564940833
1711685673339,16691.41469856631
1711685673379,16538.922037680633
1711685673419,14465.058794658165
1711685673459,14115.567349385703
1711685673499,13952.682383131003
1711685673539,13868.315441118088
1711685673580,13859.261869621929
1711685673619,13769.487481804565
1711685673659,13688.129231924424
1711685673699,13497.529599026544
1711685673739,13074.155198701192
1711685673780,13041.469116864726
1711685673820,12745.531419802923
1711685673860,12733.798309363192
1711685673900,12691.094474262092
1711685673940,12617.371442456264
1711685673981,12513.51928616874
1711685674020,11294.619835769292
1711685674060,8203.789532916388
1711685674100,6214.669147353852
1711685674141,5657.199760603486
1711685674181,5511.447523637908
1711685674221,5511.447523637908
1711685674261,5486.6436173142865
1711685674301,5366.685789929703
1711685674341,5254.724579129368
1711685674382,5127.606525863521
1711685674421,4673.716250851052
1711685674461,4478.22473243298
1711685674501,4028.3413276313804
1711685674541,3812.2404514465015
1711685674582,3227.5204829501454
1711685674622,3045.8324213959277
1711685674662,3001.0999768413603
1711685674702,2343.657370635541
1711685674742,-937.8429220113903
1711685674783,-3381.3643640563823
1711685674822,-3381.3643640563823
1711685674862,-3381.3643640563823
1711685674902,-3381.3643640563823
1711685674942,-3527.6431957301684
1711685674983,-3623.319933442166
1711685675023,-3630.2813381089363
1711685675063,-3687.5285132227
1711685675103,-3703.240905285813
1711685675143,-3992.4468017749023
1711685675184,-4105.011421062518
1711685675223,-4266.136063927319
1711685675263,-4418.318936462514
1711685675303,-4683.8028827616945
1711685675344,-4956.357823867351
1711685675384,-8551.043182514142
1711685675424,-12368.548809395172
1711685675464,-12761.54971733829
1711685675504,-12761.54971733829
1711685675544,-12761.54971733829
1711685675585,-12761.54971733829
1711685675624,-13164.793591425521
1711685675665,-13172.321890219813
1711685675705,-13463.561021910515
1711685675745,-13558.919693003874
1711685675786,-13725.963812784757
1711685675825,-13919.217645101948
1711685675865,-13949.549869451905
1711685675905,-13949.549869451905
1711685675945,-13949.549869451905
1711685675986,-13949.549869451905
1711685676025,-14525.384759512264
1711685676066,-14957.573811934795
1711685676106,-14957.573811934795
1711685676146,-14957.573811934795
1711685676187,-14957.573811934795
1711685676226,-14957.573811934795
1711685676266,-14957.573811934795
1711685676306,-15362.75906047062
1711685676346,-16269.514224482933
1711685676387,-16782.402956666425
1711685676427,-16782.402956666425
1711685676467,-16782.402956666425
1711685676507,-16269.514224482933
1711685676547,-16246.682670382317
1711685676588,-15362.75906047062
1711685676627,-14957.573811934795
1711685676667,-14682.851266487967
1711685676707,-13894.266119370237
1711685676748,-13765.999791687587
1711685676789,-13270.300369133474
1711685676828,-13217.589066238608
1711685676868,-12676.732374183834
1711685676908,-12474.176806043368
1711685676948,-12071.138325020438
1711685676989,-12071.138325020438
1711685677029,-12071.138325020438
1711685677069,-12071.138325020438
1711685677109,-10720.404032676946
1711685677149,-9006.895118887536
1711685677190,-7761.379576623207
1711685677229,-7726.748551866505
1711685677270,-6902.593266170705
1711685677309,-6787.1672761896625
1711685677350,-6346.866728646681
1711685677391,-5187.105082222726
1711685677430,-4795.822531515732
1711685677470,-4287.909232723061
1711685677510,-3830.564425988123
1711685677550,-3659.1025124168955
1711685677591,-2274.2920008313376
1711685677631,-2172.530941668898
1711685677671,-1688.3018817594275
1711685677711,-1261.577596832998
1711685677751,-1173.8101018622983
1711685677792,-1136.7768872955348
1711685677831,-973.5697671119124
1711685677872,4.969525542808697
1711685677912,110.42767268582247
1711685677952,867.7857564412989
1711685677993,1158.3292337660678
1711685678032,1561.1816156478599
1711685678072,1965.608833828941
1711685678113,2040.5308459200896
1711685678153,2220.176398583455
1711685678193,2220.176398583455
1711685678233,2220.176398583455
1711685678273,2040.5308459200896
1711685678313,1965.608833828941
1711685678353,1158.3292337660678
1711685678394,867.7857564412989
1711685678433,110.42767268582247
1711685678474,110.42767268582247
1711685678514,110.42767268582247
1711685678554,110.42767268582247
1711685678594,-1287.1397066484205
1711685678634,-1287.1397066484205
1711685678674,-1287.1397066484205
1711685678714,-1287.1397066484205
1711685678754,-1287.1397066484205
1711685678795,-1287.1397066484205
1711685678834,-1287.1397066484205
1711685678874,-1287.1397066484205
1711685678914,-1287.1397066484205
1711685678955,-1287.1397066484205
1711685678995,-1287.1397066484205
1711685679035,-277.41428386676125
1711685679075,-155.49393070978113
1711685679115,-38.467769119888544
1711685679155,375.6575446459465
1711685679196,853.9269974287599
1711685679235,1087.8607145971619
1711685679275,1812.1453097448684
1711685679315,1949.866229744861
1711685679355,2317.963063461706
1711685679396,3558.6581356585957
1711685679436,3653.852852754295
1711685679476,3781.8373766865116
1711685679516,4285.5986034350935
1711685679556,4470.68597381725
1711685679597,4904.006057638675
1711685679636,5454.776179964654
1711685679676,6074.974347355077
1711685679716,6431.249831057154
1711685679756,6434.828388720285
1711685679797,7082.369174694642
1711685679836,7114.1649152571335
1711685679877,7539.483630497707
1711685679917,7976.577074173605
1711685679957,8272.48230187688
1711685679998,8577.364758984884
1711685680037,8874.147701361217
1711685680077,8935.755493207835
1711685680117,9360.045714301988
1711685680157,9463.818212594837
1711685680198,9592.704783095978
1711685680237,9777.78322880622
1711685680278,9592.704783095978
1711685680318,9478.839826819487
1711685680358,9360.045714301988
1711685680399,9478.839826819487
1711685680438,9777.78322880622
1711685680478,10228.77954951115
1711685680518,10557.097000372596
1711685680558,10856.412083282601
1711685680599,11092.027613141108
1711685680639,11129.921309095807
1711685680679,11628.638399376534
1711685680719,11754.458302146988
1711685680759,12027.583389585372
1711685680799,12552.374903764576
1711685680839,12689.06905619055
1711685680879,12919.562669290695
1711685680919,13107.023600431625
1711685680959,13977.942743324442
1711685681000,13977.942743324442
1711685681039,13977.942743324442
1711685681079,14063.769648273243
1711685681120,14193.298774021678
1711685681160,14331.051008341601
1711685681200,14499.666892020497
1711685681240,14499.666892020497
1711685681280,14499.666892020497
1711685681320,14499.666892020497
1711685681360,14499.666892020497
1711685681401,14635.182436777279
1711685681440,15084.454521303764
1711685681480,15095.32529460569
1711685681520,15095.32529460569
1711685681561,15095.32529460569
1711685681601,15095.32529460569
1711685681641,15084.454521303764
1711685681681,14760.686467823805
1711685681721,14499.666892020497
1711685681761,14460.646656307392
1711685681802,14460.646656307392
1711685681841,14460.646656307392
1711685681881,14460.646656307392
1711685681921,14460.646656307392
1711685681962,14374.424592795316
1711685682002,14366.12399016926
1711685682042,14230.326800139155
1711685682082,12742.793511931784
1711685682122,12742.793511931784
1711685682162,12742.793511931784
1711685682203,12742.793511931784
1711685682242,12742.793511931784
1711685682282,12742.793511931784
1711685682322,12742.793511931784
1711685682362,12685.608208192047
1711685682403,12546.642589920666
1711685682443,12483.760897014756
1711685682483,12384.339676839765
1711685682523,12384.339676839765
1711685682563,12384.339676839765
1711685682604,12384.339676839765
1711685682643,12483.760897014756
1711685682683,12546.642589920666
1711685682723,12657.474309798097
1711685682763,12685.608208192047
1711685682804,12742.793511931784
1711685682844,12794.85402162699
1711685682884,12799.995037993183
1711685682924,12861.474317573011
1711685682964,12861.474317573011
1711685683005,12861.474317573011
1711685683044,12799.995037993183
1711685683084,12794.85402162699
1711685683124,12657.474309798097
1711685683165,12293.25774351391
1711685683205,12293.25774351391
1711685683245,12293.25774351391
1711685683285,12293.25774351391
1711685683325,12293.25774351391
1711685683365,12293.25774351391
1711685683406,12276.963301871903
1711685683445,11564.611183843343
1711685683486,11564.611183843343
1711685683526,11564.611183843343
1711685683566,11564.611183843343
1711685683607,11564.611183843343
1711685683646,11564.611183843343
1711685683686,11564.611183843343
1711685683726,11202.517735146917
1711685683766,11140.865279202582
1711685683807,11023.432313492056
1711685683847,10916.010153901065
1711685683887,10896.984585708007
1711685683927,10896.984585708007
1711685683967,10896.984585708007
1711685684008,10896.984585708007
1711685684047,10896.984585708007
1711685684087,10896.984585708007
1711685684128,9866.934091169853
1711685684168,6939.699583823327
1711685684208,6182.494166328106
1711685684248,6182.494166328106
1711685684288,6182.494166328106
1711685684328,6182.494166328106
1711685684368,6182.494166328106
1711685684409,6120.80114213936
1711685684448,6102.802454132121
1711685684489,6050.67586938059
1711685684529,5652.645470498363
1711685684569,5651.703103667591
1711685684610,5594.120655670296
1711685684649,5594.120655670296
1711685684689,5594.120655670296
1711685684729,5542.879527818644
1711685684769,5466.457493830705
1711685684810,5365.226675400976
1711685684849,2602.7991115099285
1711685684889,-565.3789471173659
1711685684930,-565.3789471173659
1711685684970,-565.3789471173659
1711685685011,-565.3789471173659
1711685685050,-565.3789471173659
1711685685090,-565.3789471173659
1711685685130,-1006.1199884589296
1711685685170,-1093.9370581051335
1711685685211,-1132.473426971119
1711685685250,-1163.2771343705244
1711685685291,-1297.176448408747
1711685685331,-1380.5212482735515
1711685685371,-1408.6810579961166
1711685685412,-1408.6810579961166
1711685685451,-1697.6673699070234
1711685685491,-1916.2845273900311
1711685685531,-2096.881633734796
1711685685571,-5381.283333600266
1711685685612,-6986.9296378663275
1711685685652,-6986.9296378663275
1711685685692,-6986.9296378663275
1711685685732,-6986.9296378663275
1711685685772,-6986.9296378663275
1711685685813,-7158.797043024097
1711685685852,-7600.891559655778
1711685685892,-7763.26598914084
1711685685933,-7807.531588864978
1711685685973,-7854.932776043424
1711685686013,-7873.188535274239
1711685686053,-7955.780939520337
1711685686093,-8294.467393716797
1711685686133,-8294.467393716797
1711685686173,-8774.653071147623
1711685686214,-8853.936984258704
1711685686253,-11213.006065163296
1711685686293,-12158.922732960433
1711685686333,-12158.922732960433
1711685686373,-12158.922732960433
1711685686414,-12197.965285459999
1711685686453,-12564.66772885248
1711685686493,-12577.047091293614
1711685686534,-12670.164944787975
1711685686574,-12827.058358179173
1711685686614,-12899.499608240789
1711685686654,-13096.823564620456
1711685686694,-13120.808397099841
1711685686734,-13159.45454529021
1711685686774,-13159.45454529021
1711685686815,-13120.808397099841
1711685686854,-13120.808397099841
1711685686894,-13120.808397099841
1711685686934,-13120.808397099841
1711685686975,-13120.808397099841
1711685687015,-13096.823564620456
1711685687055,-12577.047091293614
1711685687095,-14495.225060313009
1711685687135,-16108.155910880305
1711685687175,-24355.39934127871
1711685687216,-28161.75151918386
1711685687255,-38416.30836759112
1711685687295,-40623.240989347454
1711685687335,-42189.23141897749
1711685687376,-42189.23141897749
1711685687416,-42189.23141897749
1711685687456,-42189.23141897749
1711685687496,-42189.23141897749
1711685687536,-42189.23141897749
1711685687576,-42189.23141897749
1711685687617,-42189.23141897749
1711685687656,-42189.23141897749
1711685687696,-42189.23141897749
1711685687736,-42189.23141897749
1711685687776,-42189.23141897749
1711685687817,-42189.23141897749
1711685687857,-42189.23141897749
1711685687897,-43807.6486288188
1711685687937,-47701.574453763664
1711685687977,-49393.33581611165
1711685688018,-49393.33581611165
1711685688057,-49393.33581611165
1711685688097,-49393.33581611165
1711685688137,-49393.33581611165
1711685688177,-49393.33581611165
1711685688218,-49393.33581611165
1711685688257,-49393.33581611165
1711685688298,-52204.355008205865
1711685688338,-53851.070546498755
1711685688378,-53894.43473429652
1711685688419,-56908.83249937254
1711685688458,-57362.2126561678
1711685688498,-57472.50936367735
1711685688538,-60406.05038994807
1711685688578,-65291.66428979207
1711685688619,-65291.66428979207
1711685688658,-65291.66428979207
1711685688699,-65291.66428979207
1711685688739,-65291.66428979207
1711685688779,-65291.66428979207
1711685688820,-65291.66428979207
1711685688859,-65291.66428979207
1711685688899,-65291.66428979207
1711685688939,-65291.66428979207
1711685688979,-60406.05038994807
1711685689020,-47246.250293124
1711685689059,-34088.75278148893
1711685689099,-24794.002417826792
1711685689139,-8761.720027839765
1711685689180,-8672.806499256752
1711685689220,2227.872335824184
1711685689260,6266.228564836318
1711685689300,8244.87465663976
1711685689340,13748.230643302202
1711685689380,13748.230643302202
1711685689421,13748.230643302202
1711685689460,13748.230643302202
1711685689500,13748.230643302202
1711685689541,14048.112948178547
1711685689580,15079.4497645339
1711685689621,15834.094349530526
1711685689661,16570.992767768912
1711685689701,20113.751262599137
1711685689741,24406.32049762504
1711685689781,24800.330908305477
1711685689822,24932.131506417412
1711685689861,25587.266624130774
1711685689901,31282.65184250544
1711685689941,31282.65184250544
1711685689982,31282.65184250544
1711685690023,31282.65184250544
1711685690062,31282.65184250544
1711685690102,28451.892406276893
1711685690142,28451.892406276893
1711685690182,28451.892406276893
1711685690223,28451.892406276893
1711685690263,28451.892406276893
1711685690303,28451.892406276893
1711685690343,28451.892406276893
1711685690383,28451.892406276893
1711685690424,19663.534283048008
1711685690463,19506.89301772602
1711685690503,12316.357913970714
1711685690543,11279.008698976133
1711685690583,11279.008698976133
1711685690624,11279.008698976133
1711685690664,11279.008698976133
1711685690704,11279.008698976133
1711685690744,11279.008698976133
1711685690784,11279.008698976133
1711685690825,11279.008698976133
1711685690864,11279.008698976133
1711685690904,11279.008698976133
1711685690944,12316.357913970714
1711685690985,16048.717175136786
1711685691025,16580.68614916224
1711685691065,16827.072671132162
1711685691105,16882.017968138214
1711685691145,16882.017968138214
1711685691185,16882.017968138214
1711685691226,16882.017968138214
1711685691265,16882.017968138214
1711685691305,16882.017968138214
1711685691346,16882.017968138214
1711685691386,16882.017968138214
1711685691426,16827.072671132162
1711685691466,16827.072671132162
1711685691506,16580.68614916224
1711685691546,15540.722639549058
1711685691586,15540.722639549058
1711685691627,15540.722639549058
1711685691666,15540.722639549058
1711685691707,15540.722639549058
1711685691747,15540.722639549058
1711685691787,15540.722639549058
1711685691828,15540.722639549058
1711685691867,15540.722639549058
1711685691907,15540.722639549058
1711685691947,15540.722639549058
1711685691987,16032.569549492095
1711685692028,16379.853957862826
1711685692068,16555.94509967789
1711685692108,16798.061498680618
1711685692148,17011.081237347564
1711685692188,17066.169573506573
1711685692228,18113.332403211854
1711685692268,18471.312019885052
1711685692308,18639.95266018738
1711685692348,19317.146372476127
1711685692388,19511.901601084974
1711685692429,19513.16621726565
1711685692469,19513.16621726565
1711685692509,19513.16621726565
1711685692549,19513.16621726565
1711685692589,19317.146372476127
1711685692630,19317.146372476127
1711685692669,19411.21063629724
1711685692709,19513.16621726565
1711685692749,19530.826891096774
1711685692790,19570.465321279364
1711685692830,19689.83824620582
1711685692870,19827.29019825696
1711685692910,19827.29019825696
1711685692950,19835.641471215524
1711685692990,20102.372415911872
1711685693031,20102.372415911872
1711685693070,19835.641471215524
1711685693111,19827.29019825696
1711685693151,19689.83824620582
1711685693191,19530.826891096774
1711685693231,19411.21063629724
1711685693271,18506.79654688458
1711685693311,18506.79654688458
1711685693351,18506.79654688458
1711685693391,18506.79654688458
1711685693432,18506.79654688458
1711685693471,18080.73122196016
1711685693512,17947.662928594276
1711685693552,17431.66577506205
1711685693592,17431.66577506205
1711685693633,17274.766025930177
1711685693672,16989.521823168965
1711685693712,16983.060057221446
1711685693753,16929.887618565466
1711685693793,16864.650006912183
1711685693833,16687.158896239474
1711685693873,16637.66489551426
1711685693913,16615.815207682084
1711685693953,16583.930867783725
1711685693993,16583.930867783725
1711685694034,16583.930867783725
1711685694073,15173.529037460918
1711685694113,15003.033533146605
1711685694153,15003.033533146605
1711685694193,15003.033533146605
1711685694234,15003.033533146605
1711685694274,14873.825455503538
1711685694314,14843.714308709837
1711685694354,14791.241754057119
1711685694394,14602.891449138056
1711685694435,14600.100622588303
1711685694474,14529.133287083125
1711685694514,14512.632969942875
1711685694554,14512.632969942875
1711685694594,14512.632969942875
1711685694635,14512.632969942875
1711685694675,14512.632969942875
1711685694715,12006.056080122013
1711685694755,11318.389773889678
1711685694795,11318.389773889678
1711685694836,11318.389773889678
1711685694875,11318.389773889678
1711685694915,11175.079805705464
1711685694955,11061.817303366028
1711685694995,11017.462888183538
1711685695036,10828.888679007534
1711685695076,10766.86146237445
1711685695116,10592.403794526355
1711685695156,10527.70450062817
1711685695196,10496.38614870049
1711685695237,10496.38614870049
1711685695276,10496.38614870049
1711685695316,10527.70450062817
1711685695356,10527.70450062817
1711685695396,10527.70450062817
1711685695437,10527.70450062817
1711685695476,10527.70450062817
1711685695516,10592.403794526355
1711685695557,11175.079805705464
1711685695597,11222.666724330746
1711685695637,10496.38614870049
1711685695677,10086.279275796143
1711685695717,8012.705352427671
1711685695757,7995.316439786693
1711685695797,6960.056458519306
1711685695838,5947.7638130728155
1711685695877,5947.7638130728155
1711685695918,5911.538534224732
1711685695958,5911.538534224732
1711685695998,5911.538534224732
1711685696039,5911.538534224732
1711685696078,5911.538534224732
1711685696118,3470.8893337592017
1711685696158,1783.9085341051687
1711685696198,874.6677721526939
1711685696239,-181.16283961106092
1711685696279,-514.262938672211
1711685696319,-1453.4123076656833
1711685696359,-1479.3216098076664
1711685696399,-1479.9443533695303
1711685696439,-1697.3049189615995
1711685696479,-1936.1795128392987
1711685696519,-1984.4160927578341
1711685696559,-3844.5279448446818
1711685696599,-8412.600519221509
1711685696640,-10969.306820372585
1711685696679,-12966.343208125327
1711685696720,-13186.720958822872
1711685696760,-13379.5704186121
1711685696800,-14471.934189282358
1711685696841,-14954.90768301324
1711685696880,-15791.798790154979
1711685696920,-16315.394239340909
1711685696960,-16907.5309029785
1711685697001,-16912.590627225116
1711685697041,-22323.89674732834
1711685697081,-27750.57217621198
1711685697121,-30936.465472366894
1711685697161,-32107.956859832164
1711685697201,-32689.7605837211
1711685697242,-32867.58439302957
1711685697281,-33024.394589148695
1711685697321,-33214.314706321806
1711685697362,-33214.314706321806
1711685697402,-33214.314706321806
1711685697442,-33257.953144543106
1711685697482,-34330.953420889564
1711685697522,-34407.19644118985
1711685697562,-34407.19644118985
1711685697603,-34407.19644118985
1711685697643,-34407.19644118985
1711685697683,-34725.87836799724
1711685697723,-34725.87836799724
1711685697763,-35017.40363793308
1711685697803,-35272.02026281203
1711685697844,-35839.62007636228
1711685697883,-40578.88820588612
1711685697923,-40578.88820588612
1711685697964,-40578.88820588612
1711685698004,-40578.88820588612
1711685698045,-40578.88820588612
1711685698084,-40578.88820588612
1711685698124,-40834.0038919833
1711685698164,-42084.46518303454
1711685698205,-42239.37593633123
1711685698245,-42317.9741003681
1711685698285,-42481.543306002626
1711685698325,-42781.42106571887
1711685698365,-42781.42106571887
1711685698405,-42553.0238664255
1711685698446,-42481.543306002626
1711685698486,-42317.9741003681
1711685698526,-42239.37593633123
1711685698566,-42084.46518303454
1711685698606,-41517.58125526481
1711685698647,-40834.0038919833
1711685698686,-39648.17138472316
1711685698726,-38607.459619863424
1711685698767,-36965.13161227573
1711685698807,-36965.13161227573
1711685698848,-36965.13161227573
1711685698887,-36965.13161227573
1711685698927,-36965.13161227573
1711685698967,-36735.71090426622
1711685699007,-36321.49895654083
1711685699048,-35258.556852077134
1711685699088,-34727.53938571154
1711685699128,-34053.11501822481
1711685699168,-32705.450333180605
1711685699208,-31933.788467301987
1711685699249,-31589.455278192414
1711685699288,-31278.383655020036
1711685699328,-29895.64013018785
1711685699369,-29437.873696665512
1711685699409,-29197.719199750572
1711685699449,-28555.725752529688
1711685699489,-27563.018430040684
1711685699529,-25218.767392247682
1711685699569,-23114.021610828582
1711685699609,-21353.60930820275
1711685699650,-21168.80241593183
1711685699690,-20727.654026404023
1711685699730,-19941.654154621065
1711685699770,-19721.09059698088
1711685699810,-17837.42539358884
1711685699851,-17670.695614613593
1711685699890,-16900.769716116367
1711685699930,-16560.389281314332
1711685699971,-15345.098880678881
1711685700011,-14987.597469688859
1711685700052,-14591.85997439595
1711685700091,-13708.276426461525
1711685700131,-12889.737204262754
1711685700171,-10786.752611706499
1711685700212,-8297.643301685574
1711685700252,-6004.857098973822
1711685700292,-4982.118069421966
1711685700332,-4685.224008936435
1711685700372,-4150.749980978202
1711685700412,-3468.5404913206585
1711685700453,-3387.4344095839188
1711685700492,-3008.9679925600067
1711685700532,-2086.4716186402366
1711685700572,-1064.9895236077718
1711685700613,-609.0134170651436
1711685700653,-236.93649526545778
1711685700693,-61.604180314112455
1711685700733,781.9366720262915
1711685700773,898.8544799580704
1711685700813,898.8544799580704
1711685700854,2282.2215541307814
1711685700893,4498.428101581987
1711685700933,5715.78348075971
1711685700974,5829.693138584495
1711685701014,6057.319838261697
1711685701054,6711.9597659108695
1711685701094,7066.602325248998
1711685701134,7361.100623753853
1711685701174,7459.762697925558
1711685701214,8765.611149438191
1711685701255,8939.21080710832
1711685701294,9067.015626225388
1711685701334,9308.59913334297
1711685701374,9556.080322273541
1711685701415,9858.299938418437
1711685701456,10721.804268904496
1711685701495,10721.804268904496
1711685701535,10721.804268904496
1711685701575,12003.87879030942
1711685701615,12715.396788758691
1711685701656,13595.514909713995
1711685701695,13741.643183275592
1711685701735,14038.641675981693
1711685701775,14262.415849159472
1711685701816,14701.204616178293
1711685701856,14880.537340800744
1711685701896,15191.285886090714
1711685701936,15485.190335383173
1711685701976,15527.62960020639
1711685702016,15606.819064905401
1711685702057,15645.620153422933
1711685702096,15964.114561734954
1711685702136,16818.696787879337
1711685702176,16818.696787879337
1711685702217,16818.696787879337
1711685702257,16729.61446118867
1711685702297,16729.61446118867
1711685702337,16818.696787879337
1711685702377,17260.89629620174
1711685702417,17272.425728466827
1711685702458,17630.894629963208
1711685702497,17636.587502634153
1711685702537,17992.799577269703
1711685702577,18193.684399141697
1711685702617,18423.420603680424
1711685702658,18452.778919663513
1711685702698,18793.01625689119
1711685702738,18822.96464216383
1711685702778,18923.989414905198
1711685702818,18960.142529113684
1711685702859,18960.142529113684
1711685702898,18923.989414905198
1711685702938,18822.96464216383
1711685702979,18793.01625689119
1711685703019,18452.778919663513
1711685703059,18452.778919663513
1711685703099,18452.778919663513
1711685703139,18452.778919663513
1711685703179,18452.778919663513
1711685703219,18452.778919663513
1711685703260,18423.420603680424
1711685703300,18310.421561262803
1711685703340,18307.1559957047
1711685703380,18307.1559957047
1711685703420,18307.1559957047
1711685703461,18307.1559957047
1711685703500,18307.1559957047
1711685703540,18184.762772254413
1711685703580,18084.12166913878
1711685703621,17837.010676394217
1711685703661,17719.520325911464
1711685703701,17614.92978899018
1711685703741,17614.92978899018
1711685703781,17614.92978899018
1711685703821,17614.92978899018
1711685703862,17614.92978899018
1711685703901,17614.92978899018
1711685703941,16128.618748076493
1711685703982,13940.500568727963
1711685704021,13940.500568727963
1711685704062,13940.500568727963
1711685704102,13940.500568727963
1711685704142,13940.500568727963
1711685704182,13940.500568727963
1711685704222,13559.15884606447
1711685704263,13195.038244004129
1711685704302,13148.511143771466
1711685704343,12862.955426868517
1711685704383,12712.575855229981
1711685704423,12678.011483294424
1711685704464,12671.349308098434
1711685704503,12440.110475942027
1711685704543,12440.110475942027
1711685704583,12424.630125177093
1711685704623,12052.617017495912
1711685704664,11316.252991300542
1711685704704,10890.15267539001
1711685704744,10890.15267539001
1711685704784,10890.15267539001
1711685704824,10890.15267539001
1711685704867,10890.15267539001
1711685704904,10890.15267539001
1711685704944,9782.607696138788
1711685704984,9550.330809563398
1711685705024,8366.644201535964
1711685705065,8359.365855993237
1711685705105,7983.898717427161
1711685705145,7754.992107603233
1711685705185,7754.992107603233
1711685705225,7754.992107603233
1711685705266,7754.992107603233
1711685705305,7754.992107603233
1711685705345,7707.409960859688
1711685705385,7707.409960859688
1711685705426,7754.992107603233
1711685705466,7754.992107603233
1711685705506,7754.992107603233
1711685705546,7754.992107603233
1711685705586,7754.992107603233
1711685705626,7707.409960859688
1711685705667,7663.894707119092
1711685705706,7625.508086376358
1711685705746,7543.273215184454
1711685705787,7082.409674074734
1711685705827,7068.997025602497
1711685705868,7068.997025602497
1711685705907,7068.997025602497
1711685705947,6721.614296071697
1711685705987,6483.483367311768
1711685706028,6375.527239386225
1711685706068,5581.877592775738
1711685706108,5581.877592775738
1711685706148,5581.877592775738
1711685706188,5581.877592775738
1711685706228,5581.877592775738
1711685706269,5271.887805116363
1711685706308,5228.165601127315
1711685706349,5049.62267590221
1711685706389,5007.087292336393
1711685706429,4888.408140074927
1711685706470,4437.236687039491
1711685706509,4437.236687039491
1711685706549,4437.236687039491
1711685706589,4437.236687039491
1711685706630,4357.979420649586
1711685706670,3712.0253986706957
1711685706710,3712.0253986706957
1711685706750,3712.0253986706957
1711685706790,3712.0253986706957
1711685706830,3712.0253986706957
1711685706871,3183.483445570804
1711685706910,3110.035935493652
1711685706950,3058.847387940157
1711685706991,2919.7734717596322
1711685707031,2875.33483017236
1711685707074,2813.049083566293
1711685707111,2813.049083566293
1711685707151,2875.33483017236
1711685707191,2919.7734717596322
1711685707231,3058.847387940157
1711685707272,3110.035935493652
1711685707311,3162.2229212757666
1711685707352,3225.0560590988025
1711685707392,3249.568718362134
1711685707432,3407.265864509158
1711685707473,3658.4378371369094
1711685707512,3407.265864509158
1711685707552,3249.568718362134
1711685707592,3225.0560590988025
1711685707632,3162.2229212757666
1711685707673,3162.2229212757666
1711685707712,3225.0560590988025
1711685707752,3249.568718362134
1711685707792,3407.265864509158
1711685707833,3519.7598733394407
1711685707873,3658.4378371369094
1711685707913,4354.685791284312
1711685707953,4370.323227184126
1711685707993,4640.77180146426
1711685708033,4656.295703392476
1711685708074,4693.81157653057
1711685708113,4815.612388121197
1711685708153,4815.612388121197
1711685708193,4693.81157653057
1711685708233,4656.295703392476
1711685708274,4640.77180146426
1711685708314,4640.77180146426
1711685708354,4656.295703392476
1711685708394,4693.81157653057
1711685708434,4815.612388121197
1711685708475,5636.549583016429
1711685708514,5669.496946548112
1711685708554,5803.644154313486
1711685708594,5912.916205151007
1711685708634,5993.648284750292
1711685708675,6066.895138370339
1711685708712,6496.636759054381
1711685708753,6496.636759054381
1711685708793,6066.895138370339
1711685708833,5993.648284750292
1711685708874,5913.355911211809
1711685708913,5912.916205151007
1711685708953,5912.916205151007
1711685708993,5913.355911211809
1711685709033,5993.648284750292
1711685709074,6008.123286886141
1711685709113,6030.137046816293
1711685709154,6048.67597859446
1711685709194,6066.895138370339
1711685709234,6238.292608045507
1711685709275,6496.636759054381
1711685709314,6731.141321180388
1711685709354,6731.141321180388
1711685709394,6238.292608045507
1711685709434,6048.67597859446
1711685709475,6030.137046816293
1711685709515,6008.123286886141
1711685709555,5913.355911211809
1711685709595,5759.712362069171
1711685709635,5759.712362069171
1711685709676,5759.712362069171
1711685709715,5759.712362069171
1711685709755,5473.8092130501755
1711685709795,5341.125400054501
1711685709835,5112.230615834938
1711685709876,5112.230615834938
1711685709915,5112.230615834938
1711685709956,5112.230615834938
1711685709996,5100.385065623792
1711685710036,5005.728951798752
1711685710076,4785.046138378093
1711685710116,4752.472927710973
1711685710156,4730.818657097174
1711685710196,4548.245370297693
1711685710236,4468.3932814870495
1711685710277,4468.3932814870495
1711685710316,4468.3932814870495
1711685710357,4322.607247983571
1711685710397,3870.384745180141
1711685710437,3601.855575192021
1711685710478,3601.855575192021
1711685710517,3601.855575192021
1711685710557,3601.855575192021
1711685710597,3601.855575192021
1711685710637,3517.5334460018203
1711685710678,3063.25880809268
1711685710717,2814.570826818235
1711685710757,2764.301086448133
1711685710798,2703.354814263992
1711685710838,2564.5213646786287
1711685710878,2703.354814263992
1711685710918,2703.354814263992
1711685710958,2703.354814263992
1711685710998,2703.354814263992
1711685711038,2703.354814263992
1711685711079,2910.2118000045884
1711685711118,2984.6910405105446
1711685711159,3063.25880809268
1711685711199,3212.6276306437794
1711685711239,3517.5334460018203
1711685711280,3517.5334460018203
1711685711319,3212.6276306437794
1711685711359,2984.6910405105446
1711685711399,2910.2118000045884
1711685711439,2717.437635346316
1711685711480,2470.054868445499
1711685711519,2470.054868445499
1711685711560,2470.054868445499
1711685711600,2470.054868445499
1711685711640,2470.054868445499
1711685711681,2470.054868445499
1711685711720,2379.939088013023
1711685711760,2470.054868445499
1711685711801,2594.0056557776406
1711685711840,2594.0056557776406
1711685711881,2594.0056557776406
1711685711921,2594.0056557776406
1711685711961,2594.0056557776406
1711685712001,2594.0056557776406
1711685712041,2044.9885461463127
1711685712082,1847.6196070546284
1711685712121,1616.7469769276213
1711685712161,1616.7469769276213
1711685712202,1628.5466933455318
1711685712242,1847.6196070546284
1711685712283,1847.6196070546284
1711685712322,1847.6196070546284
1711685712362,2044.9885461463127
1711685712402,2105.5550808934495
1711685712442,2113.960222994443
1711685712483,2357.737945381319
1711685712523,2479.338007122744
1711685712563,2594.0056557776406
1711685712603,2798.5320474104956
1711685712643,2798.5320474104956
1711685712684,2479.338007122744
1711685712723,2357.737945381319
1711685712763,2243.0937712190207
1711685712803,2113.960222994443
1711685712844,2105.5550808934495
1711685712884,2105.5550808934495
1711685712924,2105.5550808934495
1711685712964,2105.5550808934495
1711685713004,2105.5550808934495
1711685713044,2105.5550808934495
1711685713085,2105.5550808934495
1711685713125,2168.3383971848525
1711685713165,2243.0937712190207
1711685713205,2323.0465377201326
1711685713245,2323.0465377201326
1711685713286,2323.0465377201326
1711685713325,2323.0465377201326
1711685713366,2323.0465377201326
1711685713406,2243.0937712190207
1711685713446,2168.3383971848525
1711685713487,1900.1048971097916
1711685713526,1890.6371333606075
1711685713566,1890.6371333606075
1711685713606,1890.6371333606075
1711685713646,1890.6371333606075
1711685713687,1890.6371333606075
1711685713727,1890.6371333606075
1711685713767,1646.879991355585
1711685713807,1522.0474726832472
1711685713847,1522.0474726832472
1711685713888,1522.0474726832472
1711685713927,1522.0474726832472
1711685713967,1522.0474726832472
1711685714007,1522.0474726832472
1711685714048,1522.0474726832472
1711685714089,1522.0474726832472
1711685714128,1522.0474726832472
1711685714168,1522.0474726832472
1711685714208,1497.817428352777
1711685714248,1522.0474726832472
1711685714289,1619.7526349662803
1711685714329,1795.5399768273346
1711685714369,2194.8631685147993
1711685714409,2247.978470490314
1711685714449,2359.6769701344892
1711685714490,2359.6769701344892
1711685714529,2359.6769701344892
1711685714569,2359.6769701344892
1711685714609,2432.4884296986274
1711685714649,2694.2304347576573
1711685714690,2926.1732363495976
1711685714729,2926.1732363495976
1711685714770,2926.1732363495976
1711685714810,2926.1732363495976
1711685714850,2926.1732363495976
1711685714891,2926.1732363495976
1711685714930,2694.2304347576573
1711685714970,2432.4884296986274
1711685715010,2359.6769701344892
1711685715051,2359.6769701344892
1711685715091,2359.6769701344892
1711685715131,2359.6769701344892
1711685715171,2359.6769701344892
1711685715211,1834.7028415531386
1711685715251,1833.7262978772633
1711685715292,1747.3815307072364
1711685715331,1833.7262978772633
1711685715371,1834.7028415531386
1711685715412,1911.6008225437254
1711685715452,1911.6008225437254
1711685715492,1911.6008225437254
1711685715532,1911.6008225437254
1711685715572,1911.6008225437254
1711685715612,1833.7262978772633
1711685715652,1695.6468390168156
1711685715693,1605.6328754529823
1711685715732,1389.8167243893258
1711685715772,1375.6844003265724
1711685715812,1375.6844003265724
1711685715853,1375.6844003265724
1711685715893,1301.4021381968632
1711685715933,1015.8216967948247
1711685715973,289.16750957164913
1711685716013,-161.75107761938125
1711685716053,-685.1037888957653
1711685716094,-685.1037888957653
1711685716133,-685.1037888957653
1711685716173,-685.1037888957653
1711685716214,-685.1037888957653
1711685716254,-685.1037888957653
1711685716294,-819.9338891336229
1711685716334,-933.9071298935451
1711685716374,-1037.884472235106
1711685716414,-1043.7053410245571
1711685716454,-1340.0555701809935
1711685716495,-1340.0555701809935
1711685716534,-1340.0555701809935
1711685716574,-1430.6015844731592
1711685716615,-1459.3972702333704
1711685716655,-1509.9422507011332
1711685716695,-1595.8782950043678
1711685716735,-4304.381594699342
1711685716775,-4618.918402365642
1711685716815,-4618.918402365642
1711685716855,-4618.918402365642
1711685716896,-4618.918402365642
1711685716935,-4618.918402365642
1711685716975,-4618.918402365642
1711685717016,-4618.918402365642
1711685717056,-4958.346583966631
1711685717097,-5777.29988743132
1711685717136,-6011.350915249903
1711685717176,-6074.356102589518
1711685717216,-6074.356102589518
1711685717256,-6074.356102589518
1711685717297,-6074.356102589518
1711685717337,-6186.574256718159
1711685717377,-6186.574256718159
1711685717417,-6186.574256718159
1711685717457,-7056.688936129911
1711685717498,-7475.137340781046
1711685717537,-7475.137340781046
1711685717577,-7475.137340781046
1711685717617,-7475.137340781046
1711685717657,-7475.137340781046
1711685717698,-7475.137340781046
1711685717738,-7475.137340781046
1711685717778,-7475.137340781046
1711685717818,-7508.28256017575
1711685717858,-7914.213831008878
1711685717899,-8060.602287724614
1711685717938,-8032.406087146141
1711685717978,-7914.213831008878
1711685718018,-7689.538949131733
1711685718059,-7543.784190553706
1711685718099,-7508.28256017575
1711685718139,-7475.137340781046
1711685718179,-7250.810289023677
1711685718219,-6900.424042392522
1711685718259,-6488.874374191742
1711685718300,-6433.220124328043
1711685718339,-6208.490806237562
1711685718379,-5801.4163754705805
1711685718420,-5734.112176640425
1711685718460,-5734.112176640425
1711685718501,-5734.112176640425
1711685718540,-6208.490806237562
1711685718580,-6343.42451946158
1711685718620,-6433.220124328043
1711685718661,-6433.220124328043
1711685718701,-6433.220124328043
1711685718741,-6433.220124328043
1711685718781,-6343.42451946158
1711685718821,-6259.325052353088
1711685718861,-6252.916435765568
1711685718902,-6208.490806237562
1711685718941,-5989.941431227373
1711685718982,-5734.112176640425
1711685719022,-5506.4651786787435
1711685719062,-5493.50039913482
1711685719103,-5493.50039913482
1711685719142,-5493.50039913482
1711685719182,-5493.50039913482
1711685719222,-5493.50039913482
1711685719263,-5506.4651786787435
1711685719303,-5989.941431227373
1711685719343,-6252.916435765568
1711685719383,-6252.916435765568
1711685719423,-6252.916435765568
1711685719463,-5989.941431227373
1711685719504,-5989.941431227373
1711685719543,-5949.4111369966995
1711685719584,-5949.4111369966995
1711685719624,-5939.432460842421
1711685719664,-5627.378141349647
1711685719705,-5506.4651786787435
1711685719744,-5493.50039913482
1711685719784,-5370.974419367034
1711685719824,-5370.974419367034
1711685719865,-5370.974419367034
1711685719905,-5627.378141349647
1711685719945,-5939.432460842421
1711685719985,-5949.4111369966995
1711685720025,-6006.380894827889
1711685720065,-6094.197087833658
1711685720106,-6094.197087833658
1711685720146,-6094.197087833658
1711685720186,-6094.197087833658
1711685720226,-6094.197087833658
1711685720266,-6094.197087833658
1711685720307,-6260.589234402869
1711685720346,-8380.593341835774
1711685720386,-8380.593341835774
1711685720427,-8380.593341835774
1711685720467,-8380.593341835774
1711685720508,-8380.593341835774
1711685720547,-9027.62325176713
1711685720587,-9120.436120767612
1711685720627,-9130.92104572244
1711685720667,-9159.613022014499
1711685720708,-9280.984407311305
1711685720750,-9324.596675361507
1711685720790,-9542.820484755794
1711685720830,-9659.065654667793
1711685720870,-9925.474147540051
1711685720911,-10264.03936015442
1711685720950,-11982.425533004105
1711685720990,-14005.250002443325
1711685721030,-14005.250002443325
1711685721071,-14005.250002443325
1711685721111,-14005.250002443325
1711685721151,-14005.250002443325
1711685721191,-14005.250002443325
1711685721231,-14808.452585136052
1711685721271,-15036.009798132814
1711685721312,-15430.79599636048
1711685721351,-15453.568137516733
1711685721391,-15593.418380531715
1711685721431,-15663.617955661844
1711685721471,-15679.31719493703
1711685721512,-15955.460514420178
1711685721552,-16019.777116913116
1711685721592,-16022.927563924342
1711685721632,-16022.927563924342
1711685721672,-16022.927563924342
1711685721713,-15679.31719493703
1711685721752,-15582.71640069224
1711685721792,-15582.71640069224
1711685721832,-15582.71640069224
1711685721872,-15582.71640069224
1711685721913,-15679.31719493703
1711685721952,-15761.809204041027
1711685721993,-16430.603361746296
1711685722033,-16711.905211375095
1711685722073,-16711.905211375095
1711685722113,-16565.429373881314
1711685722153,-16430.603361746296
1711685722193,-16103.224508007057
1711685722233,-16046.319394417107
1711685722273,-16014.22884884337
1711685722314,-15884.925835137721
1711685722353,-15761.809204041027
1711685722394,-15582.71640069224
1711685722434,-15442.880504321074
1711685722474,-15088.830401966348
1711685722515,-15088.830401966348
1711685722554,-15088.830401966348
1711685722594,-15088.830401966348
1711685722634,-15088.830401966348
1711685722674,-15088.830401966348
1711685722715,-15088.830401966348
1711685722754,-13366.428922835039
1711685722794,-13327.184871145058
1711685722835,-13019.548559606541
1711685722875,-12961.177660555579
1711685722916,-12629.170614996925
1711685722955,-12403.630272778682
1711685722995,-11961.633175942581
1711685723035,-11424.846706922865
1711685723075,-10882.92451652605
1711685723116,-10526.896741630975
1711685723155,-10439.542094930308
1711685723195,-10304.031453934498
1711685723236,-9527.045848315582
1711685723276,-9487.422982271295
1711685723316,-8750.101280584
1711685723356,-8750.101280584
1711685723396,-8750.101280584
1711685723436,-7932.272666322067
1711685723476,-7204.921930849552
1711685723517,-6650.275522208773
1711685723556,-6392.442172337556
1711685723596,-6088.058466489194
1711685723636,-5802.497458772734
1711685723676,-4699.43304957496
1711685723717,-4623.785856595729
1711685723757,-4579.701073967386
1711685723797,-3921.8323364667594
1711685723837,-3767.043268451467
1711685723877,-3493.3515198873356
1711685723918,-3453.644687216729
1711685723957,-3411.3178010145202
1711685723997,-3453.644687216729
1711685724037,-3493.3515198873356
1711685724078,-3767.043268451467
1711685724118,-3767.043268451467
1711685724158,-3767.043268451467
1711685724198,-3505.7710485432763
1711685724238,-3505.7710485432763
1711685724278,-3493.3515198873356
1711685724319,-3455.602564721834
1711685724358,-3453.644687216729
1711685724398,-3411.3178010145202
1711685724439,-2948.6893060309812
1711685724478,-2625.5489831957966
1711685724519,-2209.3004076411016
1711685724559,-1715.6101707392372
1711685724599,-1715.6101707392372
1711685724639,-2430.193020964507
1711685724679,-2625.5489831957966
1711685724720,-3411.3178010145202
1711685724759,-3455.602564721834
1711685724800,-3505.7710485432763
1711685724840,-3505.7710485432763
1711685724880,-3455.602564721834
1711685724921,-3278.9630369346123
1711685724960,-2959.747954730876
1711685725000,-2625.5489831957966
1711685725040,-2430.193020964507
1711685725080,-2316.2847270732746
1711685725121,-1732.9120687379036
1711685725161,-1715.6101707392372
1711685725201,-804.060178345535
1711685725241,-775.2258335575461
1711685725281,-775.2258335575461
1711685725322,-775.2258335575461
1711685725361,-775.2258335575461
1711685725401,-1037.3704145944212
1711685725441,-1228.153298050398
1711685725481,-1037.3704145944212
1711685725522,-944.002522124676
1711685725562,-775.2258335575461
1711685725602,-432.3403056215029
1711685725642,-363.8041696581058
1711685725682,-326.7464716467075
1711685725723,-291.6336792623624
1711685725762,-85.69441714440472
1711685725802,-45.46387906256132
1711685725842,24.066841311054304
1711685725883,796.3266287054867
1711685725923,1149.059721966274
1711685725963,1866.1489478526637
1711685726003,1866.1489478526637
1711685726043,1866.1489478526637
1711685726083,1866.1489478526637
1711685726124,838.6580593234394
1711685726163,796.3266287054867
1711685726204,796.3266287054867
1711685726244,796.3266287054867
1711685726284,838.6580593234394
1711685726325,1140.2770096994936
1711685726364,1169.6681903901044
1711685726404,1231.2474013085011
1711685726444,1244.6939473170787
1711685726485,1382.7001533466391
1711685726525,1969.006904625101
1711685726565,2049.754858265631
1711685726605,2049.754858265631
1711685726645,2049.754858265631
1711685726685,2049.754858265631
1711685726726,2049.754858265631
1711685726766,2049.754858265631
1711685726806,2049.754858265631
1711685726846,2049.754858265631
1711685726886,1969.006904625101
1711685726927,1758.3362135018688
1711685726966,1758.3362135018688
1711685727006,1969.006904625101
1711685727047,2468.1216694377363
1711685727087,2468.1216694377363
1711685727127,2468.1216694377363
1711685727167,2468.1216694377363
1711685727207,2487.989300585119
1711685727247,2731.726124354638
1711685727287,2848.311235825997
1711685727328,3078.7818489321508
1711685727368,3209.222621297464
1711685727408,3209.222621297464
1711685727448,3209.222621297464
1711685727488,3209.222621297464
1711685727529,3209.222621297464
1711685727568,3209.222621297464
1711685727608,2848.311235825997
1711685727649,2731.726124354638
1711685727689,2487.989300585119
1711685727730,2670.285201552324
1711685727769,2731.726124354638
1711685727809,3209.222621297464
1711685727849,3545.717023411067
1711685727890,3545.717023411067
1711685727930,3617.3151888921857
1711685727970,3720.578647919465
1711685728010,3749.6946946352255
1711685728050,3776.810288724955
1711685728090,3892.696639601141
1711685728131,4149.514474278316
1711685728170,4149.514474278316
1711685728210,4149.514474278316
1711685728250,4149.514474278316
1711685728290,4149.514474278316
1711685728331,4149.514474278316
1711685728371,3892.696639601141
1711685728411,3776.810288724955
1711685728451,3776.810288724955
1711685728491,3776.810288724955
1711685728532,3776.810288724955
1711685728571,3776.810288724955
1711685728611,3776.810288724955
1711685728651,3776.810288724955
1711685728691,3776.810288724955
1711685728732,3776.810288724955
1711685728771,4149.514474278316
1711685728811,4186.8409378957
1711685728852,4186.8409378957
1711685728892,4186.8409378957
1711685728933,4186.8409378957
1711685728972,4186.8409378957
1711685729012,4186.8409378957
1711685729052,3617.6174569241703
1711685729092,3407.367563898675
1711685729133,3255.226097389823
1711685729172,3249.3591344966553
1711685729212,3186.2415143065155
1711685729253,3158.6753663998097
1711685729293,3158.6753663998097
1711685729334,3158.6753663998097
1711685729373,2957.00223265728
1711685729413,2858.53279887978
1711685729453,2352.702443878399
1711685729493,1602.5143169555813
1711685729534,1602.5143169555813
1711685729573,1602.5143169555813
1711685729614,1602.5143169555813
1711685729654,1602.5143169555813
1711685729694,1602.5143169555813
1711685729735,1602.5143169555813
1711685729774,1602.5143169555813
1711685729814,1602.5143169555813
1711685729854,1338.3806840232573
1711685729894,1079.6436679104809
1711685729935,808.9945919616148
1711685729974,1039.2284047908615
1711685730014,1079.6436679104809
1711685730054,1430.0351161302533
1711685730095,1454.8195625420194
1711685730135,1454.8195625420194
1711685730175,1587.2341412517708
1711685730215,1602.5143169555813
1711685730255,1628.6098010900896
1711685730295,1911.452328313375
1711685730336,2333.6390137411654
1711685730375,2333.6390137411654
1711685730415,2333.6390137411654
1711685730456,2333.6390137411654
1711685730496,2333.6390137411654
1711685730536,1960.0188604956493
1711685730576,1911.452328313375
1711685730616,1628.6098010900896
1711685730656,1587.2341412517708
1711685730696,1587.2341412517708
1711685730737,1587.2341412517708
1711685730776,1587.2341412517708
1711685730817,1587.2341412517708
1711685730856,1587.2341412517708
1711685730897,1587.2341412517708
1711685730938,996.5575921847485
1711685730977,-593.7891045017168
1711685731017,-593.7891045017168
1711685731057,-593.7891045017168
1711685731097,-593.7891045017168
1711685731138,-593.7891045017168
1711685731177,-593.7891045017168
1711685731217,-593.7891045017168
1711685731258,-593.7891045017168
1711685731298,-781.7670964854769
1711685731338,-984.277740262216
1711685731378,-1021.5937212947756
1711685731418,-1321.179049981758
1711685731458,-1321.179049981758
1711685731498,-1321.179049981758
1711685731539,-1321.179049981758
1711685731578,-1850.9289221786894
1711685731619,-1939.1755110684317
1711685731659,-2149.8357520499267
1711685731699,-2233.002685836749
1711685731739,-3392.1666631596163
1711685731779,-3392.1666631596163
1711685731819,-3392.1666631596163
1711685731859,-3392.1666631596163
1711685731899,-3392.1666631596163
1711685731940,-3392.1666631596163
1711685731979,-3392.1666631596163
1711685732020,-3392.1666631596163
1711685732060,-3573.628479416482
1711685732100,-3848.7299771355465
1711685732141,-4166.817560282536
1711685732180,-4234.767705162987
1711685732220,-4166.817560282536
1711685732260,-4084.4353873743676
1711685732300,-3848.7299771355465
1711685732341,-3729.4796158208046
1711685732381,-3573.628479416482
1711685732421,-3564.3322788886726
1711685732461,-3482.0121975776274
1711685732501,-3356.313889738638
1711685732542,-3281.0913207239937
1711685732581,-2412.992336382158
1711685732621,-2412.992336382158
1711685732661,-2412.992336382158
1711685732701,-2412.992336382158
1711685732742,-2412.992336382158
1711685732782,-2412.992336382158
1711685732822,-2412.992336382158
1711685732862,-2726.7850323757157
1711685732902,-2606.23873711098
1711685732943,-2412.992336382158
1711685732982,-2069.722297591623
1711685733022,-2049.8154557917733
1711685733062,-1628.5721277238335
1711685733103,-1552.837787461467
1711685733143,-1352.9404843561351
1711685733183,-1153.6301444303244
1711685733223,-1057.4887675866485
1711685733263,-856.6296735100914
1711685733303,-660.1974882106297
1711685733344,-407.1397069906816
1711685733383,-112.5917306530755
1711685733423,-112.5917306530755
1711685733464,-112.5917306530755
1711685733504,-660.1974882106297
1711685733544,-856.6296735100914
1711685733584,-1057.4887675866485
1711685733624,-1153.6301444303244
1711685733664,-1153.6301444303244
1711685733704,-1153.6301444303244
1711685733745,-1153.6301444303244
1711685733784,-1153.6301444303244
1711685733825,-1153.6301444303244
1711685733865,-1270.9148413948715
1711685733905,-1270.9148413948715
1711685733946,-1278.663236145163
1711685733985,-1278.663236145163
1711685734025,-1278.663236145163
1711685734066,-1278.663236145163
1711685734106,-1278.663236145163
1711685734146,-1278.663236145163
1711685734186,-1753.054119494278
1711685734226,-1896.0266523635946
1711685734266,-2197.978449736722
1711685734306,-2472.276422044728
1711685734347,-2515.652785711456
1711685734387,-2515.652785711456
1711685734427,-2515.652785711456
1711685734467,-2515.652785711456
1711685734507,-2752.3810579115525
1711685734548,-3139.2252268670127
1711685734587,-4595.553982141428
1711685734627,-4595.553982141428
1711685734668,-4595.553982141428
1711685734708,-4595.553982141428
1711685734748,-4595.553982141428
1711685734788,-4595.553982141428
1711685734828,-5545.992130028782
1711685734868,-5688.563034159131
1711685734909,-5797.543109171558
1711685734949,-5900.244043273153
1711685734989,-5999.268909637583
1711685735029,-6001.129954828881
1711685735069,-6011.115942614619
1711685735109,-6011.115942614619
1711685735150,-6011.115942614619
1711685735189,-6131.15992685454
1711685735229,-6346.3599984121975
1711685735269,-6346.3599984121975
1711685735309,-6346.3599984121975
1711685735350,-6346.3599984121975
1711685735390,-5900.244043273153
1711685735430,-5688.563034159131
1711685735470,-5688.563034159131
1711685735510,-5688.563034159131
1711685735550,-6710.118355738698
1711685735590,-7554.652001541341
1711685735630,-7601.829814004013
1711685735670,-7666.30390870315
1711685735710,-7666.30390870315
1711685735751,-7666.30390870315
1711685735790,-7666.30390870315
1711685735830,-7666.30390870315
1711685735871,-7666.30390870315
1711685735911,-7704.269986688159
1711685735951,-7704.269986688159
1711685735991,-7554.652001541341
1711685736031,-7149.528198132524
1711685736071,-7149.528198132524
1711685736111,-7149.528198132524
1711685736152,-7149.528198132524
1711685736191,-7149.528198132524
1711685736231,-7149.528198132524
1711685736271,-7916.240858505946
1711685736311,-8395.105973389465
1711685736352,-8496.445517498069
1711685736392,-8653.946808702778
1711685736432,-8653.946808702778
1711685736472,-8496.445517498069
1711685736512,-8496.445517498069
1711685736553,-8496.445517498069
1711685736592,-8495.733962029452
1711685736632,-8494.326814689208
1711685736672,-8395.105973389465
1711685736712,-7810.419367820723
1711685736753,-7149.528198132524
1711685736792,-6735.488791953307
1711685736833,-6594.980090355501
1711685736873,-6594.980090355501
1711685736913,-6594.980090355501
1711685736954,-6594.980090355501
1711685736993,-6594.980090355501
1711685737033,-7293.48954188847
1711685737073,-7643.082720118575
1711685737113,-7293.48954188847
1711685737154,-7194.977208258351
1711685737193,-6594.980090355501
1711685737233,-5974.4917404551525
1711685737273,-5959.370204610284
1711685737314,-5761.181012942921
1711685737354,-5749.438468164299
1711685737394,-5546.072989400942
1711685737434,-5544.880111912731
1711685737474,-5282.998986091465
1711685737514,-5063.5346229681745
1711685737555,-4760.565488936845
1711685737594,-3700.1224813035224
1711685737634,-3700.1224813035224
1711685737674,-4533.149207603885
1711685737714,-5063.5346229681745
1711685737755,-5282.998986091465
1711685737795,-5544.880111912731
1711685737835,-5544.880111912731
1711685737875,-5282.998986091465
1711685737915,-5063.5346229681745
1711685737956,-4786.341786606703
1711685737995,-4533.149207603885
1711685738035,-4516.625869594049
1711685738075,-4381.063614744227
1711685738115,-3995.1080020030495
1711685738156,-3688.479543138761
1711685738196,-3394.4692560844123
1711685738236,-3366.9194881368894
1711685738276,-2537.708594181342
1711685738316,-2537.708594181342
1711685738357,-2537.708594181342
1711685738396,-3366.9194881368894
1711685738436,-3995.1080020030495
1711685738476,-4381.063614744227
1711685738516,-4381.063614744227
1711685738557,-4381.063614744227
1711685738597,-4381.063614744227
1711685738637,-4381.063614744227
1711685738677,-4381.063614744227
1711685738717,-4381.063614744227
1711685738758,-4436.088135844795
1711685738797,-4381.063614744227
1711685738837,-3801.7288359408267
1711685738877,-3801.7288359408267
1711685738917,-3801.7288359408267
1711685738958,-3801.7288359408267
1711685738998,-3801.7288359408267
1711685739038,-3801.7288359408267
1711685739078,-4283.379197145579
1711685739118,-4436.088135844795
1711685739159,-5172.553845146205
1711685739198,-5340.7551184534095
1711685739238,-5490.339405809995
1711685739278,-5490.339405809995
1711685739318,-5490.339405809995
1711685739359,-5490.339405809995
1711685739398,-5490.339405809995
1711685739439,-5621.416199615225
1711685739479,-5621.416199615225
1711685739519,-5172.553845146205
1711685739559,-5118.8463451270945
1711685739599,-4300.494529375341
1711685739639,-4300.494529375341
1711685739679,-4300.494529375341
1711685739720,-4300.494529375341
1711685739760,-4300.494529375341
1711685739800,-4300.494529375341
1711685739840,-5092.31866716966
1711685739880,-5118.8463451270945
1711685739920,-5939.839501579059
1711685739961,-5878.838434977457
1711685740000,-5118.8463451270945
1711685740040,-5092.31866716966
1711685740081,-5092.31866716966
1711685740120,-5092.31866716966
1711685740161,-5014.602182925213
1711685740201,-4958.123220901238
1711685740241,-4762.598156370223
1711685740281,-4300.494529375341
1711685740321,-3828.9042151644826
1711685740362,-3342.9287530663423
1711685740401,-2347.220490403939
1711685740441,-2347.220490403939
1711685740482,-2347.220490403939
1711685740522,-2347.220490403939
1711685740563,-2347.220490403939
1711685740602,-2613.025720913429
1711685740642,-3128.7139123596717
1711685740682,-2623.2601599171758
1711685740722,-2613.025720913429
1711685740763,-2347.220490403939
1711685740802,-1895.2069746404886
1711685740842,-1284.9206645479426
1711685740882,-1119.0031878966838
1711685740923,-1043.1648725075647
1711685740963,-1020.6359116025269
1711685741003,-851.2704574107192
1711685741043,-799.0040267601144
1711685741083,-791.9947393720504
1711685741123,188.75346489390358
1711685741164,263.364151741378
1711685741203,263.364151741378
1711685741243,263.364151741378
1711685741284,263.364151741378
1711685741324,-791.9947393720504
1711685741365,-799.0040267601144
1711685741404,-799.0040267601144
1711685741444,-791.9947393720504
1711685741484,-744.0322516467422
1711685741524,-670.5549722197466
1711685741565,-670.5549722197466
1711685741605,-670.5549722197466
1711685741645,-670.5549722197466
1711685741685,-352.45509528927505
1711685741725,151.31616587308235
1711685741766,263.364151741378
1711685741805,389.5127512537874
1711685741845,389.5127512537874
1711685741885,389.5127512537874
1711685741925,389.5127512537874
1711685741966,389.5127512537874
1711685742006,389.5127512537874
1711685742046,151.31616587308235
1711685742086,-352.45509528927505
1711685742126,-670.5549722197466
1711685742167,-670.5549722197466
1711685742206,-670.5549722197466
1711685742247,-670.5549722197466
1711685742287,-670.5549722197466
1711685742327,-729.7781399036758
1711685742368,-997.912351871375
1711685742407,-1052.3018086971715
1711685742447,-729.7781399036758
1711685742487,151.31616587308235
1711685742527,412.1925593675114
1711685742568,412.1925593675114
1711685742608,412.1925593675114
1711685742648,412.1925593675114
1711685742688,412.1925593675114
1711685742728,412.1925593675114
1711685742769,14.817866776837036
1711685742808,-1052.3018086971715
1711685742848,-1534.5652836449444
1711685742888,-1504.0534260799177
1711685742929,-1164.6444014615845
1711685742969,-1052.3018086971715
1711685743009,-723.1570675440598
1711685743049,-720.356734523084
1711685743089,-615.1869192034937
1711685743129,-428.9193472410552
1711685743170,14.817866776837036
1711685743209,430.3755786041729
1711685743249,500.8054903356824
1711685743289,1325.990374690853
1711685743329,1325.990374690853
1711685743370,1325.990374690853
1711685743410,1325.990374690853
1711685743450,1325.990374690853
1711685743490,816.5388755886815
1711685743530,500.8054903356824
1711685743571,14.817866776837036
1711685743610,-428.9193472410552
1711685743650,-428.9193472410552
1711685743690,2.8736883806996047
1711685743730,2.8736883806996047
1711685743771,2.8736883806996047
1711685743811,2.8736883806996047
1711685743851,2.8736883806996047
1711685743891,2.8736883806996047
1711685743931,500.8054903356824
1711685743971,607.9858157541603
1711685744011,607.9858157541603
1711685744051,607.9858157541603
1711685744091,607.9858157541603
1711685744131,607.9858157541603
1711685744172,607.9858157541603
1711685744211,607.9858157541603
1711685744251,607.9858157541603
1711685744292,2.8736883806996047
1711685744331,-147.4748858541716
1711685744372,-147.4748858541716
1711685744412,-147.4748858541716
1711685744452,-147.4748858541716
1711685744492,-147.4748858541716
1711685744532,-252.10802439553663
1711685744573,-252.10802439553663
1711685744612,-76.39997120760381
1711685744652,153.01717257034034
1711685744692,607.9858157541603
1711685744732,1004.0064302228857
1711685744773,1666.796290397644
1711685744812,1873.7232320832554
1711685744853,1873.7232320832554
1711685744893,1873.7232320832554
1711685744933,1873.7232320832554
1711685744974,1873.7232320832554
1711685745013,1190.113294590963
1711685745053,1004.0064302228857
1711685745093,153.01717257034034
1711685745133,856.3878131241072
1711685745174,1004.0064302228857
1711685745213,1190.113294590963
1711685745254,1634.1671860045753
1711685745294,1910.2616498325951
1711685745334,2052.1905108757783
1711685745374,2062.9287303602323
1711685745414,2133.559795335401
1711685745454,2348.1518223062158
1711685745494,2750.6874737436883
1711685745534,2997.5635905740783
1711685745575,3302.1560269743204
1711685745614,3302.1560269743204
1711685745654,3302.1560269743204
1711685745695,3302.1560269743204
1711685745735,2750.6874737436883
1711685745775,2348.1518223062158
1711685745815,2133.559795335401
1711685745855,2133.559795335401
1711685745895,2133.559795335401
1711685745935,2133.559795335401
1711685745976,2133.559795335401
1711685746015,2133.559795335401
1711685746055,2062.9287303602323
1711685746096,2052.1905108757783
1711685746136,2052.1905108757783
1711685746176,2052.7360728818458
1711685746216,2052.7360728818458
1711685746256,2052.7360728818458
1711685746296,2052.7360728818458
1711685746336,2052.7360728818458
1711685746377,2052.7360728818458
1711685746416,1908.4177718958817
1711685746457,1463.4572956459597
1711685746497,1087.3556472980417
1711685746537,972.9914085615892
1711685746578,883.6085796500556
1711685746617,883.6085796500556
1711685746657,883.6085796500556
1711685746697,883.6085796500556
1711685746737,883.6085796500556
1711685746778,783.5438455853146
1711685746818,684.86091120122
1711685746858,-1475.6862178826705
1711685746898,-1475.6862178826705
1711685746938,-1475.6862178826705
1711685746979,-1475.6862178826705
1711685747018,-1475.6862178826705
1711685747058,-1475.6862178826705
1711685747098,-1475.6862178826705
1711685747138,-1475.6862178826705
1711685747179,-1651.394165973179
1711685747219,-1966.5802246623207
1711685747259,-1982.2429742268287
1711685747299,-2425.777952110395
1711685747339,-2425.777952110395
1711685747380,-2425.777952110395
1711685747419,-2425.777952110395
1711685747459,-2484.787865022663
1711685747500,-2586.2082616817206
1711685747540,-2972.161457935814
1711685747580,-2586.2082616817206
1711685747620,-1982.2429742268287
1711685747660,-1799.6059717820026
1711685747700,-1799.6059717820026
1711685747740,-1799.6059717820026
1711685747781,-1799.6059717820026
1711685747820,-1799.6059717820026
1711685747860,-1799.6059717820026
1711685747901,-1799.6059717820026
1711685747941,-1982.2429742268287
1711685747981,-2777.6126171932556
1711685748021,-3252.8971518957987
1711685748061,-2924.3122336019296
1711685748101,-2777.6126171932556
1711685748141,-2571.3742010579444
1711685748182,-2571.3742010579444
1711685748221,-2571.3742010579444
1711685748262,-2501.0292971287854
1711685748302,-2098.062151840888
1711685748342,-1799.6059717820026
1711685748383,-1161.4916569723282
1711685748422,-690.3589821811765
1711685748462,-412.4144932902418
1711685748502,-412.4144932902418
1711685748542,-412.4144932902418
1711685748583,-412.4144932902418
1711685748623,-412.4144932902418
1711685748663,-412.4144932902418
1711685748703,-412.4144932902418
1711685748743,-625.758379674051
1711685748784,-325.8491869312711
1711685748823,-172.21593058807775
1711685748863,130.76613382808864
1711685748903,875.2626971430145
1711685748944,875.2626971430145
1711685748985,875.2626971430145
1711685749024,875.2626971430145
1711685749064,885.7898877726402
1711685749104,1101.4596006325446
1711685749144,1194.4482306661084
1711685749185,1200.9540056595579
1711685749225,1200.9540056595579
1711685749265,1200.9540056595579
1711685749305,1200.9540056595579
1711685749345,1200.9540056595579
1711685749386,1194.4482306661084
1711685749425,1101.4596006325446
1711685749465,885.7898877726402
1711685749505,875.2626971430145
1711685749546,875.2626971430145
1711685749587,875.2626971430145
1711685749626,875.2626971430145
1711685749666,823.0387158575468
1711685749706,338.0803464902565
1711685749746,146.10493143601343
1711685749787,338.0803464902565
1711685749827,823.0387158575468
1711685749867,1101.4596006325446
1711685749907,1732.0917838634923
1711685749947,1732.0917838634923
1711685749988,1732.0917838634923
1711685750027,1422.4167588385753
1711685750067,823.0387158575468
1711685750107,146.10493143601343
1711685750148,84.13239311892539
1711685750188,-10.403384956298396
1711685750228,-135.70520965149626
1711685750268,-135.70520965149626
1711685750308,-135.70520965149626
1711685750348,-135.70520965149626
1711685750389,-287.932046802016
1711685750428,-552.6390135344118
1711685750468,-552.6390135344118
1711685750508,-287.932046802016
1711685750548,-203.19893393176608
1711685750589,-203.19893393176608
1711685750628,-203.19893393176608
1711685750668,-203.19893393176608
1711685750708,-203.19893393176608
1711685750748,-287.932046802016
1711685750789,-1211.034865052672
1711685750829,-1216.4859822455328
1711685750869,-1243.1980145061389
1711685750909,-1243.1980145061389
1711685750949,-1243.1980145061389
1711685750990,-1243.1980145061389
1711685751029,-1243.1980145061389
1711685751069,-1243.1980145061389
1711685751109,-1515.0159795978107
1711685751150,-1515.0159795978107
1711685751190,-1243.1980145061389
1711685751230,-1216.4859822455328
1711685751270,-917.3134334573988
1711685751310,-917.3134334573988
1711685751350,-917.3134334573988
1711685751391,-917.3134334573988
1711685751430,-917.3134334573988
1711685751470,-1216.4859822455328
1711685751510,-1620.8634957235772
1711685751550,-1693.489891213365
1711685751591,-1762.921606643824
1711685751631,-1762.921606643824
1711685751671,-1762.921606643824
1711685751711,-1762.921606643824
1711685751751,-1762.921606643824
1711685751792,-1762.921606643824
1711685751831,-2285.2810992598534
1711685751871,-2285.2810992598534
1711685751911,-2285.2810992598534
1711685751951,-917.3134334573988
1711685751992,-869.6273045954295
1711685752031,-869.6273045954295
1711685752072,-869.6273045954295
1711685752112,-869.6273045954295
1711685752152,-869.6273045954295
1711685752192,-2285.2810992598534
1711685752232,-2629.4146070880815
1711685752272,-2721.2151354935486
1711685752312,-2819.065900217276
1711685752352,-2819.065900217276
1711685752393,-2819.065900217276
1711685752432,-2819.065900217276
1711685752472,-2819.065900217276
1711685752512,-2935.985284413211
1711685752553,-2980.8411782016046
1711685752593,-2980.8411782016046
1711685752633,-2819.065900217276
1711685752673,-2721.2151354935486
1711685752713,-2721.2151354935486
1711685752753,-2721.2151354935486
1711685752794,-2721.2151354935486
1711685752833,-2721.2151354935486
1711685752873,-2721.2151354935486
1711685752913,-2721.2151354935486
1711685752954,-3707.407677799929
1711685752994,-3925.723110876512
1711685753034,-3988.7921043003444
1711685753074,-3988.7921043003444
1711685753114,-3925.723110876512
1711685753154,-3707.407677799929
1711685753195,-3589.31738096755
1711685753234,-3589.31738096755
1711685753274,-3412.8601486282423
1711685753314,-3216.416694048792
1711685753354,-3096.1149690588936
1711685753395,-2588.225022414699
1711685753435,-2009.1978439434897
1711685753475,-1501.325922609074
1711685753515,-1412.9607396754436
1711685753555,-1412.9607396754436
1711685753596,-1412.9607396754436
1711685753635,-1412.9607396754436
1711685753675,-1412.9607396754436
1711685753715,-1603.5731511206832
1711685753756,-1603.5731511206832
1711685753796,-1306.231581546599
1711685753836,-494.3028256231919
1711685753876,-241.41259815264493
1711685753916,-116.92178278276697
1711685753956,243.07397502218373
1711685753997,396.46546899108216
1711685754036,511.1080747670494
1711685754076,627.405757256085
1711685754116,817.7338875068817
1711685754157,838.6855205292813
1711685754197,1649.7047455667052
1711685754237,1661.3608346935362
1711685754277,1676.4484470826574
1711685754317,1676.4484470826574
1711685754357,1676.4484470826574
1711685754398,1649.7047455667052
1711685754437,1013.2677462757565
1711685754477,838.6855205292813
1711685754517,838.6855205292813
1711685754557,838.6855205292813
1711685754598,838.6855205292813
1711685754638,838.6855205292813
1711685754678,838.6855205292813
1711685754718,817.7338875068817
1711685754758,529.6252833781764
1711685754799,1013.2677462757565
1711685754838,1339.4812371991575
1711685754879,1339.4812371991575
1711685754918,1339.4812371991575
1711685754959,1339.4812371991575
1711685754999,1339.4812371991575
1711685755039,1339.4812371991575
1711685755079,1339.4812371991575
1711685755119,1013.2677462757565
1711685755159,618.952482027933
1711685755200,529.6252833781764
1711685755239,454.17547290446237
1711685755279,454.17547290446237
1711685755319,454.17547290446237
1711685755360,454.17547290446237
1711685755400,454.17547290446237
1711685755440,165.038270132849
1711685755480,-67.80013226019219
1711685755520,-67.80013226019219
1711685755560,454.17547290446237
1711685755601,618.952482027933
1711685755640,618.952482027933
1711685755680,618.952482027933
1711685755721,618.952482027933
1711685755761,618.952482027933
1711685755801,618.952482027933
1711685755841,618.952482027933
1711685755881,618.952482027933
1711685755921,-72.95686095324345
1711685755961,-119.08957582176663
1711685756002,-119.08957582176663
1711685756041,-72.95686095324345
1711685756082,93.18261619890109
1711685756122,464.89767171861604
1711685756162,464.89767171861604
1711685756203,478.9756126794964
1711685756242,667.1991185494699
1711685756282,703.719458789099
1711685756322,1080.0122138261795
1711685756362,1299.7028253045864
1711685756403,1632.6434464233462
1711685756443,1632.6434464233462
1711685756483,1632.6434464233462
1711685756523,1632.6434464233462
1711685756563,1632.6434464233462
1711685756604,1632.6434464233462
1711685756643,1632.6434464233462
1711685756683,1632.6434464233462
1711685756723,1553.293593536131
1711685756763,1575.9896583538502
1711685756804,1986.6066269380972
1711685756844,2091.5993443820626
1711685756884,2246.2949615549296
1711685756924,2398.162624409655
1711685756964,2648.778515469283
1711685757005,2905.104959278833
1711685757045,3002.849364307709
1711685757084,3064.2215640735812
1711685757125,3316.1886978435796
1711685757165,3353.0314454680774
1711685757206,3900.4765999913216
1711685757245,3900.4765999913216
1711685757285,3900.4765999913216
1711685757325,3900.4765999913216
1711685757365,3900.4765999913216
1711685757406,3900.4765999913216
1711685757446,3353.0314454680774
1711685757486,3317.5159835340455
1711685757526,3317.5159835340455
1711685757566,3353.0314454680774
1711685757607,3900.4765999913216
1711685757646,4014.003604581114
1711685757686,4475.656182355247
1711685757726,4475.656182355247
1711685757767,4475.656182355247
1711685757807,4475.656182355247
1711685757847,4581.756495255511
1711685757887,4740.42576360493
1711685757927,4923.771573840175
1711685757967,4923.771573840175
1711685758008,4923.771573840175
1711685758047,4923.771573840175
1711685758087,4923.771573840175
1711685758127,4923.771573840175
1711685758167,4740.42576360493
1711685758208,4581.756495255511
1711685758248,4475.656182355247
1711685758288,4475.656182355247
1711685758328,4475.656182355247
1711685758368,4475.656182355247
1711685758409,4475.656182355247
1711685758448,4466.603516984731
1711685758488,4277.977100287098
1711685758528,4013.1972402841784
1711685758568,2853.392563343048
1711685758609,2853.392563343048
1711685758648,2853.392563343048
1711685758688,2853.392563343048
1711685758729,2853.392563343048
1711685758769,2853.392563343048
1711685758809,2853.392563343048
1711685758849,2853.392563343048
1711685758889,2770.6654130723327
1711685758929,2478.6891163459513
1711685758969,2383.9312909487635
1711685759010,2105.731838396052
1711685759049,2105.731838396052
1711685759089,2105.731838396052
1711685759129,2105.731838396052
1711685759170,1791.628266774118
1711685759210,1742.7065247946884
1711685759250,1563.8378540836275
1711685759290,1522.336951327743
1711685759330,549.9722278052941
1711685759370,549.9722278052941
1711685759411,549.9722278052941
1711685759450,549.9722278052941
1711685759490,549.9722278052941
1711685759530,549.9722278052941
1711685759571,549.9722278052941
1711685759611,339.05170356086455
1711685759651,313.8418727426324
1711685759691,245.9362175844144
1711685759731,180.33208459825255
1711685759771,-20.293549705762416
1711685759812,-20.293549705762416
1711685759851,-20.293549705762416
1711685759891,-20.293549705762416
1711685759932,-50.57437535608187
1711685759972,-380.88660450372845
1711685760012,-454.6155525422655
1711685760052,-1827.8508320930414
1711685760092,-1827.8508320930414
1711685760132,-1827.8508320930414
1711685760172,-1827.8508320930414
1711685760213,-1827.8508320930414
1711685760252,-1827.8508320930414
1711685760292,-1827.8508320930414
1711685760332,-1827.8508320930414
1711685760373,-2163.013862208929
1711685760413,-2187.066164874006
1711685760453,-2319.1981475320645
1711685760493,-2617.477132506203
1711685760533,-2617.477132506203
1711685760573,-2617.477132506203
1711685760614,-2617.477132506203
1711685760653,-2707.9395671365783
1711685760693,-2736.8332209587097
1711685760733,-2991.4977610143833
1711685760774,-2973.7066526878625
1711685760814,-2736.8332209587097
1711685760854,-2707.9395671365783
1711685760894,-2707.9395671365783
1711685760934,-2707.9395671365783
1711685760974,-2707.9395671365783
1711685761015,-2707.9395671365783
1711685761054,-2707.9395671365783
1711685761094,-2973.7066526878625
1711685761135,-3562.1332332780585
1711685761175,-3745.7299153711647
1711685761215,-3892.6263264873996
1711685761255,-3892.6263264873996
1711685761295,-3892.6263264873996
1711685761335,-3892.6263264873996
1711685761375,-3892.6263264873996
1711685761416,-4071.4264679001644
1711685761455,-4313.571868998464
1711685761496,-4638.729472996667
1711685761536,-4330.480453183409
1711685761576,-4330.480453183409
1711685761617,-4330.480453183409
1711685761656,-4330.480453183409
1711685761696,-4330.480453183409
1711685761736,-4330.480453183409
1711685761776,-5188.795322171878
1711685761817,-5208.636012844043
1711685761857,-5444.041311393492
1711685761897,-5670.685754447477
1711685761937,-5743.609821845777
1711685761977,-5994.404654093552
1711685762018,-5994.404654093552
1711685762057,-5994.404654093552
1711685762097,-6225.19392437581
1711685762137,-6274.89180915989
1711685762177,-6492.065372813027
1711685762218,-7553.795511104399
1711685762258,-7553.795511104399
1711685762298,-7553.795511104399
1711685762338,-7553.795511104399
1711685762378,-7553.795511104399
1711685762419,-7553.795511104399
1711685762458,-7553.795511104399
1711685762498,-8546.130621971097
1711685762538,-8595.923648335738
1711685762579,-8721.920004310552
1711685762619,-8840.479626381071
1711685762659,-9546.430042676162
1711685762699,-9553.863042354351
1711685762739,-9553.863042354351
1711685762779,-9553.863042354351
1711685762820,-9881.380363903707
1711685762859,-10069.155132382642
1711685762899,-10453.491767354542
1711685762940,-12756.735244597541
1711685762980,-12756.735244597541
1711685763020,-12756.735244597541
1711685763060,-12756.735244597541
1711685763100,-12756.735244597541
1711685763140,-12756.735244597541
1711685763180,-12756.735244597541
1711685763221,-13319.629213918233
1711685763260,-13337.752485123696
1711685763301,-13691.088477960555
1711685763341,-13744.200526208151
1711685763381,-14004.390857580118
1711685763422,-14118.088377213804
1711685763461,-14206.627703102538
1711685763501,-14682.442143736407
1711685763541,-14696.435668770224
1711685763581,-14935.266638259636
1711685763622,-14935.266638259636
1711685763662,-14847.963592159329
1711685763702,-14696.435668770224
1711685763742,-14696.435668770224
1711685763782,-14696.435668770224
1711685763823,-14696.435668770224
1711685763862,-14696.435668770224
1711685763903,-14696.435668770224
1711685763943,-14696.435668770224
1711685763983,-14696.435668770224
1711685764024,-14696.435668770224
1711685764063,-14436.356650285423
1711685764103,-14035.847572132945
1711685764143,-13404.26514062658
1711685764183,-13124.382684165612
1711685764224,-13121.866377516417
1711685764264,-12581.453925093636
1711685764304,-12035.777311917394
1711685764344,-12011.692408904433
1711685764384,-11972.173792073037
1711685764425,-11780.579042132013
1711685764464,-11466.317826334387
1711685764504,-10998.819653617218
1711685764544,-10737.08468195307
1711685764584,-10737.08468195307
1711685764625,-10737.08468195307
1711685764665,-10737.08468195307
1711685764705,-10737.08468195307
1711685764745,-10737.08468195307
1711685764785,-9769.435297267977
1711685764826,-8915.585573140532
1711685764866,-8813.658698112005
1711685764906,-8477.188592644874
1711685764946,-8096.4178763821255
1711685764986,-7575.157889683964
1711685765029,-7423.09358427953
1711685765066,-6987.85289208265
1711685765106,-6697.077547444496
1711685765146,-6584.164273752598
1711685765186,-6447.503763946937
1711685765227,-6214.915857434738
1711685765266,-5790.505459374981
1711685765307,-5648.670043683611
1711685765347,-4812.413557844702
1711685765387,-4481.052373826504
1711685765428,-4481.052373826504
1711685765467,-4481.052373826504
1711685765507,-3128.4612157915253
1711685765547,-2336.0263027017936
1711685765587,-2222.5635876250453
1711685765628,-1994.098971052561
1711685765667,-1672.1719406018965
1711685765707,-1327.5477608805522
1711685765747,-755.8673038515262
1711685765787,-584.0408202083781
1711685765828,-255.55476330127567
1711685765868,-93.05927511304617
1711685765908,-80.37770111579448
1711685765948,99.57710439711809
1711685765988,808.3734144447371
1711685766029,860.2657580589876
1711685766068,1347.9494052361697
1711685766108,1347.9494052361697
1711685766148,808.3734144447371
1711685766189,602.4952687858604
1711685766229,808.3734144447371
1711685766269,1072.5007238448597
1711685766309,1347.9494052361697
1711685766349,2028.1099469866604
1711685766389,2574.8367042667232
1711685766430,2696.8095958926715
1711685766469,3258.726027933182
1711685766509,3448.625275873812
1711685766549,3750.9976941910572
1711685766589,3879.0846010684036
1711685766630,4053.495419913437
1711685766670,4698.183144815732
1711685766710,4763.5797748193145
1711685766750,4763.5797748193145
1711685766790,4763.5797748193145
1711685766831,4698.183144815732
1711685766870,4053.495419913437
1711685766910,3879.0846010684036
1711685766950,3879.0846010684036
1711685766990,3879.0846010684036
1711685767031,3879.0846010684036
1711685767070,3879.0846010684036
1711685767111,3879.0846010684036
1711685767151,3879.0846010684036
1711685767191,3448.625275873812
1711685767234,2443.0215515261516
1711685767271,2443.0215515261516
1711685767311,2443.0215515261516
1711685767351,2443.0215515261516
1711685767392,2443.0215515261516
1711685767432,2443.0215515261516
1711685767472,2443.0215515261516
1711685767512,2443.0215515261516
1711685767552,2443.0215515261516
1711685767592,2443.0215515261516
1711685767633,2443.0215515261516
1711685767672,6667.58258966892
1711685767712,14694.506718297955
1711685767753,18694.285769497044
1711685767793,23105.606376003707
1711685767833,23942.50887032738
1711685767873,23942.50887032738
1711685767913,24338.55753417313
1711685767953,24338.55753417313
1711685767993,24338.55753417313
1711685768034,24338.55753417313
1711685768073,24338.55753417313
1711685768113,24338.55753417313
1711685768153,24338.55753417313
1711685768194,24338.55753417313
1711685768235,24338.55753417313
1711685768274,23860.954872993054
1711685768314,23105.606376003707
1711685768354,21991.282117557246
1711685768394,17333.482832793845
1711685768435,16468.142831708305
1711685768474,16078.215388457058
1711685768514,14005.954132326879
1711685768555,13491.177078546025
1711685768595,8992.677192984615
1711685768635,8512.53102089744
1711685768675,8133.919505931437
1711685768715,7864.78541245684
1711685768755,7507.7832216070965
1711685768795,6912.023535725195
1711685768836,6830.048366350122
1711685768911,6140.155372144654
1711685768951,4007.4321906394325
1711685768992,2806.1263634597417
1711685769032,206.86961639346555
1711685769072,-1343.234519609483
1711685769112,-2216.8662863471545
1711685769152,-2909.2113255658187
1711685769192,-4421.451051676646
1711685769232,-6544.6457832166925
1711685769273,-6812.531713652657
1711685769312,-6812.531713652657
1711685769353,-6812.531713652657
1711685769393,-6812.531713652657
1711685769433,-6812.531713652657
1711685769474,-6812.531713652657
1711685769513,-6812.531713652657
1711685769553,-6812.531713652657
1711685769593,-6544.6457832166925
1711685769633,-4607.771645322908
1711685769674,-2909.2113255658187
1711685769714,-2216.8662863471545
1711685769754,1667.2099940348417
1711685769794,2000.8364634716418
1711685769834,3047.263893420575
1711685769875,3752.33309892728
1711685769914,11034.621942908969
1711685769954,11034.621942908969
1711685769994,11034.621942908969
1711685770034,11034.621942908969
1711685770075,11034.621942908969
1711685770115,11034.621942908969
1711685770155,11034.621942908969
1711685770195,11034.621942908969
1711685770235,11034.621942908969
1711685770276,11034.621942908969
1711685770315,11034.621942908969
1711685770355,8158.725368809421
1711685770395,5902.352899594232
1711685770436,4770.413933619857
1711685770476,4745.209809686523
1711685770516,4167.739726758795
1711685770556,2821.3291375294793
1711685770596,2048.8411796316504
1711685770636,1004.643883455079
1711685770677,813.0425109821372
1711685770716,647.1370423375629
1711685770756,553.8913450776599
1711685770797,445.3377906088717
1711685770836,242.3115656238515
1711685770877,194.3779924614355
1711685770917,50.25282448111102
1711685770957,-196.21134350565262
1711685770997,-5443.347749069799
1711685771037,-10397.969425845891
1711685771078,-13530.496292485157
1711685771117,-15150.174673000583
1711685771158,-15150.174673000583
1711685771198,-15150.174673000583
1711685771238,-15150.174673000583
1711685771279,-15150.174673000583
1711685771318,-15658.123561681714
1711685771358,-15764.28983103251
1711685771398,-15818.911069551017
1711685771438,-16648.851294370135
1711685771479,-17422.201928423252
1711685771519,-18081.274686532794
1711685771559,-18799.053891654592
1711685771599,-19017.410273381276
1711685771639,-19304.039899983443
1711685771680,-19402.704739845125
1711685771719,-19694.3534859356
1711685771759,-22513.532552480698
1711685771799,-22513.532552480698
1711685771840,-22513.532552480698
1711685771881,-22513.532552480698
1711685771920,-22513.532552480698
1711685771960,-22513.532552480698
1711685772000,-22513.532552480698
1711685772040,-22513.532552480698
1711685772081,-23027.16146622831
1711685772121,-23483.63443318219
1711685772161,-23599.008403082844
1711685772201,-24186.847344418522
1711685772241,-23630.62421039655
1711685772282,-23599.008403082844
1711685772321,-23483.63443318219
1711685772361,-22994.985685253283
1711685772401,-22709.114659418818
1711685772441,-22513.532552480698
1711685772482,-22450.527539491188
1711685772522,-22244.009256710066
1711685772562,-21476.860748660285
1711685772602,-21221.567103812937
1711685772642,-21221.567103812937
1711685772683,-21221.567103812937
1711685772722,-21221.567103812937
1711685772762,-21221.567103812937
1711685772802,-21221.567103812937
1711685772842,-21427.845567527227
1711685772883,-21427.845567527227
1711685772922,-20664.05120726442
1711685772962,-20086.349232435692
1711685773002,-19828.48271694407
1711685773043,-19130.13540671533
1711685773083,-18540.199075145647
1711685773123,-18105.57432341366
1711685773163,-17902.823765982408
1711685773203,-17818.82336308714
1711685773243,-17586.80703340564
1711685773284,-17427.31738746306
1711685773323,-17364.31618560059
1711685773363,-16970.739634171594
1711685773404,-15442.268067392055
1711685773444,-15442.268067392055
1711685773484,-15442.268067392055
1711685773524,-15442.268067392055
1711685773564,-15442.268067392055
1711685773604,-14327.938522836193
1711685773644,-14093.427192131057
1711685773685,-14054.166345337871
1711685773724,-13935.984119915869
1711685773764,-13313.547887413297
1711685773805,-12812.930999567732
1711685773844,-11528.575037852395
1711685773885,-11451.70347435819
1711685773925,-10697.423401536886
1711685773965,-10247.458955148468
1711685774005,-10234.460666041123
1711685774045,-9366.310089029837
1711685774086,-9085.974398987833
1711685774125,-8742.348503887653
1711685774165,-8706.913570156554
1711685774205,-8362.253816702403
1711685774245,-7533.213827788364
1711685774286,-6605.77670296072
1711685774326,-6443.42613778403
1711685774366,-6306.5978531518485
1711685774406,-6165.8154278656
1711685774446,-4954.781797748059
1711685774487,-4459.820181686431
1711685774526,-4097.828831976745
1711685774566,-4027.703915408114
1711685774606,-4003.7056266618893
1711685774647,-3720.0011888896115
1711685774687,-3466.091993840877
1711685774727,-2740.258245910518
1711685774767,-2590.2204405437224
1711685774807,-1898.5800898373127
1711685774847,-1898.5800898373127
1711685774888,-1898.5800898373127
1711685774927,-2740.258245910518
1711685774967,-2818.9875567818526
1711685775007,-2740.258245910518
1711685775047,-2655.8427518403623
1711685775088,-1898.5800898373127
1711685775128,-1349.6684860144742
1711685775168,-974.0493550288957
1711685775208,-611.8721439167857
1711685775248,-602.4691171459854
1711685775289,-516.8736887013074
1711685775328,-354.3250858699903
1711685775368,-213.18718343693763
1711685775408,517.5115277497098
1711685775448,1237.355522560887
1711685775489,1419.247765404638
1711685775528,1419.247765404638
1711685775569,1419.247765404638
1711685775609,672.4730091509409
1711685775649,517.5115277497098
1711685775690,-354.3250858699903
1711685775729,-270.387192531256
1711685775769,517.5115277497098
1711685775809,672.4730091509409
1711685775849,869.5779734174721
1711685775890,954.1992406640202
1711685775930,1087.542468645377
1711685775970,1153.0118349241093
1711685776010,1567.5161792035215
1711685776050,1892.8136717719026
1711685776091,2594.638146430487
1711685776130,3412.1828049002215
1711685776170,3412.1828049002215
1711685776211,3412.1828049002215
1711685776250,3412.1828049002215
1711685776291,3412.1828049002215
1711685776331,2766.8614056052174
1711685776371,2594.638146430487
1711685776411,1567.5161792035215
1711685776451,1567.5161792035215
1711685776492,1987.365288805915
1711685776531,2545.279534093337
1711685776572,2545.279534093337
1711685776612,2545.279534093337
1711685776652,2545.279534093337
1711685776693,2594.638146430487
1711685776732,2766.8614056052174
1711685776772,3263.0720905079506
1711685776812,3591.4730452643707
1711685776852,4195.197523045354
1711685776893,4195.197523045354
1711685776933,4195.197523045354
1711685776973,4195.197523045354
1711685777013,4195.197523045354
1711685777053,3697.5879107266665
1711685777093,3263.0720905079506
1711685777133,2766.8614056052174
1711685777173,2545.279534093337
1711685777213,2925.723411822226
1711685777253,3263.0720905079506
1711685777294,3697.5879107266665
1711685777333,3764.7714121520985
1711685777374,4057.9464327846654
1711685777414,4195.197523045354
1711685777454,4207.487169032451
1711685777495,4332.834941196488
1711685777534,4768.046960246749
1711685777574,5244.8827824736945
1711685777614,5575.758495729417
1711685777655,5653.119508053642
1711685777695,5653.119508053642
1711685777735,5653.119508053642
1711685777775,5640.751236191252
1711685777815,4768.046960246749
1711685777855,4332.834941196488
1711685777896,4332.834941196488
1711685777935,4768.046960246749
1711685777975,4934.3018075313885
1711685778016,5640.751236191252
1711685778056,5640.751236191252
1711685778096,5653.119508053642
1711685778136,5663.895815484691
1711685778176,5692.498724000761
1711685778216,5868.049524890259
1711685778256,6278.797642750666
1711685778297,6494.315988596296
1711685778337,7148.29345454555
1711685778377,7148.29345454555
1711685778417,7148.29345454555
1711685778457,7148.29345454555
1711685778498,6336.1791228000075
1711685778537,6278.797642750666
1711685778577,5868.049524890259
1711685778618,5868.049524890259
1711685778658,5868.049524890259
1711685778698,5868.049524890259
1711685778738,5868.049524890259
1711685778778,5868.049524890259
1711685778818,5868.049524890259
1711685778858,5692.498724000761
1711685778899,5692.498724000761
1711685778938,5868.049524890259
1711685778979,6014.575293994276
1711685779019,6014.575293994276
1711685779059,6014.575293994276
1711685779100,6014.575293994276
1711685779139,6014.575293994276
1711685779179,6014.575293994276
1711685779219,6014.575293994276
1711685779259,5339.356067020446
1711685779300,4676.982164403191
1711685779340,4594.915361108957
1711685779380,4594.915361108957
1711685779420,4594.915361108957
1711685779460,4594.915361108957
1711685779501,4594.915361108957
1711685779540,4594.915361108957
1711685779581,4376.8578938958235
1711685779620,3954.1576612340286
1711685779661,3721.31566005433
1711685779682,3721.31566005433
1711685779721,3721.31566005433
1711685779761,3721.31566005433
1711685779802,3721.31566005433
1711685779841,3721.31566005433
1711685779882,3721.31566005433
1711685779922,3721.31566005433
1711685779962,3721.31566005433
1711685780002,2763.496750530321
1711685780042,2213.852090163622
1711685780083,2195.5879717168864
1711685780122,2195.5879717168864
1711685780162,2195.5879717168864
1711685780202,2195.5879717168864
1711685780242,2195.5879717168864
1711685780283,1790.414639128372
1711685780323,1788.0819032327272
1711685780363,1372.8165361550637
1711685780403,1467.8046897831373
1711685780443,1467.8046897831373
1711685780484,1467.8046897831373
1711685780523,1467.8046897831373
1711685780563,1467.8046897831373
1711685780603,1467.8046897831373
1711685780643,1467.8046897831373
1711685780684,1467.8046897831373
1711685780724,1467.8046897831373
1711685780764,1372.8165361550637
1711685780804,856.7194734341465
1711685780844,764.9785731704906
1711685780885,764.9785731704906
1711685780924,764.9785731704906
1711685780963,764.9785731704906
1711685781003,764.9785731704906
1711685781043,764.9785731704906
1711685781083,318.4648502441123
1711685781123,318.4648502441123
1711685781163,764.9785731704906
1711685781203,1430.5541878005024
1711685781243,1430.5541878005024
1711685781283,1430.5541878005024
1711685781323,1430.5541878005024
1711685781363,1430.5541878005024
1711685781403,1430.5541878005024
1711685781443,1430.5541878005024
1711685781483,220.37173361703753
1711685781523,-46.20033205952495
1711685781563,-72.16852831537835
1711685781603,-72.16852831537835
1711685781643,-72.16852831537835
1711685781683,-72.16852831537835
1711685781723,-72.16852831537835
1711685781763,-72.16852831537835
1711685781803,-72.16852831537835
1711685781843,-354.37834659125656
1711685781883,-72.16852831537835
1711685781923,220.37173361703753
1711685781963,472.1368752291892
1711685782003,472.1368752291892
1711685782043,472.1368752291892
1711685782083,472.1368752291892
1711685782123,472.1368752291892
1711685782163,472.1368752291892
1711685782203,-72.16852831537835
1711685782243,-354.37834659125656
1711685782283,-530.4460109346546
1711685782323,-664.1376659027301
1711685782363,-664.1376659027301
1711685782403,-664.1376659027301
1711685782443,-664.1376659027301
1711685782483,-664.1376659027301
1711685782523,-866.103822252946
1711685782563,-943.0631889002398
1711685782603,-1970.9764309837483
1711685782643,-3866.787159819156
1711685782683,-3866.787159819156
1711685782723,-3866.787159819156
1711685782763,-3866.787159819156
1711685782803,-3866.787159819156
1711685782843,-3866.787159819156
1711685782883,-3866.787159819156
1711685782923,-4522.671532252571
1711685782963,-4605.271400752477
1711685783003,-5117.822408701759
1711685783043,-5309.087427167455
1711685783083,-5410.493921585847
1711685783123,-5410.493921585847
1711685783163,-5410.493921585847
1711685783203,-5415.558134969557
1711685783243,-5540.432928173104
1711685783283,-5612.538879534695
1711685783323,-5812.180423411075
1711685783363,-5812.180423411075
1711685783403,-5812.180423411075
1711685783443,-5812.180423411075
1711685783483,-5812.180423411075
1711685783523,-5812.180423411075
1711685783563,-5812.180423411075
1711685783603,-5812.180423411075
1711685783643,-5892.043341899756
1711685783683,-6522.473837208003
1711685783723,-6804.09092479269
1711685783763,-6922.780826321337
1711685783803,-6922.780826321337
1711685783843,-6919.46305993665
1711685783883,-6804.09092479269
1711685783923,-6804.09092479269
1711685783963,-6919.46305993665
1711685784003,-6919.46305993665
1711685784043,-6825.832639747765
1711685784083,-6723.245816133451
1711685784123,-6522.473837208003
1711685784163,-6522.473837208003
1711685784203,-6522.473837208003
1711685784243,-6522.473837208003
1711685784283,-6522.473837208003
1711685784323,-6522.473837208003
1711685784363,-6723.245816133451
1711685784403,-6825.832639747765
1711685784443,-6919.46305993665
1711685784483,-7256.098785584327
1711685784523,-7256.098785584327
1711685784563,-6953.178555665305
1711685784603,-6919.46305993665
1711685784643,-6919.46305993665
1711685784683,-6953.178555665305
1711685784723,-7034.1174287102185
1711685784763,-6953.178555665305
1711685784803,-6879.799579251092
1711685784843,-6825.832639747765
1711685784883,-5873.935775979189
1711685784923,-5873.935775979189
1711685784963,-5873.935775979189
1711685785003,-5873.935775979189
1711685785043,-5873.935775979189
1711685785083,-6879.799579251092
1711685785123,-6953.178555665305
1711685785163,-6953.178555665305
1711685785203,-6879.799579251092
1711685785243,-6832.510263466043
1711685785283,-5873.935775979189
1711685785323,-5108.2182158287615
1711685785363,-4982.048205390107
1711685785403,-4240.011492763646
1711685785443,-3941.764159793034
1711685785483,-3613.9403368849307
1711685785523,-3527.03718834091
1711685785563,-3303.866988533642
1711685785603,-3196.4173060706817
1711685785643,-3058.8204615558498
1711685785683,-2243.839328381
1711685785723,-2243.839328381
1711685785763,-3058.8204615558498
1711685785803,-3303.866988533642
1711685785843,-3527.03718834091
1711685785883,-3527.03718834091
1711685785923,-3527.03718834091
1711685785963,-3527.03718834091
1711685786003,-3527.03718834091
1711685786043,-3303.866988533642
1711685786083,-3245.6676696070936
1711685786123,-3058.8204615558498
1711685786163,-2180.205014490988
1711685786203,-1850.08900589915
1711685786243,-1057.9887499511242
1711685786283,-862.1310258426238
1711685786323,-862.1310258426238
1711685786363,-862.1310258426238
1711685786403,-862.1310258426238
1711685786443,-1057.9887499511242
1711685786483,-2180.205014490988
1711685786523,-3245.6676696070936
1711685786563,-3670.68679660419
1711685786603,-3670.68679660419
1711685786643,-3670.68679660419
1711685786683,-3670.68679660419
1711685786723,-3670.68679660419
1711685786763,-3670.68679660419
1711685786803,-3245.6676696070936
1711685786843,-3237.0554686666
1711685786883,-2180.205014490988
1711685786923,-1409.7819708839525
1711685786963,-1409.7819708839525
1711685787003,-1409.7819708839525
1711685787043,-1409.7819708839525
1711685787083,-1409.7819708839525
1711685787123,-1409.7819708839525
1711685787163,-2240.3257292956114
1711685787203,-3237.0554686666
1711685787243,-3929.2872805474326
1711685787283,-3929.2872805474326
1711685787323,-3929.2872805474326
1711685787363,-3639.7615110352635
1711685787403,-3639.7615110352635
1711685787443,-3639.7615110352635
1711685787483,-3237.0554686666
1711685787523,-3069.7797192563303
1711685787563,-2285.660530512687
1711685787603,-2240.3257292956114
1711685787643,-1409.7819708839525
1711685787683,-1185.1334812003188
1711685787723,-1185.1334812003188
1711685787763,-1185.1334812003188
1711685787803,-1185.1334812003188
1711685787843,-1185.1334812003188
1711685787883,-1185.1334812003188
1711685787923,-1185.1334812003188
1711685787963,-2240.3257292956114
1711685788003,-2285.660530512687
1711685788043,-2285.660530512687
1711685788083,-1306.4029779215343
1711685788123,-1185.1334812003188
1711685788163,-996.8890097849071
1711685788203,-996.8890097849071
1711685788243,-996.8890097849071
1711685788283,-996.6034573628567
1711685788323,-900.6647998122498
1711685788363,-609.8121681832708
1711685788403,-46.29128930764273
1711685788443,-46.29128930764273
1711685788483,-46.29128930764273
1711685788523,-46.29128930764273
1711685788563,-46.29128930764273
1711685788603,-46.29128930764273
1711685788643,-46.29128930764273
1711685788683,-46.29128930764273
1711685788723,-609.8121681832708
1711685788763,-900.6647998122498
1711685788803,-900.6647998122498
1711685788843,-447.1842750515789
1711685788883,-46.29128930764273
1711685788923,4.270415923791006
1711685788963,4.270415923791006
1711685789003,4.270415923791006
1711685789043,4.270415923791006
1711685789083,48.84268026985228
1711685789123,463.82547867367975
1711685789163,463.88710598647594
1711685789203,463.88710598647594
1711685789243,463.88710598647594
1711685789283,463.88710598647594
1711685789323,463.88710598647594
1711685789363,463.88710598647594
1711685789403,463.88710598647594
1711685789443,463.82547867367975
1711685789483,145.44683458143845
1711685789523,48.84268026985228
1711685789563,145.44683458143845
1711685789603,463.88710598647594
1711685789643,886.1621868677903
1711685789683,1509.5178187408019
1711685789723,2265.8271331614815
1711685789763,2523.4319445821457
1711685789803,2692.9168152809143
1711685789843,2778.720462020021
1711685789883,2788.4000813509338
1711685789923,2790.5476580467075
1711685789963,3533.4729267256334
1711685790003,3589.759290621616
1711685790043,4290.890864188317
1711685790083,4540.074434884358
1711685790123,4540.074434884358
1711685790163,4268.248087931657
1711685790203,3589.759290621616
1711685790243,3589.759290621616
1711685790283,3589.759290621616
1711685790323,3589.759290621616
1711685790363,4268.248087931657
1711685790403,4371.053889440373
1711685790443,4459.2990201285575
1711685790483,4504.56951949466
1711685790523,4540.074434884358
1711685790563,4545.346418290632
1711685790603,5184.647556954529
1711685790643,5249.947309084237
1711685790683,6104.126850784523
1711685790723,6104.126850784523
1711685790763,6104.126850784523
1711685790803,6104.126850784523
1711685790843,6104.126850784523
1711685790883,6104.126850784523
1711685790923,5249.947309084237
1711685790963,4545.346418290632
1711685791003,4545.346418290632
1711685791043,4545.346418290632
1711685791083,4545.346418290632
1711685791123,4545.346418290632
1711685791163,4545.346418290632
1711685791203,4545.346418290632
1711685791243,4545.346418290632
1711685791283,4545.346418290632
1711685791323,4970.155949550681
1711685791363,4970.155949550681
1711685791403,4970.155949550681
1711685791443,4970.155949550681
1711685791483,4970.155949550681
1711685791523,4970.155949550681
1711685791563,4970.155949550681
1711685791603,4970.155949550681
1711685791643,4186.720956200268
1711685791683,4141.854174705222
1711685791723,3548.406605056487
1711685791763,3474.905116119655
1711685791803,3474.905116119655
1711685791843,3474.905116119655
1711685791883,3474.905116119655
1711685791923,3474.905116119655
1711685791963,3302.4676965209655
1711685792003,3298.565014626365
1711685792043,2661.8346919412725
1711685792083,2503.967229454778
1711685792123,2503.967229454778
1711685792163,2503.967229454778
1711685792203,2503.967229454778
1711685792243,2503.967229454778
1711685792283,2503.967229454778
1711685792323,2503.967229454778
1711685792363,1695.7807766562328
1711685792403,1631.919214635156
1711685792443,1061.4935651805717
1711685792483,920.8684109784663
1711685792523,920.8684109784663
1711685792563,920.8684109784663
1711685792603,920.8684109784663
1711685792643,920.8684109784663
1711685792683,875.9736926159821
1711685792723,511.2541497675702
1711685792763,504.5834515648894
1711685792803,495.8908121981658
1711685792843,495.8908121981658
1711685792883,495.8908121981658
1711685792922,495.8908121981658
1711685792962,495.8908121981658
1711685793002,495.8908121981658
1711685793042,495.8908121981658
1711685793083,462.71895556128584
1711685793122,-473.4496234867256
1711685793162,-776.9637177614495
1711685793203,-1174.4268906493671
1711685793243,-1174.4268906493671
1711685793283,-776.9637177614495
1711685793323,-473.4496234867256
1711685793363,152.3980784676969
1711685793403,449.35247439239174
1711685793443,462.71895556128584
1711685793484,495.8908121981658
1711685793523,570.4457138106227
1711685793563,649.1067533749156
1711685793603,718.2966308891773
1711685793643,789.2278784513474
1711685793684,1544.1749969427474
1711685793724,1544.1749969427474
1711685793764,1544.1749969427474
1711685793804,1544.1749969427474
1711685793844,718.2966308891773
1711685793885,649.1067533749156
1711685793924,649.1067533749156
1711685793964,649.1067533749156
1711685794004,718.2966308891773
1711685794044,1490.7879426428117
1711685794085,1544.1749969427474
1711685794124,1809.6220239298418
1711685794164,1989.2984874672256
1711685794205,2171.75892762281
1711685794245,2202.9248410873115
1711685794285,2778.4060847419314
1711685794325,2986.8291489370167
1711685794365,2986.8291489370167
1711685794405,2986.8291489370167
1711685794445,2986.8291489370167
1711685794486,2986.8291489370167
1711685794525,2778.4060847419314
1711685794566,2202.9248410873115
1711685794605,2171.75892762281
1711685794645,1989.2984874672256
1711685794686,1989.2984874672256
1711685794726,1989.2984874672256
1711685794766,1989.2984874672256
1711685794806,1989.2984874672256
1711685794846,1989.2984874672256
1711685794887,1989.2984874672256
1711685794926,285.31818748801015
1711685794966,-394.75726029416546
1711685795006,-394.75726029416546
1711685795046,-394.75726029416546
1711685795087,-394.75726029416546
1711685795127,-394.75726029416546
1711685795167,-394.75726029416546
1711685795207,-394.75726029416546
1711685795247,-414.1765688750893
1711685795288,-1253.9788177548908
1711685795327,-1811.3245840673335
1711685795367,-2005.5514994021505
