Timestamp,Cleaned_PPG
1711327326390,0.0
1711327326431,0.0
1711327326472,0.0
1711327326511,0.0
1711327326551,0.0
1711327326591,0.0
1711327326631,0.0
1711327326672,0.0
1711327326711,0.0
1711327326751,0.0
1711327326792,0.0
1711327326832,0.0
1711327326873,0.0
1711327326912,0.0
1711327326952,0.0
1711327326992,0.0
1711327327032,0.0
1711327327073,0.0
1711327327112,0.0
1711327327153,0.0
1711327327193,0.0
1711327327233,0.0
1711327327274,0.0
1711327327313,0.0
1711327327353,0.0
1711327327393,0.0
1711327327433,0.0
1711327327474,0.0
1711327327514,0.0
1711327327554,0.0
1711327327596,0.0
1711327327634,0.0
1711327327675,2187421.0
1711327327714,2051056.0401901072
1711327327754,1923354.0287547985
1711327327794,1803690.0228724778
1711327327834,1691322.3525450411
1711327327876,1585847.7163315113
1711327327915,1487307.1354661582
1711327327955,1394882.3899308133
1711327327995,1308273.683546534
1711327328035,1226869.0606558828
1711327328076,1150943.4629064584
1711327328116,1080090.3440569714
1711327328155,1012616.6363732684
1711327328196,949446.2504081177
1711327328236,889586.3440131764
1711327328277,833379.4336366204
1711327328316,781143.9036612203
1711327328356,732253.4424553546
1711327328396,687372.8460274828
1711327328436,645326.8907143334
1711327328477,606396.4118925757
1711327328516,571790.983210443
1711327328557,544292.9242193035
1711327328597,523172.48327178904
1711327328637,502159.9751626458
1711327328678,477618.90489435894
1711327328717,451913.39852940524
1711327328757,425479.33982885117
1711327328797,392982.53523798054
1711327328837,359768.8382562448
1711327328878,328418.62941340776
1711327328917,301355.7352596447
1711327328958,276159.2617663592
1711327328998,255517.85690927412
1711327329038,238732.56103777792
1711327329079,223231.46288496675
1711327329118,211264.64136142703
1711327329158,199706.57627573563
1711327329198,184408.95967422868
1711327329238,171638.84965603543
1711327329280,161742.61101539154
1711327329319,147776.89436470857
1711327329359,135079.0076203947
1711327329399,126030.56869739993
1711327329439,124064.92059992463
1711327329480,115283.71000354877
1711327329519,104174.91669303598
1711327329559,100634.27823148575
1711327329599,95797.23506286042
1711327329640,91492.36144663533
1711327329681,86263.50725465082
1711327329720,80186.28091332503
1711327329760,73267.76020817831
1711327329803,64206.682887015864
1711327329840,50410.94249372184
1711327329881,31051.393690615892
1711327329921,14594.016104670241
1711327329960,7549.617118994705
1711327330001,1659.6986264414154
1711327330041,-561.8886155886576
1711327330082,6531.880840832833
1711327330121,18112.874889257364
1711327330161,29492.456815009005
1711327330201,33915.24547468126
1711327330241,40798.40470565716
1711327330283,49661.304508589674
1711327330322,57363.15724676661
1711327330362,64251.41959018679
1711327330402,63535.11081387894
1711327330442,56981.54208703246
1711327330483,56187.74580276199
1711327330522,53866.74823959917
1711327330562,46858.576440921985
1711327330602,45143.67814899981
1711327330643,38052.9159419029
1711327330684,26013.862172686495
1711327330723,8052.720760717522
1711327330763,-1597.8961279792711
1711327330803,-8878.172876152676
1711327330843,-16622.222980609164
1711327330884,-21929.40766000934
1711327330923,-25805.269820942543
1711327330963,-25783.500680412166
1711327331003,-27258.299958018586
1711327331043,-27582.34589549154
1711327331084,-28497.05231529195
1711327331123,-24894.587784142233
1711327331163,-21222.7018122687
1711327331203,-18571.967567296233
1711327331244,-19618.044877676293
1711327331284,-18108.180798493326
1711327331323,-15813.847243664786
1711327331364,-14049.15934508061
1711327331404,-13367.032354738563
1711327331444,-16637.398495953996
1711327331485,-14526.84431776125
1711327331524,-14327.266294483095
1711327331564,-19122.010673880577
1711327331604,-25719.812278875615
1711327331644,-33195.19148756005
1711327331685,-35596.910259351134
1711327331724,-32813.508270356804
1711327331764,-32167.867510705255
1711327331804,-32158.0392360799
1711327331845,-29401.645666809753
1711327331885,-25557.873646814376
1711327331925,-16397.939741587266
1711327331965,-3897.913762249518
1711327332005,6392.586714066565
1711327332045,10221.146389761474
1711327332086,11037.634545128793
1711327332125,9462.05189656606
1711327332165,10821.963610687293
1711327332205,11946.671359041706
1711327332245,12686.838956013322
1711327332286,15355.951559738722
1711327332326,16785.763867679983
1711327332366,18814.317615458276
1711327332406,16490.386100433767
1711327332446,15495.011492102873
1711327332486,15106.486896997318
1711327332526,16761.84568472486
1711327332566,18137.4801350357
1711327332606,18373.372147064656
1711327332646,16891.357038866263
1711327332687,10371.768816930242
1711327332726,839.9953565611504
1711327332766,-5710.259923845995
1711327332806,-10991.73163409764
1711327332846,-14147.184174504131
1711327332887,-12858.62872465048
1711327332927,-11227.728078858461
1711327332967,-11416.366292890161
1711327333007,-9632.1409039516
1711327333047,-7019.394891974982
1711327333088,-4277.312857191078
1711327333127,-303.86326497327536
1711327333167,4443.928151909728
1711327333207,6730.648035815451
1711327333247,7166.909910086542
1711327333288,6303.92344221659
1711327333327,2048.8977397549897
1711327333367,-2651.7329766531475
1711327333408,-5923.0738638509065
1711327333448,-7238.825873792637
1711327333488,-7896.338340124115
1711327333528,-8651.581094125286
1711327333568,-8890.769042635337
1711327333608,-8745.977159628645
1711327333648,-8093.021479806863
1711327333689,-6191.036933916155
1711327333728,-3274.9831584561616
1711327333768,-1889.5028965556994
1711327333808,-1628.1269660089165
1711327333848,-1703.5308330045082
1711327333889,-1977.658101934474
1711327333929,-2518.248509550933
1711327333969,-7787.56997105293
1711327334009,-11145.616355907638
1711327334049,-12060.564293441828
1711327334090,-9790.576159983873
1711327334129,-7676.985333355609
1711327334169,-8085.880494653247
1711327334209,-8752.790750787593
1711327334249,-8180.724415577017
1711327334290,-7670.285536069889
1711327334329,-6537.742289140355
1711327334369,-5135.8553982181475
1711327334409,-4897.792012743652
1711327334449,-5128.080781114288
1711327334490,-5189.717610365711
1711327334529,-4744.797921178862
1711327334569,-4853.3240091037005
1711327334610,-9037.064125285018
1711327334650,-13574.201701846905
1711327334690,-13877.280390278436
1711327334730,-12152.331763001624
1711327334770,-10527.539874419104
1711327334810,-8513.251400923356
1711327334850,-7453.533041156828
1711327334890,-7444.592568906024
1711327334930,-7347.822211640887
1711327334970,-7446.039138406515
1711327335010,-7272.375383051112
1711327335050,-6670.811154419556
1711327335091,-4881.226562322117
1711327335130,-2836.9363976549357
1711327335170,-487.4826178480871
1711327335210,2229.06495404616
1711327335250,-158.21683932980523
1711327335291,-5481.092129931785
1711327335330,-8262.320989406668
1711327335370,-9821.601852526888
1711327335410,-9779.72921449598
1711327335451,-7288.691476275213
1711327335491,-5278.59496069001
1711327335531,-4562.93271519267
1711327335571,-4292.741346755996
1711327335611,-3964.427431023447
1711327335651,-3806.6610821587965
1711327335692,-2999.9323520928156
1711327335731,-1659.308381629875
1711327335771,232.32850996777415
1711327335811,2607.6120252013206
1711327335851,3631.4209752026945
1711327335892,-329.5815406157635
1711327335931,-5890.202805923298
1711327335971,-8572.667561943876
1711327336011,-9348.85752750514
1711327336052,-8822.079182313522
1711327336092,-6673.278382372577
1711327336132,-5294.739918248961
1711327336172,-4232.904618008994
1711327336212,-4348.8713943418115
1711327336252,-4124.866206639679
1711327336293,-3968.3538966672495
1711327336332,-3188.817581709707
1711327336372,-1879.714561028406
1711327336413,-750.881256848108
1711327336453,790.6862552354578
1711327336493,1193.6783007960767
1711327336533,-2029.8175487117842
1711327336573,-6989.973486013478
1711327336613,-9184.68465046538
1711327336653,-9190.88236122951
1711327336694,-8332.44320053584
1711327336733,-7131.195496376604
1711327336773,-6246.567124193534
1711327336813,-6729.57631122903
1711327336853,-6223.501871068031
1711327336894,-5557.083136095433
1711327336933,-4708.067216257565
1711327336974,-3655.8625933970325
1711327337014,-2738.3492172900587
1711327337054,-1516.8169444934465
1711327337095,-786.2944108317606
1711327337134,-236.26531823072582
1711327337174,-2910.8603670778684
1711327337214,-7953.803787905723
1711327337254,-10304.180233582854
1711327337295,-10364.699553536251
1711327337334,-9082.278175153537
1711327337375,-8398.739577065688
1711327337415,-7399.967702550348
1711327337455,-7729.338247577194
1711327337496,-7946.771260387497
1711327337535,-6849.695600465871
1711327337575,-5045.263497041771
1711327337615,-3526.3119406315964
1711327337655,-2064.3128968016244
1711327337696,-836.3516710987315
1711327337735,348.32607176108286
1711327337775,1302.9375982298516
1711327337816,-1350.9994106551167
1711327337856,-6994.591672681272
1711327337896,-11389.301006932743
1711327337936,-12324.453901074361
1711327337976,-11775.643225173466
1711327338016,-10600.587991451612
1711327338056,-9363.74776761909
1711327338097,-9456.20156884822
1711327338136,-8902.798382325564
1711327338176,-8297.063438567799
1711327338217,-6197.613646171521
1711327338257,-4246.386389494175
1711327338297,-2056.00173494895
1711327338337,-9184.647461806657
1711327338377,-7140.916772118304
1711327338425,-5843.9730910633225
1711327338465,-7295.572923687054
1711327338506,-12258.295765547082
1711327338545,-16598.875006168615
1711327338586,-18843.378956288565
1711327338626,-18939.651944151614
1711327338666,-17485.56527195801
1711327338707,-16627.482014489826
1711327338746,-16508.275500502437
1711327338786,-14942.840340051334
1711327338826,-13137.31776778493
1711327338866,-11604.714673019014
1711327338907,-9670.104936508462
1711327338947,-8645.23507973575
1711327338987,-7284.42699722806
1711327339027,-5948.12166234199
1711327339067,-4296.459940646775
1711327339107,-3897.9821066982113
1711327339147,-7974.904149642214
1711327339187,-10456.33967261808
1711327339227,-11069.72121162014
1711327339267,-10713.808078990784
1711327339308,-8973.555565643124
1711327339348,-7814.293062105309
1711327339388,-6094.031471647322
1711327339428,-6448.303638293408
1711327339468,-5125.8153947573155
1711327339509,-4112.28173176758
1711327339548,-2262.80105563486
1711327339588,-300.06601620302536
1711327339628,10492.096599947196
1711327339669,12114.644570064032
1711327339709,15015.17995171668
1711327339749,15034.46313224081
1711327339789,9004.647305547027
1711327339829,5454.50624674838
1711327339869,5257.522192402976
1711327339910,5286.888779062312
1711327339949,5634.386728917481
1711327339990,5452.771342992317
1711327340030,4390.69187268964
1711327340070,2602.0933526910376
1711327340111,1706.5435895980336
1711327340150,1756.4963819710538
1711327340190,2392.6312872208655
1711327340230,3125.601945074275
1711327340271,4219.051010060357
1711327340311,5642.8450798778795
1711327340351,6446.128442262532
1711327340391,5443.598255707417
1711327340431,219.6380706904456
1711327340471,-4744.543518513907
1711327340512,-6829.813075384125
1711327340551,-7265.435328040272
1711327340591,-5510.229665996041
1711327340631,-3751.536368418252
1711327340671,-2645.951048664516
1711327340712,-1148.533830635948
1711327340752,-410.70302051398903
1711327340792,560.0033465207089
1711327340832,1290.4325706209056
1711327340872,2024.0171756553464
1711327340912,2725.4755733893253
1711327340952,2637.07712619612
1711327340992,744.6267003524117
1711327341032,-2997.9428221748676
1711327341072,-8404.808785262518
1711327341113,-13268.055430163397
1711327341152,-15005.23837565817
1711327341192,-14722.22859754297
1711327341232,-12841.944937159307
1711327341272,-10666.00372268469
1711327341313,-8876.657385623781
1711327341353,-7452.758019307395
1711327341393,-6296.762843187433
1711327341433,-4081.4353335017804
1711327341473,-1835.7923936233856
1711327341514,882.5924754329026
1711327341553,2329.8050255374983
1711327341593,3497.8913306624163
1711327341633,3365.317512995098
1711327341673,-2123.043780294247
1711327341714,-7352.971495439764
1711327341753,-8753.925158123486
1711327341793,-7793.815402701963
1711327341834,-6371.434866902418
1711327341874,-5626.051211006008
1711327341914,-5598.243235026253
1711327341954,-6662.148173427209
1711327341994,-6868.561248626094
1711327342034,-6275.101864292752
1711327342074,-5045.914691849612
1711327342115,-4167.310762691079
1711327342154,-3901.783414986683
1711327342194,-2868.233320954023
1711327342234,-958.2794917861465
1711327342274,-2186.026490984019
1711327342315,-7073.995751594659
1711327342355,-9362.351354643004
1711327342395,-8573.901587367523
1711327342435,-8015.271128346678
1711327342475,-6811.451318134321
1711327342516,-6337.644806562457
1711327342555,-6682.800448213238
1711327342595,-8212.29999845149
1711327342635,-10915.398133617593
1711327342675,-18857.84970457619
1711327342716,-22553.648901798995
1711327342755,-26498.29422151018
1711327342796,-27829.37224398926
1711327342836,-23577.113552174065
1711327342876,-22424.336065799464
1711327342917,-26912.1154351281
1711327342956,-31037.538062068168
1711327342996,-25321.361434557475
1711327343036,-29505.18167872308
1711327343076,-20194.6622328707
1711327343117,-7816.162844879553
1711327343157,-3666.69661153201
1711327343197,-1573.1301714454312
1711327343237,1271.655441639945
1711327343277,7078.034580226988
1711327343317,-4918.248695737449
1711327343357,-13983.407232606784
1711327343397,-13767.68389955163
1711327343437,-11584.487126311287
1711327343477,-10192.91763734119
1711327343518,-7453.983316329308
1711327343557,-13538.727309615118
1711327343597,-25448.774022256956
1711327343638,-29998.10869694501
1711327343678,-33094.32872715709
1711327343719,-22959.48343335511
1711327343758,-1562.7986186794005
1711327343798,15329.119856807403
1711327343839,26066.026150863152
1711327343879,39431.65662743873
1711327343920,47341.8615762142
1711327343959,55888.58165067341
1711327343999,64071.21598016843
1711327344039,75938.49823232181
1711327344079,71540.08753047953
1711327344120,48266.23704818962
1711327344159,16114.230538890697
1711327344199,4343.603548042476
1711327344240,-17606.74170132517
1711327344280,-32773.26511143334
1711327344321,-35310.94996755873
1711327344360,-54785.0464551365
1711327344400,-70898.9387612138
1711327344440,-84346.15454474883
1711327344480,-98202.59784434177
1711327344521,-139440.33055454772
1711327344560,-149263.31000873446
1711327344601,-132154.23525376152
1711327344641,-116450.86164281145
1711327344681,-98979.87501922622
1711327344722,-83521.82727217302
1711327344761,-78651.98027970549
1711327344801,-79999.20688091312
1711327344841,-74799.84523883695
1711327344881,-65347.457894757856
1711327344922,-62654.11532511981
1711327344962,-51850.67192401551
1711327345002,-42224.91618367471
1711327345042,-41081.90487132594
1711327345082,-26134.44898292469
1711327345123,-4233.764802291524
1711327345162,2593.9594476618804
1711327345202,3596.33256553486
1711327345242,-1679.1709886947647
1711327345282,-18199.532615598524
1711327345323,-43517.935200911015
1711327345363,-51638.74978060555
1711327345403,-38586.125131208915
1711327345443,-13624.289723474067
1711327345483,-7592.443703985307
1711327345524,11059.022774505662
1711327345563,21574.56869078707
1711327345603,28834.042038443033
1711327345643,54244.48358029872
1711327345684,71088.67614458944
1711327345724,84739.74092861963
1711327345764,91295.03558206768
1711327345804,105531.36585678137
1711327345844,93672.05454999954
1711327345884,86539.9280748209
1711327345925,69097.47201184556
1711327345964,21383.90073041874
1711327346004,45858.98118572496
1711327346045,87340.43151211645
1711327346085,117077.38714190759
1711327346125,133712.1993217552
1711327346165,146247.35939446837
1711327346205,151553.10188403493
1711327346245,126417.50918448553
1711327346285,122620.89507628721
1711327346326,59499.381905782735
1711327346365,-37231.4483650215
1711327346405,-75717.85352937225
1711327346445,-77363.22201097338
1711327346486,-44690.92223708192
1711327346526,-23096.281641382724
1711327346566,-10607.460907286499
1711327346606,1805.9801564132795
1711327346646,12339.740709641017
1711327346686,14690.092556324089
1711327346727,11564.54941225797
1711327346766,6157.35708900867
1711327346806,5660.225619975012
1711327346847,6765.179480148945
1711327346887,15665.664669176796
1711327346928,9908.427436540369
1711327346967,2493.043584465049
1711327347007,5867.72005148977
1711327347047,17540.557916853344
1711327347087,50418.864373557735
1711327347128,68280.87535008648
1711327347167,72104.58211046737
1711327347207,82141.93050492252
1711327347248,114680.61507415632
1711327347288,78416.09801281011
1711327347328,27085.130433214596
1711327347368,-12332.934615710285
1711327347408,-30369.109262136742
1711327347448,-40640.53828380676
1711327347488,-40776.95892785955
1711327347529,-26275.687213070225
1711327347569,-42700.27920303494
1711327347609,-3318.8444946268573
1711327347649,71373.40807123203
1711327347689,85362.72353955405
1711327347730,79332.81255820999
1711327347769,54176.35552526894
1711327347809,42024.04596050084
1711327347849,38072.844440559624
1711327347889,41396.74132319819
1711327347930,42827.15815056348
1711327347970,38601.75745115592
1711327348010,35087.24312626454
1711327348050,34724.71272012731
1711327348090,31757.036613995675
1711327348131,27367.037235977128
1711327348170,22242.453982377425
1711327348210,20576.455183598446
1711327348250,19796.750597218983
1711327348291,17201.667020018212
1711327348331,11682.534917681012
1711327348371,7342.781058183871
1711327348411,8276.099931834266
1711327348451,9566.56423826376
1711327348491,14905.292680328246
1711327348532,15599.31593186874
1711327348571,11894.772780457512
1711327348611,15917.096232562326
1711327348651,25937.64193014265
1711327348691,28792.438732154667
1711327348732,25014.080375930294
1711327348771,18357.094372696243
1711327348812,21676.85576185072
1711327348852,22913.77178269066
1711327348892,21856.46017420292
1711327348933,20471.665102696046
1711327348972,20272.90454544779
1711327349012,18564.42928965809
1711327349052,15539.590453636833
1711327349092,10590.708207990974
1711327349133,13966.689132250845
1711327349172,13973.089038205333
1711327349212,15329.192337169312
1711327349252,18191.439614183735
1711327349293,21859.403020535596
1711327349333,23261.99042422697
1711327349373,20779.002794037573
1711327349413,17272.018289397005
1711327349453,16040.422630157322
1711327349493,15342.291494379751
1711327349534,14525.43460796494
1711327349573,15100.42490459606
1711327349613,14632.942056649365
1711327349653,10860.182564229704
1711327349693,9159.290750129614
1711327349734,8129.639232006855
1711327349774,6177.579351778608
1711327349814,8012.014587906189
1711327349854,8931.027491698973
1711327349894,8159.39398926124
1711327349934,6276.248860132415
1711327349974,3981.6756108007394
1711327350014,3790.7592569645494
1711327350054,4777.45112043852
1711327350094,4494.352792828344
1711327350135,4816.6226559905335
1711327350174,4628.136393463239
1711327350214,4931.251997000072
1711327350255,4339.415398822632
1711327350295,4719.712219068315
1711327350335,2602.5005763955414
1711327350375,5218.817445111927
1711327350415,4924.940224370919
1711327350455,3434.0675289183855
1711327350495,5489.226573641878
1711327350536,4136.9814220694825
1711327350575,-128.38209647592157
1711327350615,-831.9986511804163
1711327350655,2190.798798731528
1711327350695,1237.7969999136403
1711327350736,-977.6214622044936
1711327350776,2806.899530250579
1711327350816,2303.900360828731
1711327350856,-332.80362845025957
1711327350896,797.1445914627984
1711327350937,3061.0951646943577
1711327350976,1262.3486368674785
1711327351016,1182.1376065276563
1711327351056,3142.4887536419556
1711327351096,3343.8578351079486
1711327351137,2465.5709536294453
1711327351176,3207.9172168658115
1711327351217,3988.084292702377
1711327351257,4477.05416869605
1711327351297,4155.1784151643515
1711327351338,3915.1561274030246
1711327351377,4585.0670625967905
1711327351417,3987.06499442365
1711327351457,4489.423200586345
1711327351497,3071.8848417992704
1711327351538,3423.223367678467
1711327351578,3928.085776994936
1711327351618,4711.5976138161495
1711327351658,4347.967941115145
1711327351698,3762.3150287577882
1711327351738,5618.278536612168
1711327351778,2466.6177415112033
1711327351818,2793.197331882082
1711327351858,5528.164829899557
1711327351898,6439.431288455613
1711327351939,4003.2673540622927
1711327351978,3622.5075908983126
1711327352018,5642.122213923838
1711327352059,2329.0630851308815
1711327352099,2256.539902854711
1711327352139,4234.766288728919
1711327352179,2949.327382095158
1711327352219,524.4000080861151
1711327352259,2119.738778288476
1711327352299,2765.8903343686834
1711327352340,1289.1019872855395
1711327352379,1161.1973244757392
1711327352419,1487.587672050111
1711327352459,2236.884063222911
1711327352500,2008.297591900453
1711327352541,2277.9755759802647
1711327352580,1833.612009481527
1711327352620,1910.2672164188698
1711327352660,1701.8843311304227
1711327352700,2013.0787344770506
1711327352741,1856.9897783556953
1711327352780,1951.8234032047912
1711327352820,1312.188736887183
1711327352861,1120.1206216793507
1711327352901,419.2936823973432
1711327352941,-181.42573461076245
1711327352981,1177.1886305380613
1711327353021,3109.3298881412484
1711327353061,1195.4602388488129
1711327353101,-2793.5603686319664
1711327353142,-267.28013919247314
1711327353181,807.32751875557
1711327353221,-872.6374802435748
1711327353262,-61.46070396434516
1711327353302,1118.328345861286
1711327353343,826.442636650987
1711327353382,1590.2114578890614
1711327353422,2296.441368906293
1711327353462,1112.6493061650544
1711327353502,1328.134453870356
1711327353543,1633.848680544179
1711327353582,1504.8574661016464
1711327353623,970.1060370756313
1711327353663,1089.4530342668295
1711327353703,1647.9112064060755
1711327353744,1389.8785925689153
1711327353783,1914.0977036133409
1711327353823,887.3949135318398
1711327353863,1383.6935199517757
1711327353903,1651.3309288388118
1711327353944,1869.9164863498881
1711327353984,1483.8135788235813
1711327354024,1346.283523214981
1711327354064,2206.0434785280377
1711327354104,2673.898709271103
1711327354145,2510.5169227020815
1711327354184,3376.789095175918
1711327354224,4190.9400041224435
1711327354264,3291.433176890947
1711327354305,802.8123913798481
1711327354345,2743.5163593799807
1711327354385,6982.892160922755
1711327354425,3972.207970951684
1711327354465,3093.3976837862283
1711327354505,3995.2238992033526
1711327354546,3194.344948193524
1711327354585,2527.5344626046717
1711327354625,3299.5736783519387
1711327354666,2764.981773911044
1711327354706,1926.6270406479016
1711327354747,2860.746212232858
1711327354786,2564.6386384805664
1711327354826,2290.6236506565474
1711327354866,3078.3110430371016
1711327354906,3591.8093829830177
1711327354947,2979.5473519945517
1711327354987,2585.277535788715
1711327355027,2824.284247891046
1711327355067,2031.141441439744
1711327355107,2362.460584185086
1711327355148,1554.1498961728066
1711327355187,2377.7742940736935
1711327355227,5798.508465664461
1711327355267,4383.589538543485
1711327355308,-765.9880807446316
1711327355348,-422.7289452049881
1711327355388,2328.5780641674064
1711327355428,8019.978789435234
1711327355468,8745.201171400957
1711327355508,825.9697803119197
1711327355549,-509.05288556590676
1711327355588,2519.8836761922576
1711327355628,4856.192910749
1711327355669,7666.235962230712
1711327355709,1572.9395330795087
1711327355749,-1346.9251210363582
1711327355789,-447.65532475570217
1711327355829,1375.794647604227
1711327355869,5903.8098259773105
1711327355909,6134.29650159739
1711327355950,-116.29002471454442
1711327355990,-1332.2286994569004
1711327356030,1360.9119117581286
1711327356070,2878.172128439881
1711327356110,5431.448941230774
1711327356151,3331.207643551752
1711327356190,-636.2431005113758
1711327356230,-991.1203101109713
1711327356270,1774.4843978746794
1711327356310,2034.6270112339407
1711327356351,3327.9633163521066
1711327356391,2393.0103232860565
1711327356431,2029.9691246938892
1711327356471,-394.00236443337053
1711327356511,-2406.488847263623
1711327356552,-1570.3316781981848
1711327356591,3643.7926003653556
1711327356631,3354.680378546007
1711327356671,346.81818885169923
1711327356711,-5070.87289166078
1711327356752,-5533.056036606897
1711327356791,2345.1237136786804
1711327356831,3818.2285365159623
1711327356872,734.543096633628
1711327356912,-1909.2121621649712
1711327356952,-5758.187254534103
1711327356992,788.0737504255958
1711327357032,3369.269953932613
1711327357072,4092.355858062394
1711327357112,2647.1638299841434
1711327357153,-1609.2638666238636
1711327357192,-2149.0592301581055
1711327357232,3404.0715258228593
1711327357272,5455.834682077169
1711327357312,2888.4729391788132
1711327357353,768.7126306518912
1711327357393,-2484.229548353702
1711327357433,-1377.5992066166364
1711327357473,2308.4954782733694
1711327357513,3338.678035962861
1711327357554,756.9503425695002
1711327357593,-96.85013156151399
1711327357633,-862.6615294064395
1711327357673,-1351.5888795135543
1711327357714,-317.8503953702748
1711327357754,899.9428622866981
1711327357794,-1468.4042639834806
1711327357834,3316.2460075030103
1711327357874,4070.0327937053517
1711327357914,-1777.769802313298
1711327357955,-6315.98785049282
1711327357994,-3146.5880498271435
1711327358034,2204.6901031667367
1711327358074,5561.434698663186
1711327358114,1566.6878238525242
1711327358155,-3312.7684140698984
1711327358195,-135.74081502202898
1711327358235,4039.5978996381164
1711327358275,6450.940999016166
1711327358315,7698.748171451502
1711327358356,1300.9439640212804
1711327358395,508.9368121935986
1711327358435,586.972002085764
1711327358475,2502.7385903955437
1711327358515,5226.693541832268
1711327358556,4532.967316140421
1711327358595,3194.9879364501685
1711327358636,2697.033154179342
1711327358676,3313.6504383445717
1711327358716,2789.799342378974
1711327358757,2093.0023257201537
1711327358796,2235.9867094932124
1711327358836,1684.5140182189643
1711327358876,2752.52612100821
1711327358917,2833.8467518100515
1711327358957,4242.136192918755
1711327358997,4772.65253572911
1711327359037,5020.067730576731
1711327359077,4861.039957838133
1711327359117,-932.7830320266075
1711327359158,-1558.8586059780791
1711327359197,4476.337586374488
1711327359237,9641.030756155029
1711327359278,7140.156257639639
1711327359318,474.14133023796603
1711327359358,-4025.2050622771494
1711327359398,-2.6389085086993873
1711327359438,5561.658317001071
1711327359478,2759.0938772461377
1711327359518,122.87795857107267
1711327359559,-2153.760615922045
1711327359598,-3228.4006013711914
1711327359638,3062.224449559115
1711327359678,4193.814954245463
1711327359719,3932.1200703256764
1711327359760,1646.4248030064628
1711327359799,-614.7082824725658
1711327359839,520.3616393767297
1711327359879,1524.1506642615423
1711327359919,2231.923391507007
1711327359960,2112.29854760319
1711327359999,2394.4532401938923
1711327360039,2960.8025330174714
1711327360080,2603.112447310239
1711327360120,2491.627216811292
1711327360160,1859.7893087174743
1711327360200,942.5128751713783
1711327360240,1194.9343089014292
1711327360280,791.0998422647826
1711327360320,1378.2309395577759
1711327360361,1385.4958353093825
1711327360400,2129.264264245052
1711327360440,1391.867585428059
1711327360481,1275.1257402105257
1711327360521,1487.4505172381178
1711327360561,1117.9323490355164
1711327360601,2052.346009611152
1711327360641,2524.9759119022638
1711327360681,2397.2086640084162
1711327360721,2314.786881059408
1711327360762,2411.907712996006
1711327360801,1289.4454902978614
1711327360842,431.71005015820265
1711327360882,735.7362696435302
1711327360922,395.98452634038404
1711327360963,533.8541058725677
1711327361002,1181.110154100228
1711327361042,1118.8394204038195
1711327361082,1177.722049048636
1711327361122,1588.0395646486431
1711327361163,2064.661090380512
1711327361203,2617.9646429177374
1711327361243,2366.717851272784
1711327361283,2211.57337900158
1711327361323,1952.3396790111437
1711327361364,2086.3601353033446
1711327361403,2131.2333910577
1711327361443,889.1509618246928
1711327361483,1465.0640025492758
1711327361523,697.0442320741713
1711327361564,233.85498455399647
1711327361604,263.2974955579266
1711327361644,580.5077955387533
1711327361684,515.4908439447172
1711327361724,151.7913236292079
1711327361765,-78.89343603979796
1711327361804,-792.8483869237825
1711327361844,-740.9443527683616
1711327361884,-911.5525297885761
1711327361925,-871.0266512613744
1711327361965,-915.8987163593993
1711327362005,-519.3190036658198
1711327362045,-718.4812179249711
1711327362085,-64.54174166917801
1711327362125,538.3919669352472
1711327362166,519.8432208383456
1711327362205,984.7653475729749
1711327362245,511.1794647905044
1711327362286,213.3065833891742
1711327362326,135.94924589246511
1711327362367,584.822652217932
1711327362406,-433.64955836953595
1711327362446,-200.7678222595714
1711327362485,-793.6692281519063
1711327362526,-1187.4314419403672
1711327362566,-650.8569050608203
1711327362606,-909.8533815434203
1711327362646,-1095.5732567664236
1711327362686,-1042.695036215242
1711327362726,410.7020350275561
1711327362767,272.48673917353153
1711327362806,483.2573529733345
1711327362847,566.5905876792967
1711327362887,687.9075135453604
1711327362927,995.6696369219571
1711327362967,1251.6081547476351
1711327363007,1536.2673207269982
1711327363047,2284.596851193346
1711327363087,2658.110943042673
1711327363127,2821.492990490049
1711327363168,2263.340227724053
1711327363208,2382.869847431779
1711327363248,2491.868536776863
1711327363288,2404.9834218109027
1711327363328,2255.547639072407
1711327363369,1903.9189605102874
1711327363408,1951.1438387231901
1711327363448,1588.7959049427882
1711327363489,746.6723025320098
1711327363528,1129.4813375924714
1711327363569,1441.1371844122186
1711327363609,1069.9717135974206
1711327363649,1012.439670228865
1711327363689,1827.6117093525827
1711327363729,1956.714922523126
1711327363770,1772.7511505344883
1711327363809,2650.3380285878666
1711327363849,2233.191943266429
1711327363889,2950.1894644070417
1711327363929,2959.941857974045
1711327363970,3347.58051164262
1711327364010,2802.546182326041
1711327364050,2717.273408628069
1711327364090,2388.017956102267
1711327364130,2520.3421133551747
1711327364170,2487.28537948709
1711327364210,2443.5707636801526
1711327364250,2694.359217214398
1711327364290,2505.547793092206
1711327364330,2568.6476165940985
1711327364371,2667.153204049915
1711327364410,3054.9531904477626
1711327364450,3349.674752951134
1711327364490,3276.234047554899
1711327364531,2689.2724634073675
1711327364571,1863.9889067197219
1711327364611,1554.5522084850818
1711327364651,1804.930279805325
1711327364691,1882.5591372735798
1711327364731,1890.533147114329
1711327364772,2598.585446943529
1711327364811,2200.3152270922437
1711327364851,2420.558531577699
1711327364891,2874.6862569088116
1711327364932,2474.168099436909
1711327364972,2032.0762372910976
1711327365012,1595.5303918011487
1711327365052,1431.5592904007062
1711327365092,385.605100675486
1711327365132,405.5842667557299
1711327365173,133.70023297937587
1711327365212,304.83604400604963
1711327365252,20.703721136320382
1711327365292,-577.9706504018977
1711327365332,-442.13635627459735
1711327365373,208.44017297867686
1711327365413,407.57096731103957
1711327365453,943.0887408722192
1711327365493,1076.7189291887917
1711327365533,1102.2057079644874
1711327365574,780.7692544064485
1711327365613,583.6712288451381
1711327365653,873.1357553307898
1711327365693,900.2149188886397
1711327365733,1060.2607519314624
1711327365774,711.1786526022479
1711327365814,1242.7261533075944
1711327365854,1863.4791948497295
1711327365894,2283.5118093769997
1711327365934,2503.679091693368
1711327365975,2016.2098286990076
1711327366014,2250.288292444311
1711327366054,1298.84226245014
1711327366094,1810.8758911052719
1711327366134,1386.4328231825493
1711327366175,1818.5837472602725
1711327366214,1724.1104794512503
1711327366255,2607.9226323300973
1711327366295,2906.761122887023
1711327366335,3564.3712488086894
1711327366376,4260.431373824831
1711327366415,4489.336000431329
1711327366455,4662.461066991091
1711327366495,4436.276605241001
1711327366535,4072.820872323122
1711327366576,3931.861508491449
1711327366615,3482.068113018293
1711327366655,2885.873839501757
1711327366696,3293.6435064161196
1711327366736,3127.5567610100843
1711327366777,2956.856302986853
1711327366816,3060.1252790680155
1711327366856,2773.170690409839
1711327366896,4099.241355410777
1711327366936,4150.555442022625
1711327366977,4011.6345721315593
1711327367016,4234.361769558862
1711327367057,4697.2745746257715
1711327367097,4783.352131831925
1711327367137,4247.112815692555
1711327367178,4112.694804287516
1711327367217,3980.2810172899626
1711327367257,4200.207768449094
1711327367297,3567.2938919835724
1711327367338,3792.904308833182
1711327367378,3000.3707738271914
1711327367417,2365.9534267848358
1711327367458,2086.6474762754515
1711327367498,2707.2889512605034
1711327367538,2774.582746228203
1711327367579,1943.2818478280678
1711327367618,1175.6560247493908
1711327367658,1188.780035677366
1711327367698,516.9253322361037
1711327367738,395.5635018274188
1711327367779,308.67707925103605
1711327367819,106.05947259441018
1711327367859,406.1075489325449
1711327367899,485.7683746875264
1711327367939,756.404679342173
1711327367980,1011.7910523395985
1711327368019,1399.2871135454625
1711327368060,732.295425131917
1711327368100,752.9715285878628
1711327368140,1022.4519365145825
1711327368181,-817.3637357344851
1711327368220,-1484.6722457828
1711327368260,-1006.6886485787109
1711327368300,-1122.6961021898314
1711327368340,-2823.2342631551437
1711327368381,-3339.4316406408325
1711327368421,-2783.562501397915
1711327368460,-3249.660680017434
1711327368501,-2705.2232058206573
1711327368541,-3163.231398551725
1711327368581,-1801.6138528361917
1711327368621,-305.1562849096954
1711327368661,-743.1959809809923
1711327368701,-680.7962367488071
1711327368741,-129.1723217042163
1711327368782,-402.2224485594779
1711327368822,-747.6535670054145
1711327368862,-770.6130949538201
1711327368902,-277.6810966087505
1711327368942,-372.76190774608403
1711327368983,454.7541136564687
1711327369022,127.14131639245898
1711327369062,679.650930386968
1711327369102,1069.0845500486903
1711327369142,1677.8803609074093
1711327369183,1562.024412587285
1711327369223,1574.9704751484096
1711327369263,485.42785508185625
1711327369303,-316.19656435772777
1711327369343,758.9947236217558
1711327369384,1237.300155416131
1711327369423,1241.790184788406
1711327369463,1731.4628988299519
1711327369504,2119.143540478777
1711327369544,1732.1710780253634
1711327369585,1747.555758185219
1711327369624,2076.0618535541
1711327369664,1537.0973982503638
1711327369704,1392.908470646944
1711327369744,1404.1930480469018
1711327369785,1060.1461148797534
1711327369825,2116.3129907511175
1711327369865,878.173012431711
1711327369905,-1181.1334668919444
1711327369945,-669.7852332484908
1711327369986,636.295451126527
1711327370025,369.1920515517704
1711327370065,166.60173912951723
1711327370106,-394.84845019178465
1711327370146,478.75020176777616
1711327370187,206.3683522050269
1711327370226,348.5525575997308
1711327370266,659.2430184651166
1711327370306,979.9100004062057
1711327370347,768.3630944704637
1711327370387,737.3082280014642
1711327370427,-394.36856284737587
1711327370467,222.84387006191537
1711327370507,-65.87797046545893
1711327370547,194.6501660309732
1711327370588,987.0556475510821
1711327370627,362.2861080178991
1711327370667,-1158.9864136949182
1711327370708,-1023.5754036968574
1711327370747,-66.85439318418503
1711327370788,-1497.157952759415
1711327370828,-1239.8050221474841
1711327370868,-518.2457456453703
1711327370908,406.1339132785797
1711327370948,1180.19643761497
1711327370989,1050.6672079749405
1711327371028,1370.3225953406654
1711327371069,1739.633471811656
1711327371109,1416.0292343897745
1711327371149,1834.1943678883836
1711327371190,2444.1957013029605
1711327371229,2988.5387322744355
1711327371269,2400.0726928589866
1711327371309,2069.2504451312125
1711327371349,2014.116518002469
1711327371390,2857.9660446043126
1711327371429,3279.18737738207
1711327371469,3306.474129977636
1711327371509,3212.0858270442113
1711327371550,3381.0068835914135
1711327371590,3985.424664213322
1711327371629,4054.3235928742215
1711327371670,3841.1942009618506
1711327371710,3945.471493255347
1711327371750,3092.5278188213706
1711327371791,2852.8042070064694
1711327371830,2429.613952334039
1711327371870,1852.9310815576464
1711327371910,1460.2215043781325
1711327371950,2166.0626134583727
1711327371991,2009.1605056612752
1711327372031,2319.612460059114
1711327372070,3975.793758553453
1711327372111,4104.427391906269
1711327372151,3779.3542659943923
1711327372191,3227.1894239308313
1711327372231,2628.342092771083
1711327372271,2655.85679889936
1711327372311,1998.448738497682
1711327372351,1813.8678447445855
1711327372392,1845.9261060794815
1711327372431,2181.682846286334
1711327372471,1601.5770816514269
1711327372512,1885.358597558923
1711327372552,1693.002343326807
1711327372592,2066.444216545671
1711327372632,2589.4617038611323
1711327372672,1446.8127327589318
1711327372712,1342.3260682211258
1711327372752,838.5892775291577
1711327372793,1334.9298257119954
1711327372832,576.112085939385
1711327372872,649.7532213041559
1711327372912,39.143268219195306
1711327372952,738.2849702187814
1711327372993,-182.8160972893238
1711327373033,-303.09042466105893
1711327373073,-65.19571693986654
1711327373113,242.46363646397367
1711327373153,522.1187083935365
1711327373194,791.647548191715
1711327373233,563.6943208873272
1711327373273,1366.2433394640684
1711327373313,587.7570539838634
1711327373353,544.5704051461071
1711327373394,659.0450264289975
1711327373434,851.7052453239448
1711327373474,830.5686645489186
1711327373514,1106.7202335572802
1711327373554,110.35899768862873
1711327373595,271.3810601234436
1711327373634,554.9672248060815
1711327373674,77.80057559069246
1711327373714,-1062.0473389727995
1711327373754,-1484.9858465008438
1711327373795,-1619.8296017092653
1711327373835,-1213.1279173889197
1711327373875,-1290.7755042696372
1711327373915,-260.50142135005444
1711327373955,380.0235709701665
1711327373996,597.9323765803128
1711327374035,746.4379927637056
1711327374075,604.3354494152591
1711327374115,819.8945208154619
1711327374155,855.5720810270868
1711327374196,1101.3148004030809
1711327374235,624.5344644952565
1711327374276,988.4554843492806
1711327374316,1186.5974552636035
1711327374356,669.4033757769503
1711327374397,936.3512695543468
1711327374436,48.49951143562794
1711327374476,-1220.219720359426
1711327374517,-2992.3932993467897
1711327374557,-4322.087675750256
1711327374598,-2819.391592333559
1711327374638,-2792.23763223039
1711327374678,-2986.234172017779
1711327374718,-3088.2026279112324
1711327374758,-2998.6443283758126
1711327374799,680.1827664319426
1711327374838,1592.7257158043794
1711327374878,-2036.8059391500428
1711327374918,-2521.6714248191565
1711327374958,-1398.8893190715462
1711327374999,732.4359512040392
1711327375039,2255.9382034223527
1711327375079,3000.258358331863
1711327375119,2278.282918686047
1711327375159,1740.6060178312473
1711327375200,-205.86222173972055
1711327375239,40.49303505057469
1711327375279,-927.5550886224955
1711327375319,-76.34115843242034
1711327375360,226.68444562982768
1711327375401,1459.569656195119
1711327375440,1498.6530271815136
1711327375480,1959.849014074076
1711327375520,3068.49478801433
1711327375560,2523.918693096377
1711327375601,2776.2101713689044
1711327375641,3328.757449251134
1711327375681,2919.5985244447365
1711327375721,3090.6579073644243
1711327375761,2919.175910322927
1711327375802,4373.461969126947
1711327375841,4820.065176681615
1711327375881,3547.846435769461
1711327375921,4102.569665143266
1711327375961,3968.1022099037655
1711327376002,3373.756261871662
1711327376041,5540.201036891434
1711327376082,1831.7463974184357
1711327376122,-3525.562374592293
1711327376162,3832.4289432223886
1711327376203,6627.116912277415
1711327376242,6979.578952061012
1711327376282,8246.914032753557
1711327376322,5102.756305840332
1711327376362,3193.7005833676085
1711327376403,1123.3199504297227
1711327376442,-725.6696837786585
1711327376483,2378.8406108273193
1711327376523,8491.505480815656
1711327376563,8907.57046765415
1711327376604,-5850.852092045359
1711327376643,-8142.579763037153
1711327376683,-5375.733425620943
1711327376723,-7737.997238130309
1711327376763,-15882.175575066358
1711327376804,-21811.002069927752
1711327376844,-24518.681734139565
1711327376884,-20909.769873328507
1711327376924,-19193.164378626272
1711327376964,-14263.45907184761
1711327377005,-10748.449127595872
1711327377044,-8326.514240204357
1711327377084,-4708.183670276776
1711327377124,-1872.913995708339
1711327377164,1862.526739999652
1711327377205,2431.4719366366044
1711327377245,1376.3607580875978
1711327377285,-737.885052004829
1711327377325,-3846.2599603477865
1711327377365,-2472.7016566898674
1711327377406,60.53657055553049
1711327377445,-7489.764558546245
1711327377485,-8507.202537406236
1711327377525,-8844.064228395931
1711327377566,-9120.7887565922
1711327377607,-6633.816108750645
1711327377646,-3571.07907929644
1711327377686,1612.6198274735361
1711327377726,2507.471668597311
1711327377766,1641.4773100176826
1711327377807,-3661.2611291222274
1711327377846,-6573.544094179757
1711327377886,7514.2945047318935
1711327377927,7773.606239272747
1711327377967,-5618.080893381499
1711327378007,-11149.441259318031
1711327378047,-7295.515205084346
1711327378087,-11076.11719594663
1711327378127,-13047.26577879861
1711327378167,-26175.805464227684
1711327378208,-31833.85361706838
1711327378247,-39593.428697291296
1711327378288,-46447.06441824231
1711327378328,-45812.196473418735
1711327378368,-40413.65092383418
1711327378409,-38439.94452560507
1711327378448,-33215.299662711564
1711327378488,-27797.00321131479
1711327378528,-8151.496245583519
1711327378568,8543.410872939974
1711327378609,18322.45712055359
1711327378649,18052.487358502112
1711327378689,15836.69998375792
1711327378729,17344.57033044519
1711327378769,13748.543623243459
1711327378810,9158.408311943058
1711327378849,9269.231933355331
1711327378890,18263.24176075915
1711327378929,23370.637044567615
1711327378969,21026.3406453114
1711327379010,20755.838522729464
1711327379049,10468.313181723468
1711327379090,4072.1831911923364
1711327379130,11300.802534159273
1711327379170,27942.762029524893
1711327379210,21826.8384645842
1711327379250,-10718.213649488054
1711327379290,-12129.78675145749
1711327379330,6999.235635371879
1711327379370,23597.34219720587
1711327379411,19327.94855739642
1711327379450,10697.282752042636
1711327379490,13978.995753448457
1711327379530,12462.70560537139
1711327379571,194.97373243514448
1711327379611,-520.5032657561824
1711327379651,6873.801659796387
1711327379691,3937.14894345263
1711327379731,-3673.6319211507216
1711327379771,-2448.327355885878
1711327379812,-7933.67778885318
1711327379851,-9007.724387903698
1711327379891,-4216.143439243548
1711327379931,5178.361254207324
1711327379972,5762.160116526298
1711327380012,9521.519794340245
1711327380052,22900.69341229368
1711327380092,24978.165695477277
1711327380132,18046.52314663632
1711327380172,3854.220153627917
1711327380213,-20143.391265451908
1711327380252,-23028.597723574843
1711327380292,-24746.37246747967
1711327380332,-12346.197777213994
1711327380372,-3970.4184048282914
1711327380413,-18135.5713519915
1711327380453,-44919.6294159838
1711327380493,-35128.23277310375
1711327380533,10471.195399255492
1711327380573,9473.090933205094
1711327380614,-28407.536318061873
1711327380653,-35323.80216819141
1711327380693,-20569.62906643562
1711327380733,-4308.031785170548
1711327380773,-4411.965485276654
1711327380814,3576.815908146091
1711327380853,19516.490320246667
1711327380893,19068.03352506552
1711327380934,3804.679187629372
1711327380974,2032.0108570549637
1711327381015,1972.8409319957718
1711327381054,-5857.413588961586
1711327381094,-17688.345218995586
1711327381134,-29196.10070214048
1711327381174,-39138.5533454814
1711327381215,-47613.76051244978
1711327381254,-41176.02056981996
1711327381295,-39588.598567015026
1711327381335,-47301.19213272538
1711327381375,-43846.931268511806
1711327381416,-34308.62672535749
1711327381455,-25123.435649939813
1711327381495,-5047.9501945171505
1711327381535,-469.18754136236385
1711327381575,5824.320178556722
1711327381616,3230.9981840141118
1711327381655,208.26946181524545
1711327381695,11112.242273879703
1711327381736,23205.868949809577
1711327381776,21874.638679382857
1711327381817,12845.622073521838
1711327381856,19056.40750763612
1711327381896,42907.34194668755
1711327381936,43829.724296421744
1711327381976,40227.25677088089
1711327382017,39212.79928722698
1711327382057,40628.84727900475
1711327382097,38209.39749111608
1711327382137,37210.936023720074
1711327382177,36336.057330543175
1711327382218,34073.15218818374
1711327382257,31837.776054465212
1711327382297,30037.51917167753
1711327382337,28773.83303610701
1711327382378,28047.772819774225
1711327382418,27287.519094729796
1711327382458,24708.50456576515
1711327382498,24304.555087755434
1711327382538,23253.446458186954
1711327382578,22994.033032416366
1711327382619,21856.599259042647
1711327382658,19342.431277974043
1711327382698,16859.60501261754
1711327382741,16637.993528002873
1711327382779,15797.72416101722
1711327382819,15296.015013162047
1711327382859,16073.935216350481
1711327382899,15387.419215784408
1711327382939,12277.215829071589
1711327382979,9586.092036077753
1711327383020,9459.573454154655
1711327383059,10285.079746793956
1711327383100,10970.008242964745
1711327383140,10220.143797637895
1711327383180,7435.278631842695
1711327383221,7391.815041678958
1711327383260,8160.470774211921
1711327383300,7985.405512816273
1711327383340,6557.627375742421
1711327383380,5789.905049606692
1711327383421,6183.085797924548
1711327383461,6398.774598330259
1711327383501,5520.501654590014
1711327383541,4771.104051142931
1711327383581,4373.742068732157
1711327383622,4539.920666655526
1711327383661,3693.54210437648
1711327383701,3465.3325834460557
1711327383741,3846.5789781077765
1711327383782,3180.3984307078645
1711327383822,2956.410306867212
1711327383862,1798.76213076571
1711327383902,2251.3952326267026
1711327383942,3760.933736741543
1711327383982,4485.951872591395
1711327384023,4028.8911534412764
1711327384063,3424.422135665547
1711327384102,3537.4367208685726
1711327384143,1606.1000174847431
1711327384183,396.8654447356239
1711327384224,2674.093014817685
1711327384263,4510.947377931792
1711327384303,4225.002515542787
1711327384343,3082.2391214426607
1711327384383,2231.279605996795
1711327384424,2418.588249515742
1711327384464,4233.561643444467
1711327384504,3545.654897368513
1711327384544,2334.6936325491406
1711327384584,2774.1966403187253
1711327384625,3623.905137016438
1711327384664,4062.4514629258774
1711327384704,3221.9421955682337
1711327384744,2601.7676011160947
1711327384785,3005.9339649733156
1711327384825,2016.4850745443255
1711327384865,1756.2241877075285
1711327384905,2243.9273777948692
1711327384948,1923.579791978933
1711327384985,919.9383844221011
1711327385026,983.8617994873784
1711327385065,1515.2542735952884
1711327385105,2572.807618962135
1711327385146,1503.3305031782947
1711327385186,-256.178653948009
1711327385227,-545.3335409853607
1711327385266,947.2819763259031
1711327385306,1833.588540543802
1711327385346,1838.7535117254592
1711327385387,1698.297260249965
1711327385427,963.4485094388947
1711327385467,1024.9585295980796
1711327385507,826.0723818172701
1711327385547,946.0986577649601
1711327385587,1034.679659260437
1711327385628,1014.5591526813805
1711327385667,1445.061490691267
1711327385707,1471.194893795997
1711327385748,1688.2673735041171
1711327385788,1676.9673892790452
1711327385828,1127.7492865836248
1711327385868,790.5889344876632
1711327385908,247.38620869768783
1711327385948,-165.13227135548368
1711327385988,-328.05208982154727
1711327386029,-303.2606028513983
1711327386069,240.90946433274075
1711327386109,985.2637526686303
1711327386149,1213.9363090596162
1711327386189,1167.3534214729443
1711327386230,1803.8341681617312
1711327386269,2642.405597360339
1711327386309,1932.5773894349113
1711327386349,1291.4704598253593
1711327386389,-87.80268400534987
1711327386430,794.7480151588097
1711327386470,2732.73990429705
1711327386509,2802.0679285703227
1711327386550,1466.5046195751056
1711327386590,750.3313545510173
1711327386630,684.0928373076022
1711327386670,717.6022650049999
1711327386710,1017.7363798534498
1711327386750,909.6821987815201
1711327386790,551.2958531589247
1711327386831,270.22047103382647
1711327386870,27.486082614865154
1711327386910,-231.68650219775736
1711327386951,-176.37521395646036
1711327386991,-475.10520169790834
1711327387031,-1058.0279863346368
1711327387071,-661.096812799573
1711327387111,-320.6805625865236
1711327387151,167.26889025932178
1711327387191,512.1313469903544
1711327387232,361.01818339992315
1711327387271,875.9376776255667
1711327387311,1298.0562135898508
1711327387351,1302.9096996886656
1711327387391,1591.5746508715674
1711327387432,1881.7521119024605
1711327387472,2024.2942202063277
1711327387512,1495.6513017006218
1711327387552,1610.79433226306
1711327387592,2009.545072460547
1711327387633,2275.0595690952614
1711327387672,2379.897660420276
1711327387712,2194.402304594405
1711327387752,2258.2273439969867
1711327387793,2571.5058041955344
1711327387833,2677.986952828709
1711327387872,2687.4037514347583
1711327387913,2958.6597447367385
1711327387953,2439.10510671651
1711327387993,2528.1211824798957
1711327388034,2882.916279331781
1711327388073,2996.45768934628
1711327388113,2903.864873618819
1711327388153,2924.2704579001293
1711327388193,3445.4407083555125
1711327388234,1986.9595427424647
1711327388273,2314.8270016605966
1711327388313,1886.2215640330687
1711327388354,1550.8972449488938
1711327388394,1108.8547907900065
1711327388434,929.1401263093576
1711327388474,1136.605340602342
1711327388514,1063.468660817016
1711327388554,605.6750790877268
1711327388594,-145.16830068826675
1711327388635,-442.2334014028311
1711327388674,-617.8027120064944
1711327388714,-195.29220802569762
1711327388755,-808.8838866660371
1711327388795,-1062.6220655012876
1711327388835,-618.2035432588309
1711327388875,-527.0064338715747
1711327388915,-697.9827572600916
1711327388955,-559.2505540563725
1711327388995,-354.9591106385924
1711327389036,-364.119978309609
1711327389075,-362.06595431640744
1711327389116,-521.0163394110277
1711327389155,-359.4857199108228
1711327389196,-1095.4237543307245
1711327389237,-1196.752152252011
1711327389276,-1078.7739721899852
1711327389316,-902.0472203344107
1711327389356,-1009.8562147719786
1711327389396,-564.091786778532
1711327389437,-71.49553334806114
1711327389476,-960.9209163286723
1711327389516,985.7139091202989
1711327389557,1662.2008587047458
1711327389597,1524.9799203770235
1711327389637,929.2759180432186
1711327389677,-596.7726959716529
1711327389717,283.3171112360433
1711327389757,2420.4447348546237
1711327389797,1848.603821103461
1711327389838,-46.46938065858558
1711327389877,-427.8487025452778
1711327389917,2334.6489826119505
1711327389958,3838.9749425975606
1711327389998,92.2422180227004
1711327390038,-684.3072263877839
1711327390078,1889.1965200658888
1711327390118,2543.1620398126543
1711327390158,1351.2320379805751
1711327390198,-306.4685672149062
1711327390239,-667.8593019442633
1711327390278,-259.55379456747323
1711327390319,1657.8772143884562
1711327390359,1849.9098400734365
1711327390399,-144.2493702750653
1711327390440,-1763.107661344111
1711327390479,-126.83732644375414
1711327390519,1154.8285714359954
1711327390559,2715.7151630651206
1711327390599,1905.3690146841109
1711327390640,-43.51218134444207
1711327390679,-746.6371897039935
1711327390719,-45.89498672541231
1711327390759,2073.5760965356603
1711327390800,1392.6973574454896
1711327390840,-146.43039385508746
1711327390880,269.5853690239601
1711327390920,1162.8801091732457
1711327390960,3071.665401724167
1711327391000,2621.764482382685
1711327391041,130.3394220098853
1711327391080,389.8331071040593
1711327391121,2145.724607498385
1711327391161,2876.279877658002
1711327391201,1002.6780227841809
1711327391242,-509.62166284257546
1711327391281,2482.830836588517
1711327391321,3292.3951048040763
1711327391361,935.5429574204609
1711327391401,-152.27397861890495
1711327391442,829.2235745256767
1711327391482,3030.4391811881214
1711327391522,3443.922626035288
1711327391562,2895.669628629461
1711327391602,1303.4206551238894
1711327391643,790.7753086267039
1711327391682,2676.5656673135236
1711327391722,3506.497972296085
1711327391763,2215.561162185855
1711327391802,1320.364986833185
1711327391843,1750.9460921203718
1711327391883,4846.36977287801
1711327391923,5111.0407087393105
1711327391963,3033.0840632324107
1711327392003,2245.9227028926834
1711327392044,1520.8316037887707
1711327392083,2249.615628096275
1711327392124,2282.593140787445
1711327392164,2610.4859197763726
1711327392204,1811.6008967417292
1711327392245,258.3580164927989
1711327392284,159.53889251314104
1711327392324,190.64714155113325
1711327392364,2404.8736165696755
1711327392404,4155.095076746307
1711327392445,3212.640240913257
1711327392485,830.9004877097905
1711327392525,542.9475181978196
1711327392565,1271.1557472161949
1711327392605,1720.9348551919684
1711327392646,3249.317289168015
1711327392685,2346.385681886226
1711327392725,2177.0192565894686
1711327392765,1500.9863524637185
1711327392806,949.6832969635725
1711327392846,1253.6487748562358
1711327392886,954.267898734659
1711327392926,785.7658458091319
1711327392966,694.346413503401
1711327393006,787.7316032126546
1711327393047,1405.5400253692642
1711327393086,1760.587879601866
1711327393126,-886.1863050181419
1711327393167,-3966.121120110154
1711327393207,-2595.4197111167014
1711327393247,966.8432429078966
1711327393287,1278.1861870964058
1711327393327,1307.9327130969614
1711327393367,764.839889511466
1711327393407,1530.69756813813
1711327393448,1450.5964157734998
1711327393488,2342.4868819424883
1711327393528,2943.3802373535
1711327393568,2946.4422809151
1711327393608,2698.4097581310198
1711327393649,1505.5368511946872
1711327393688,334.76225468330085
1711327393728,887.7626850577071
1711327393768,1688.9382148114964
1711327393809,1228.6634650286287
1711327393849,1274.4482774627395
1711327393889,934.9595145713538
1711327393929,186.2279395321384
1711327393969,639.1241255239584
1711327394009,780.0270005650818
1711327394050,120.35801955126226
1711327394089,412.7023028265685
1711327394129,627.685784643516
1711327394169,177.48705105204135
1711327394209,-116.60710168769583
1711327394250,168.33247641613707
1711327394290,-130.43809267040342
1711327394330,-626.6766557875089
1711327394370,-528.3263703011908
1711327394410,87.21701097674668
1711327394451,143.4633383397013
1711327394490,164.02504425588995
1711327394530,-333.46100939577445
1711327394570,6.668571938760579
1711327394610,-569.8996227886528
1711327394651,53.50215471582487
1711327394690,574.1623158771545
1711327394731,-1693.1377162793651
1711327394771,-1990.0351317916065
1711327394811,-1053.8490908099338
1711327394852,-317.792094043456
1711327394891,-177.0950160184875
1711327394931,-1157.7125340546481
1711327394971,-1454.2668494437821
1711327395011,-1373.6383170131594
1711327395052,-119.91703759972006
1711327395091,1278.950983159244
1711327395132,206.3711977461353
1711327395172,-38.028362065553665
1711327395212,-759.7501281350851
1711327395253,-335.85828317701817
1711327395292,-33.26419859845191
1711327395332,1093.2241183584556
1711327395372,864.5959371090867
1711327395412,22.49308375362307
1711327395453,241.36238719988614
1711327395492,1081.7454130048864
1711327395532,953.472614934668
1711327395573,956.3462368929759
1711327395613,953.7465696404688
1711327395653,276.6525667165406
1711327395693,727.5917090876028
1711327395733,622.4340873816982
1711327395773,1087.0146215013228
1711327395813,1121.178746030666
1711327395854,1151.8735050540417
1711327395893,1213.201936777681
1711327395933,471.7267698892392
1711327395974,-368.4455435555428
1711327396014,2073.598638821859
1711327396054,2769.9996419432573
1711327396094,2936.806465149857
1711327396134,1937.2372422879562
1711327396174,2206.161327270791
1711327396214,2709.2615781119093
1711327396255,2144.24227688089
1711327396294,2022.1062710839324
1711327396335,1754.8299133302644
1711327396375,984.5159372896887
1711327396415,1435.3827555486932
1711327396456,1967.6306314351968
1711327396495,1551.6316637089476
1711327396535,1742.823053425178
1711327396575,1427.2190481382422
1711327396615,1169.7381537612528
1711327396656,1171.0116281304508
1711327396696,1017.1092763002962
1711327396736,429.4638837398961
1711327396776,-418.2040795031935
1711327396816,-1158.622799007222
1711327396857,-840.0254141073674
1711327396896,-639.8407492469996
1711327396936,295.130392214749
1711327396976,-665.5544107742608
1711327397017,-30.530985068529844
1711327397058,3.9294405169785023
1711327397097,-50.85753863025457
1711327397137,10.892794917803258
1711327397177,278.1295261546038
1711327397217,-63.546003432013094
1711327397258,-314.68372136028484
1711327397298,-36.10133125260472
1711327397338,-43.29949585068971
1711327397378,-313.34294625138864
1711327397418,-66.93401393154636
1711327397459,4.615073806606233
1711327397498,409.5036246520467
1711327397538,-99.18542325729504
1711327397578,-692.7326312437654
1711327397618,-729.3376512574032
1711327397659,-580.2090464048088
1711327397698,-851.2990531520918
1711327397739,-897.4113376005553
1711327397779,-12.736368966288865
1711327397819,-266.49368340242654
1711327397860,69.61804979294538
1711327397899,-447.14579257182777
1711327397939,-143.62802109634504
1711327397979,308.60422728722915
1711327398020,748.9751753024757
1711327398060,1045.56322974246
1711327398100,1815.1027526240796
1711327398140,2044.9838777706027
1711327398180,2244.04007916525
1711327398220,1933.540588625241
1711327398261,2210.0450680609792
1711327398300,1972.2645185394213
1711327398340,1283.4139267695136
1711327398381,839.4093771679327
1711327398421,612.7084405873902
1711327398461,750.3683109208941
1711327398501,659.8309191050939
1711327398541,1199.4208761784248
1711327398580,1174.3053346723318
1711327398620,1444.2254537460394
1711327398661,1367.88608015934
1711327398700,1352.983495157212
1711327398741,1394.1735771754757
1711327398781,390.7769132507965
1711327398821,1181.5519917774945
1711327398862,1553.4364094892517
1711327398901,1253.155657931231
1711327398941,1298.621014510747
1711327398981,1536.5574700892903
1711327399021,1820.475764291361
1711327399062,1427.8598000472412
1711327399102,1352.585316666402
1711327399142,795.4890565988608
1711327399182,1605.585860447958
1711327399222,1474.8848269032314
1711327399263,1741.8024126496166
1711327399302,986.0087090265006
1711327399342,1271.0248165391386
1711327399382,1092.9336067503318
1711327399422,1516.2325300020166
1711327399463,1715.5220695342869
1711327399503,573.4057936631143
1711327399543,-415.50802294071764
1711327399583,515.2014205651358
1711327399623,87.22059463057667
1711327399664,1377.0887524471618
1711327399703,559.257211622782
1711327399743,657.3356185369194
1711327399783,1633.3415589565411
1711327399824,1183.513883822132
1711327399864,801.62843943201
1711327399904,-286.3663915893994
1711327399944,-625.1967881210148
1711327399984,-865.094377476722
1711327400024,-994.0465790871531
1711327400065,-691.8021769444458
1711327400105,-975.3937968830578
1711327400145,-891.7369776731357
1711327400185,-289.8556502372958
1711327400225,-170.07465238124132
1711327400266,-667.6984412013553
1711327400305,-538.9605350038037
1711327400345,-356.3881022995338
1711327400385,-255.65961592830718
1711327400426,42.39054950885475
1711327400466,-136.54400826105848
1711327400506,-724.1402068557218
1711327400546,-1048.806256884709
1711327400586,-431.62598399538547
1711327400626,-1011.9091506740078
1711327400667,-1945.6463941941038
1711327400706,-2379.448552677408
1711327400747,-2258.6900998922065
1711327400787,-1313.726946924813
1711327400827,-39.47580102970824
1711327400868,-1168.173966448754
1711327400907,70.27801644615829
1711327400947,-151.47809342760593
1711327400987,86.25719944713637
1711327401027,-920.4031070852652
1711327401068,-606.0521459085867
1711327401107,100.25447018956766
1711327401148,-1319.05237620743
1711327401187,-292.91130687622353
1711327401227,103.12920638173819
1711327401268,207.64860972715542
1711327401308,-3.582212058827281
1711327401348,722.2779274438508
1711327401388,922.3574881530367
1711327401428,-408.27331014350057
1711327401469,-865.6857214169577
1711327401508,-903.762802219484
1711327401548,-636.514910556376
1711327401588,-933.2656344240531
1711327401629,-174.24194604624063
1711327401669,-327.07944155018777
1711327401709,-1356.8983987304382
1711327401749,-1722.4658235916868
1711327401789,-960.4351703450084
1711327401829,-2141.8620645208284
1711327401870,-1046.486798514612
1711327401909,-1176.9698438858613
1711327401949,-1028.596749028191
1711327401989,-499.0445910622366
1711327402029,-986.120444258675
1711327402070,-733.1513058925048
1711327402110,-727.0795735623688
1711327402150,-776.9173306245357
1711327402190,-1667.2145095746964
1711327402230,-2042.1166805070825
1711327402271,-1490.8907364266925
1711327402310,-723.0524964281358
1711327402350,-1632.302409878932
1711327402390,-2173.6129288822412
1711327402430,-1090.3995642252266
1711327402471,-1416.2220379300416
1711327402511,-1549.0497587327845
1711327402551,-854.3427300443873
1711327402591,110.3019897211343
1711327402631,13.189069916959852
1711327402672,-121.2937799692154
1711327402711,-422.62782060727477
1711327402751,145.58376364782453
1711327402791,321.380608079955
1711327402831,903.6335020465776
1711327402872,1196.6988618811592
1711327402912,6.161103826481849
1711327402952,135.24789366591722
1711327402992,1201.3501188065857
1711327403032,1243.6507858457044
1711327403073,1052.882215523161
1711327403112,2150.123677079566
1711327403152,1279.9239559336565
1711327403192,1485.7593535566702
1711327403232,1684.4469920145348
1711327403273,1594.7383560016751
1711327403312,1657.966257353779
1711327403352,1550.5980587801896
1711327403392,1415.3106698626652
1711327403433,1346.2515050829388
1711327403473,1576.5567072308622
1711327403513,1614.7490838533267
1711327403553,1195.7269092435017
1711327403593,1299.3076200908981
1711327403633,989.3542695585638
1711327403674,1200.0520307226107
1711327403713,1296.0739805083722
1711327403753,994.4608595259488
1711327403794,1260.7937164232135
1711327403834,1007.8786254003644
1711327403874,633.2175296209753
1711327403914,729.7385666165501
1711327403954,936.7508773971349
1711327403994,1579.6534046665765
1711327404034,1765.613148261793
1711327404075,1218.238462052308
1711327404114,1070.9119379036129
1711327404154,1205.5355800557882
1711327404194,1683.4015202363953
1711327404234,1217.2797177606262
1711327404275,697.9801313290372
1711327404315,-502.8937150561251
1711327404355,-1058.8444985821843
1711327404395,-1723.267092634458
1711327404435,-2128.930806569755
1711327404476,-1484.167541614268
1711327404515,-1089.973120986484
1711327404555,-1158.0893809641711
1711327404595,-1088.008078740444
1711327404636,-784.3387002055533
1711327404676,-360.31146817747504
1711327404716,-318.3799199378118
1711327404756,-594.9045592080802
1711327404796,-480.954994475469
1711327404836,-349.163116034586
1711327404877,-184.66853513522074
1711327404916,-141.67279450036585
1711327404956,-206.23369030328467
1711327404997,245.8601908236742
1711327405036,416.31513795023784
1711327405077,-1353.9003343358636
1711327405117,-2822.7994001377374
1711327405157,-3651.788160976488
1711327405197,-4131.171056305058
1711327405237,-3705.49323066324
1711327405278,-2842.1200069058686
1711327405317,-2557.3708415003493
1711327405357,-1539.1412026206963
1711327405397,-1137.376357479021
1711327405437,-1068.9717378569767
1711327405478,-598.5185608761385
1711327405518,-781.8965544751845
1711327405558,-700.1835936843418
1711327405598,-511.12268215138465
1711327405638,-208.82819306338206
1711327405679,82.71988657396287
1711327405718,468.95573895517737
1711327405758,625.1914042257704
1711327405798,925.6448537353426
1711327405839,1831.688247117214
1711327405879,1025.6929699862376
1711327405919,-3878.242819873616
1711327405959,-9030.192187327892
1711327405999,-10795.72498746775
1711327406039,-10867.762857532129
1711327406080,-10037.270733505022
1711327406119,-9036.198741360568
1711327406159,-7721.501024321653
1711327406200,-6783.954221753869
1711327406240,-5975.501889960375
1711327406281,-4150.595685310662
1711327406320,-2999.224044128321
1711327406360,-1645.0745589812286
1711327406400,-962.132283101324
1711327406440,122.26854969607666
1711327406481,912.6723182061687
1711327406520,1774.320266730152
1711327406561,2183.019141434692
1711327406601,2303.6724291294813
1711327406641,2164.619409268722
1711327406682,1758.6680096071213
1711327406721,2339.756658977829
1711327406761,1231.8130456572399
1711327406801,-1081.0755752255209
1711327406841,-2758.915952363983
1711327406882,-2697.8318199515343
1711327406922,-2041.8927659122273
1711327406962,-510.2512948382646
1711327407002,142.06476941285655
1711327407042,-38.2974827545695
1711327407083,470.87881894549355
1711327407122,202.59153144760057
1711327407162,1315.513734197244
1711327407202,1764.459620708134
1711327407242,1541.54435461713
1711327407283,1631.1212131446227
1711327407323,1963.9600606895983
1711327407363,1227.4793139994144
1711327407403,1161.1776813473552
1711327407443,1563.0835555195808
1711327407484,2061.4255108460784
1711327407524,1785.4736687494442
1711327407564,-1247.1803394309245
1711327407604,-4086.5991644253954
1711327407644,-5391.879166621715
1711327407685,-4733.131367833354
1711327407724,-4484.187164237257
1711327407764,-3128.499735666439
1711327407804,-2420.525752249174
1711327407845,-1823.0074850236997
1711327407885,-1128.1844835225493
1711327407925,-107.01016105012968
1711327407965,387.64299404714257
1711327408005,833.4463194105774
1711327408045,913.8462294023484
1711327408086,947.9341954318807
1711327408126,1860.0472334325314
1711327408166,2196.981324845925
1711327408206,2081.758518151939
1711327408246,2192.988509677816
1711327408287,2638.180925858207
1711327408326,3161.1368716834113
1711327408366,288.74114931654185
1711327408406,-4675.259156825952
1711327408446,-4865.029798667412
1711327408487,-4600.822853076737
1711327408526,-4495.277472531889
1711327408566,-3047.820759453345
1711327408607,-3052.9749057767913
1711327408647,-2069.6200005174614
1711327408687,-1345.4592068716884
1711327408727,-895.8768270649016
1711327408767,-217.0053244382143
1711327408807,341.4311962481588
1711327408847,1595.542859193869
1711327408888,1338.8912664330564
1711327408927,1012.7903578416444
1711327408967,1206.8852132940665
1711327409007,2142.354446122423
1711327409048,2116.4711194937117
1711327409088,2081.895222898107
1711327409128,866.1052856375463
1711327409168,-2729.0468055512756
1711327409208,-4651.3051563217305
1711327409248,-4279.516274350695
1711327409289,-3767.3743396275677
1711327409328,-2826.3820959096774
1711327409368,-1652.971562362276
1711327409408,-910.8343933457509
1711327409449,-197.72240870352834
1711327409489,664.7010465380736
1711327409529,473.93249098490924
1711327409569,1051.5171569166705
1711327409609,1342.8962545506656
1711327409649,2498.7010473310947
1711327409690,2240.563792077359
1711327409729,2449.258966610767
1711327409769,3220.3211170872673
1711327409810,4092.881754123606
1711327409850,3696.957575760316
1711327409890,3898.8659303970635
1711327409930,3812.3384746806696
1711327409970,2064.460572294425
1711327410010,-1550.5933598047122
1711327410050,-2438.493216911331
1711327410091,-2799.062017032411
1711327410130,-436.60969165479764
1711327410170,1398.9924260023981
1711327410210,1021.9100632430054
1711327410250,1160.0145279504359
1711327410291,432.836408207193
1711327410331,1142.62168804463
1711327410371,2120.6882926328108
1711327410411,3213.260493155103
1711327410451,3584.328179957345
1711327410492,3500.5125968395732
1711327410531,2422.9822863126174
1711327410571,2213.3945733318105
1711327410611,2506.705301415175
1711327410651,2970.949826228898
1711327410692,3247.070544290822
1711327410732,2760.001638504211
1711327410772,2296.2550781210884
1711327410812,3353.4533420922235
1711327410852,3272.022664588876
1711327410893,2895.039160635788
1711327410932,2190.9275173721835
1711327410972,2401.8806442748755
1711327411012,2767.8484419444576
1711327411052,1872.365048875101
1711327411093,2846.559394877404
1711327411133,3793.3573983460665
1711327411173,4748.984370022081
1711327411213,3749.2070805593394
1711327411253,3118.6447205902077
1711327411294,3089.9601975311525
1711327411333,3275.6246646409854
1711327411373,4000.7175865359604
1711327411413,1887.172348136548
1711327411453,513.002517959103
1711327411494,2486.369335410185
1711327411534,2363.3941495367326
1711327411574,3724.870657792315
1711327411614,2814.0961738163605
1711327411654,644.814852766227
1711327411695,-291.2224528193474
1711327411734,-478.51247841352597
1711327411774,71.93599593779072
1711327411814,1815.3210444343276
1711327411854,2948.2805021773092
1711327411895,2822.329221161548
1711327411935,2499.7781759332865
1711327411975,2421.4009473747574
1711327412015,2231.8431878350675
1711327412055,2362.682190591935
1711327412096,705.8299285303801
1711327412135,769.7863203319721
1711327412175,1042.1300737317652
1711327412215,1522.0520853437483
1711327412255,1442.7388542769477
1711327412296,1850.5769209596328
1711327412336,2001.8622459294274
1711327412376,1633.0720996824093
1711327412416,576.9363948190585
1711327412456,-1682.0388009678572
1711327412497,-1904.9680689978413
1711327412536,-536.1412942986935
1711327412576,-192.60732554737478
1711327412616,-191.10388034116477
1711327412657,466.83967947913334
1711327412697,1194.616573899053
1711327412737,2130.3529700180516
1711327412777,1721.547566184774
1711327412817,2439.0127032734454
1711327412857,1788.5440135626122
1711327412898,1714.9393223328516
1711327412937,2002.102079499513
1711327412977,1789.7513506454416
1711327413017,1663.4767581494525
1711327413058,1303.8179275989532
1711327413098,698.1754186064936
1711327413138,298.87443797197193
1711327413178,103.2577292425558
1711327413218,-154.70562679227442
1711327413258,-1429.2778797736391
1711327413299,-2228.543109461665
1711327413338,-1796.7687841169536
1711327413378,-779.3667193399742
1711327413419,-144.96433749934658
1711327413459,532.4706965577789
1711327413499,819.3347930675372
1711327413539,836.6425922093913
1711327413579,1008.7469470533542
1711327413619,1678.1657246388495
1711327413659,1382.8674111226574
1711327413700,1336.5863888962194
1711327413739,1373.5731666898355
1711327413780,1117.8845849363133
1711327413820,731.3008167929947
1711327413860,1214.9758274643682
1711327413901,1394.7172260209918
1711327413940,1533.3552196631208
1711327413980,1085.7979543884285
1711327414020,703.3404933903366
1711327414060,-1333.330768322572
1711327414101,-2269.179742707871
1711327414141,-1657.4464308414608
1711327414180,-1563.5599620714784
1711327414221,-1239.186488268897
1711327414261,-466.8563196323812
1711327414302,-241.2073982404545
1711327414341,28.064220895525068
1711327414381,1760.6353952363133
1711327414421,1963.1114922370762
1711327414461,1065.241302783601
1711327414502,400.2127690636553
1711327414542,1614.4091362846084
1711327414582,2603.469983233139
1711327414622,2488.148494067602
1711327414662,1574.129969435744
1711327414703,1403.42150837183
1711327414742,1811.362708692439
1711327414782,1786.0277987439185
1711327414822,2051.3071269327775
1711327414863,178.49079882819206
1711327414903,-1723.1146379876882
1711327414943,-1625.4034042526037
1711327414983,-565.384441443719
1711327415023,-106.96541960444301
1711327415063,956.2181285624392
1711327415104,516.6518207164481
1711327415143,1034.5164487352595
1711327415184,1619.700962388888
1711327415224,1481.7787279351614
1711327415264,1751.2714752377942
1711327415305,1452.5796219389886
1711327415344,1882.4686596943066
1711327415384,1796.3300694492646
1711327415424,1668.0747645767406
1711327415465,2192.382600315381
1711327415505,2547.849630967714
1711327415545,2796.100496302359
1711327415585,2636.0252726720646
1711327415625,2966.3331520324573
1711327415665,6.060711589641869
1711327415706,-1301.1681848592125
1711327415745,266.68449563905597
1711327415785,1165.3376123830676
1711327415826,237.26068201009184
1711327415866,76.77897067461163
1711327415906,131.50254823965952
1711327415946,979.985344410874
1711327415986,712.0839088782668
1711327416026,430.26678348658606
1711327416066,970.2103967992589
1711327416107,879.6538274539635
1711327416146,1101.539866390638
1711327416186,2012.9090457512066
1711327416226,2175.2551553105004
1711327416266,1687.4951133579016
1711327416307,1537.8085122443736
1711327416347,1872.7029030607082
1711327416387,2071.4304287475534
1711327416427,1539.17612315109
1711327416467,734.4754943288863
1711327416508,-1148.8473237715662
1711327416547,-1587.660797077231
1711327416587,-1140.8381475023925
1711327416627,-752.9306618515402
1711327416667,-668.5832658531144
1711327416708,-239.94597192574292
1711327416747,-33.50184983573854
1711327416788,21.510200703516603
1711327416828,185.40965702943504
1711327416868,974.7256370405667
1711327416909,1217.9259724668227
1711327416948,1091.149689306505
1711327416988,1683.223060659133
1711327417028,1130.9942770837806
1711327417068,1474.1323125492781
1711327417109,1459.217486226
1711327417148,1445.1596253751777
1711327417188,1499.474921262823
1711327417229,1419.770957769826
1711327417269,2162.608228054829
1711327417309,681.4016702622175
1711327417349,-1378.84942833893
1711327417389,-1458.9038726920262
1711327417429,-1179.4799882415682
1711327417469,-961.2587214950472
1711327417510,-157.4962921035476
1711327417549,136.13199912616983
1711327417589,835.6868060529232
1711327417630,769.2992642647587
1711327417670,1370.7689235797152
1711327417710,1717.7297571189702
1711327417750,1040.0683288853616
1711327417790,1111.6858169096522
1711327417830,702.5452179694548
1711327417870,443.80107609694824
1711327417911,958.5825282065198
1711327417950,938.367443700321
1711327417990,1049.1639186292887
1711327418030,1471.2597972257063
1711327418070,1699.8985105613247
1711327418111,-241.88754926621914
1711327418150,-2334.580406504683
1711327418191,-3082.1533556384966
1711327418231,-2318.5117308627814
1711327418271,-2033.4346895464696
1711327418311,-1604.9072351339273
1711327418351,-742.5106298616156
1711327418391,-175.9403029838577
1711327418431,-253.27380140963942
1711327418471,350.4659795733169
1711327418512,-138.9564954843372
1711327418551,166.24941763980314
1711327418592,456.2872475772165
1711327418632,1062.7554157907143
1711327418672,727.8535023191944
1711327418713,998.9072127300315
1711327418752,1093.6078936001286
1711327418792,1151.255633498542
1711327418832,650.2176389992237
1711327418872,161.68558026617393
1711327418913,-1329.0829609641805
1711327418953,-3578.1239702031016
1711327418992,-4073.1136187361553
1711327419033,-3927.8272038456053
1711327419073,-3302.669892832637
1711327419113,-2034.0690695885569
1711327419153,-1138.0492517016828
1711327419193,-982.4214452416636
1711327419233,85.68621010472998
1711327419273,970.3356847232208
1711327419314,518.2041450557299
1711327419353,824.1551131717861
1711327419393,2249.5752671617083
1711327419434,2194.1072591864504
1711327419474,2304.9791823187843
1711327419514,2294.6527649997734
1711327419554,2252.7582011679187
1711327419594,3062.072182219941
1711327419634,3090.5669010663405
1711327419674,3481.2522609317675
1711327419715,1592.8404962839559
1711327419754,-1697.1323817055672
1711327419795,-4056.0296781649813
1711327419835,-5295.30566102732
1711327419875,-5407.929409031291
1711327419916,-5115.026217749342
1711327419955,-3270.787254625
1711327419995,-2328.9041459122673
1711327420035,-2421.0447681499645
1711327420075,-1403.4180878428742
1711327420116,555.4081899989396
1711327420156,1646.0004622293636
1711327420196,1337.0510706333444
1711327420236,1264.274588660337
1711327420276,1493.3143401145935
1711327420317,2376.7523806090467
1711327420356,1823.66177211795
1711327420396,2304.3765446334146
1711327420436,1542.1157508622855
1711327420476,1253.2461685845628
1711327420517,1057.2481582770124
1711327420556,-2613.197828168981
1711327420597,-5053.364898651838
1711327420637,-5615.004132305272
1711327420677,-5651.620755220298
1711327420718,-4607.643267077394
1711327420757,-4127.026856082026
1711327420797,-3187.9567596940324
1711327420837,-2439.5382006596774
1711327420878,-1815.9141533486545
1711327420918,-1326.8345490517095
1711327420958,-836.9484047801234
1711327420998,733.0050359750167
1711327421038,1301.2464104583487
1711327421078,2871.0174225564115
1711327421119,2984.150990000926
1711327421158,2852.3878700775094
1711327421198,3117.144690570887
1711327421238,2478.0493511110544
1711327421278,2348.5607089754194
1711327421319,3382.940741162747
1711327421359,1365.499233730603
1711327421399,-1465.3934132214636
1711327421439,-1958.937023005914
1711327421479,-1466.805553817656
1711327421520,-373.3470374783501
1711327421559,-340.87401875900105
1711327421600,-578.0260515864938
1711327421640,169.64449708163738
1711327421680,362.59444413986057
1711327421721,1624.2740047504194
1711327421760,2177.5526181682944
1711327421800,1555.2673720521852
1711327421840,1768.5327970893122
1711327421880,1868.3655293965712
1711327421921,2087.360343243461
1711327421961,1907.23793164175
1711327422001,1739.1437018807046
1711327422041,2123.890081758611
1711327422081,2371.7704902100377
1711327422122,1557.011579239741
1711327422161,-516.3663941137493
1711327422202,-1343.4938953658566
1711327422241,-1564.189620184712
1711327422282,-1401.4391324985772
1711327422323,-711.3074687225744
1711327422362,-277.0702452864498
1711327422402,153.33840238442644
1711327422442,276.6631137682125
1711327422482,614.616213104222
1711327422523,914.576961482875
1711327422563,1096.1523468908854
1711327422603,692.1347997114062
1711327422645,929.2479219022207
1711327422685,1155.1708758892491
1711327422726,783.5298089096323
1711327422765,878.8091315091588
1711327422805,371.02291242498904
1711327422845,1602.5406750524417
1711327422886,1136.1255313307047
1711327422927,-590.9441517060623
1711327422966,-1157.9853009972721
1711327423006,-1031.6900282208808
1711327423046,-589.7740612546913
1711327423086,264.39845957700163
1711327423127,1216.5539718791842
1711327423167,1900.192952436395
1711327423207,2260.475845850073
1711327423247,2848.1987539012916
1711327423287,3241.9074835968204
1711327423328,2949.8368236068636
1711327423367,2991.882633236237
1711327423407,3445.110469858162
1711327423447,3286.1656298507005
1711327423487,3146.314991652034
1711327423528,2972.1973082646728
1711327423567,3145.1754527040757
1711327423608,3274.467672435567
1711327423648,2318.599131723866
1711327423688,278.26624779589474
1711327423729,-309.29107918869704
1711327423768,-473.25728389341384
1711327423808,-196.54641388636082
1711327423848,303.389664710965
1711327423888,980.7046170439571
1711327423929,1591.1127876443788
1711327423968,1682.2262849672697
1711327424009,2182.090513515286
1711327424049,2654.171325158328
1711327424089,3531.192123619374
1711327424130,3050.8683494366705
1711327424169,3383.2552353604697
1711327424209,2668.1176042128354
1711327424249,2599.210618466139
1711327424289,2751.545010436792
1711327424330,1935.7372111096047
1711327424370,2112.0443448703736
1711327424410,1550.384128156118
1711327424450,1286.1812853338197
1711327424490,-1548.3554483894259
1711327424531,-3017.3597987694666
1711327424570,-3468.223702848889
1711327424610,-3034.9769082749262
1711327424650,-2871.5059912065044
1711327424690,-2352.8407798800617
1711327424731,-2041.0540875764564
1711327424771,-1409.8532757638022
1711327424811,-1319.8835201677866
1711327424851,-1240.157254380174
1711327424891,-1200.5104520027526
1711327424932,-1309.8614829592407
1711327424971,-1281.9779075160623
1711327425011,-784.6886962046847
1711327425051,-441.71145748440176
1711327425092,-771.5793951135129
1711327425132,-581.1915739476681
1711327425172,-641.3746278369799
1711327425212,-916.6244722432457
1711327425252,-314.19695162959397
1711327425292,152.16475298907608
1711327425333,-939.6263710227795
1711327425372,-2492.9356966279447
1711327425412,-2394.1911525512114
1711327425452,-2305.52092250064
1711327425492,-1623.822792218998
1711327425533,-1447.6661576586775
1711327425573,-1155.572356642224
1711327425613,-244.10714267380536
1711327425653,-284.40376055426896
1711327425693,152.99055961612612
1711327425734,489.6458718823269
1711327425773,718.3305277470499
1711327425813,974.9335793592036
1711327425853,1499.639109488111
1711327425894,1773.6344288480468
1711327425935,1919.3313926942647
1711327425974,1833.1042283643037
1711327426014,2142.270674975589
1711327426054,1571.4742234414443
1711327426094,2156.9159058178775
1711327426135,1108.2291894685477
1711327426174,315.1795488637872
1711327426215,384.90471315942705
1711327426255,859.3687828043476
1711327426295,1138.672371323686
1711327426335,639.848830810748
1711327426375,741.5587528655306
1711327426415,447.6489916606806
1711327426455,675.0835351548158
1711327426495,829.1169718103483
1711327426536,813.0282217841595
1711327426576,622.1187400263734
1711327426616,547.798391119577
1711327426656,855.8127655074932
1711327426696,519.9268499379978
1711327426737,450.66251890175045
1711327426776,431.52997103706
1711327426816,904.8818030841649
1711327426856,848.8256221157499
1711327426897,330.78206593357027
1711327426937,-807.703749069944
1711327426977,-1494.601268474944
1711327427017,-2121.7792496923357
1711327427057,-1772.9016699460335
1711327427097,-1695.641105900053
1711327427138,-1031.6068509076722
1711327427177,-863.5673505272716
1711327427217,-366.58185461722314
1711327427258,-239.83702041953802
1711327427298,-58.64692162536085
1711327427339,871.3432907424867
1711327427378,1162.421660786029
1711327427418,1210.8738951534033
1711327427458,703.8488510674797
1711327427499,972.6918066963553
1711327427539,500.4865733999759
1711327427579,276.5349372001365
1711327427619,463.9053008891642
1711327427659,995.2187870061025
1711327427699,1125.8621883043088
1711327427740,-469.99152086721733
1711327427779,-1433.91554696206
1711327427819,-2075.6966609624214
1711327427860,-1754.7211520290002
1711327427900,-1497.5997324218042
1711327427940,-840.1167367142625
1711327427980,-227.61638582777232
1711327428020,181.73134001437575
1711327428060,586.2006947165355
1711327428100,953.7782388250344
1711327428141,996.8398071043193
1711327428180,1176.6898620231077
1711327428221,895.1894535794854
1711327428261,947.9079685285687
1711327428301,1260.1893778378144
1711327428342,1454.5869423910044
1711327428381,1969.2655595690012
1711327428421,1923.6497124191374
1711327428461,2298.441404734738
1711327428501,1968.177392641548
1711327428542,1913.9888007757254
1711327428582,513.1468939315528
1711327428622,-772.4171339133754
1711327428662,-1284.7270606653765
1711327428702,-902.6471958961338
1711327428743,-451.14764268137515
1711327428782,-757.0525427395478
1711327428823,-61.82660059351474
1711327428862,675.9460289524868
1711327428903,1386.089851571247
1711327428944,1139.608575257007
1711327428983,936.7370803910308
1711327429023,1731.764503385406
1711327429063,1893.4444752605632
1711327429103,1818.8712747287937
1711327429144,1181.7266001370735
1711327429184,1787.1307230936363
1711327429224,1754.2830308014527
1711327429264,1938.4150044228882
1711327429304,1897.390608098358
1711327429345,2269.9646662175655
1711327429384,1503.6438249126077
1711327429424,608.4474081262015
1711327429464,-462.4932957403362
1711327429504,-325.1045892946422
1711327429546,110.6024569296278
1711327429585,-275.31497603841126
1711327429625,74.0906957089901
1711327429665,355.4049990735948
1711327429705,-143.54023411264643
1711327429746,-461.87053213408217
1711327429786,-46.10037396894768
1711327429826,-37.683462620247155
1711327429866,-246.0782502098009
1711327429906,-414.25342632224783
1711327429947,-364.89163071429357
1711327429986,-251.3493209243752
1711327430027,-387.2736343354918
1711327430067,615.7327216286212
1711327430107,-18.74638364929706
1711327430148,-392.3777341712266
1711327430187,-621.5427549141459
1711327430227,41.01801413856447
1711327430267,-1115.4276672336273
1711327430307,-1957.3065926511772
1711327430348,-2564.314770656638
1711327430387,-1908.8644790099934
1711327430427,-1423.9303536973894
1711327430467,-965.0308429216966
1711327430508,-528.0883905775845
1711327430548,-707.4811882958747
1711327430588,-42.78119496721774
1711327430628,-661.297934777569
1711327430668,-694.9160776720382
1711327430708,86.6250913143158
1711327430749,-280.7539610005915
1711327430788,-530.8535834541544
1711327430828,-380.6690496765077
1711327430868,228.27702726284042
1711327430908,-640.4080581534654
1711327430949,-781.9265892533585
1711327430989,-145.45095017831773
1711327431029,455.5675553577021
1711327431069,492.0258358325809
1711327431109,324.4701155759394
1711327431150,-187.29487099358812
1711327431189,-78.5433346554637
1711327431229,268.8348493142985
1711327431269,546.1479083406739
1711327431309,1110.4656660486944
1711327431350,560.7271046447568
1711327431390,847.3654728187248
1711327431430,2004.9267470920458
1711327431470,1935.2650844836608
1711327431510,1575.2126400563866
1711327431551,1437.3028910011053
1711327431590,1838.9968935018405
1711327431630,1793.6921765068546
1711327431670,1771.1370610836893
1711327431711,1831.4373890422285
1711327431751,1114.7575129903853
1711327431791,1295.57885508053
1711327431831,1973.4886707472615
1711327431871,2566.952143511735
1711327431911,2297.4876541551203
1711327431952,752.7465469026938
1711327431991,-121.49632551334798
1711327432031,870.0446727657691
1711327432072,461.3220299081877
1711327432112,1437.7347616581246
1711327432152,1711.5246455199085
1711327432192,2117.5170100126415
1711327432232,862.6582507439889
1711327432272,1391.3891932871193
1711327432312,907.5865469826385
1711327432353,763.0160562293604
1711327432392,1035.03164052777
1711327432432,1565.8327910322696
1711327432472,2483.2277949992567
1711327432512,1883.2591924010776
1711327432553,1585.9577976958826
1711327432593,1507.3437104839832
1711327432633,1474.9597175852396
1711327432673,1167.4117697142065
1711327432713,376.3524347404018
1711327432754,329.6052487860434
1711327432793,673.3289411491714
1711327432833,564.4795612646267
1711327432873,232.85013852873817
1711327432914,790.1000296170823
1711327432954,637.0613388856873
1711327432994,335.2124406658113
1711327433034,848.650139158126
1711327433074,334.9177137459628
1711327433114,-261.35475978115574
1711327433155,-1270.4994196873158
1711327433194,-467.1411946779117
1711327433235,1199.3763499553315
1711327433275,1255.2319490015507
1711327433315,1799.0366678414866
1711327433356,2329.9602764449082
1711327433395,1320.1673951125704
1711327433435,359.1289286306128
1711327433475,690.5240089106373
1711327433516,1691.864789918065
1711327433556,1204.7373758382164
1711327433596,1358.0382827436551
1711327433636,1665.3632990429178
1711327433676,1376.9074899246916
1711327433716,1464.3390862029046
1711327433757,664.1067251693457
1711327433796,59.09520388767123
1711327433836,164.93858901923522
1711327433876,67.14193530008197
1711327433916,214.35556743154302
1711327433957,434.53208934608847
1711327433997,433.09353880304843
1711327434037,-17.226071815937757
1711327434077,128.52128940913826
1711327434117,-112.47400005720556
1711327434158,-784.4867494362406
1711327434197,-708.4116822094657
1711327434238,-1646.5900368532166
1711327434277,-949.1112711546011
1711327434318,-919.1725695659406
1711327434359,-1218.2088319193572
1711327434398,-1243.166082308162
1711327434438,-1115.8379435273819
1711327434478,-1786.6787013006397
1711327434518,-2150.5408589383587
1711327434559,-1696.168418505229
1711327434598,-1577.541678040754
1711327434638,-1699.624668345321
1711327434677,-970.8805236816406
1711327434717,-1258.2214387133718
1711327434757,-1555.1848555235192
1711327434797,-823.1183437560685
1711327434837,-1125.9754170887172
1711327434877,-1073.7181386994198
1711327434917,-711.9981796722859
1711327434958,-695.1286173779517
1711327434997,-1450.4180029840209
1711327435038,-1763.3522299714386
1711327435078,-977.8744849469513
1711327435118,-884.4127835119143
1711327435159,-675.2765728486702
1711327435198,-521.8935649762861
1711327435238,-399.7096204501577
1711327435278,-573.9988554557785
1711327435319,-519.9860262721777
1711327435359,-994.5436043282971
1711327435399,-406.58600570168346
1711327435439,350.3317675306462
1711327435479,15.261279020924121
1711327435519,843.4000512063503
1711327435560,464.0711834351532
1711327435599,249.92501795757562
1711327435639,1003.9550609481521
1711327435680,1424.2228423431516
1711327435720,1921.8909865766764
1711327435761,1921.5968945054337
1711327435800,1480.6705947555602
1711327435840,1868.191351691261
1711327435880,1788.628724954091
1711327435920,2172.7826993819326
1711327435961,1498.2420785203576
1711327436001,1895.4618532308377
1711327436041,1728.9383939616382
1711327436081,1802.2088894005865
1711327436121,1929.0250878306106
1711327436162,1947.5238141291775
1711327436201,1457.424943627324
1711327436241,1285.0928074456751
1711327436282,1513.7200837121345
1711327436322,1646.8069451944903
1711327436363,1719.4070999640971
1711327436402,1647.8426599600352
1711327436442,1636.4983737641014
1711327436482,1879.2337729800493
1711327436522,1781.3120614513755
1711327436563,1218.8923814310692
1711327436603,1545.723461679183
1711327436643,1661.4789029611275
1711327436683,1628.7705083312467
1711327436723,1459.6466264431365
1711327436764,1357.999815568328
1711327436803,1435.7033282378688
1711327436844,1068.9547194717452
1711327436884,842.3893823288381
1711327436924,445.199806840159
1711327436965,408.13515642564744
1711327437004,84.06074365228415
1711327437044,-25.920845557935536
1711327437084,260.3631529295817
1711327437124,-846.3967479253188
1711327437165,-1041.633897411637
1711327437204,-1522.7521329084411
1711327437245,-1798.5574616091326
1711327437285,-1826.4725647526793
1711327437325,-1335.7980025764555
1711327437366,-1697.4165750914253
1711327437405,-1838.2534076548181
1711327437445,-2033.3008141745813
1711327437485,-1587.323341716081
1711327437525,-1368.557682630606
1711327437566,-1846.6113314991817
1711327437605,-1641.8843234740198
1711327437645,-1716.5489336280152
1711327437685,-1309.7721131006256
1711327437726,-1246.589823805727
1711327437766,-1620.4287182865664
1711327437806,-959.0041874707676
1711327437846,-959.8841300676577
1711327437886,-1114.3334026327357
1711327437926,-508.2475549224764
1711327437967,-1140.4918472468853
1711327438006,-1808.3574247164652
1711327438046,-2623.1922736912966
1711327438087,-2530.410048075486
1711327438127,-1908.8717577983625
1711327438167,-1579.2351846778765
1711327438207,-1422.0632268246263
1711327438247,-1061.0129174580798
1711327438287,-602.7087015174329
1711327438327,-180.07511837780476
1711327438368,-313.62408354412764
1711327438407,71.05912711564451
1711327438448,101.65099472180009
1711327438488,502.24026332609355
1711327438528,233.42328653670847
1711327438569,232.67889424972236
1711327438608,-632.7038373262621
1711327438648,-586.5905647957698
1711327438688,467.983512096107
1711327438728,235.8101518289186
1711327438769,-274.0965611981228
1711327438809,-753.6289012194611
1711327438848,-427.84465941693634
1711327438889,-258.6995513839647
1711327438929,316.0601490326226
1711327438970,-117.08471603319049
1711327439009,-89.43638219498098
1711327439049,59.949357125908136
1711327439089,-553.1219087680802
1711327439129,143.972968487069
1711327439170,489.17130533698946
1711327439209,-195.5665137246251
1711327439249,196.67897351877764
1711327439290,285.84922249568626
1711327439330,996.6885761031881
1711327439371,286.1731463642791
1711327439410,266.34284442896023
1711327439450,-19.21479529282078
1711327439490,267.30342237185687
1711327439530,36.44594411784783
1711327439571,-733.8136927015148
1711327439611,-1019.0785469119437
1711327439651,-477.8480892283842
1711327439691,-382.1272930447012
1711327439731,320.0353137878701
1711327439772,-8.076902742497623
1711327439811,70.09601661004126
1711327439851,-394.11217153351754
1711327439891,256.08265003189445
1711327439931,545.5973352137953
1711327439972,-176.83065125811845
1711327440012,342.68002617545426
1711327440052,206.6624784898013
1711327440092,545.8901641014963
1711327440132,437.47513979673386
1711327440173,490.9254416273907
1711327440212,301.77793481666595
1711327440253,314.5173862329684
1711327440293,549.543403734453
1711327440333,53.04837542073801
1711327440374,686.8789293682203
1711327440413,653.2617974504828
1711327440453,582.225646013394
1711327440493,806.758672112599
1711327440533,1241.2855776064098
1711327440574,1018.8779786592349
1711327440614,806.6179016116075
1711327440654,1258.0463005481288
1711327440694,1207.5105866687372
1711327440734,1683.2541987411678
1711327440775,1909.634744916577
1711327440814,1632.8640162609518
1711327440854,1568.1536783971824
1711327440894,1820.0664366325364
1711327440934,1210.6685432307422
1711327440975,1284.1972184330225
1711327441015,489.86216619843617
1711327441055,596.5316370064393
1711327441095,172.28667179029435
1711327441135,13.835870442911983
1711327441176,-403.74147304706275
1711327441215,-313.570147709921
1711327441255,-251.00462367897853
1711327441295,-324.7735942043364
1711327441336,36.13104049814865
1711327441376,366.6541550694965
1711327441416,508.68218369595706
1711327441456,92.67896457388997
1711327441496,345.75104815512896
1711327441536,359.9163303365931
1711327441577,326.3253999352455
1711327441616,-223.98434086795896
1711327441656,-596.26419789996
1711327441697,-907.0501138996333
1711327441737,-594.6795577574521
1711327441777,97.41487076925114
1711327441817,347.93595211301
1711327441857,366.7129434235394
1711327441897,716.8308185609058
1711327441937,117.53683520387858
1711327441978,-424.6823552614078
1711327442017,-777.8092313511297
1711327442058,-859.784394656308
1711327442098,-792.6326375748031
1711327442138,-406.82318779081106
1711327442179,-499.15529683511704
1711327442218,-155.9245489165187
1711327442258,-73.49839930702001
1711327442299,211.17104266956449
1711327442339,187.66472469549626
1711327442379,676.0446228180081
1711327442419,958.3040074137971
1711327442459,850.0388012151234
1711327442499,-34.79727577697486
1711327442539,370.48249682504684
1711327442580,361.39730350021273
1711327442620,78.57455933652818
1711327442660,-159.42192416079342
1711327442700,199.3440782628022
1711327442740,-55.503282639198005
1711327442781,-331.7470884453505
1711327442820,-561.436959576793
1711327442860,-647.1857679253444
1711327442903,189.281469094567
1711327442941,328.84373176656663
1711327442981,1007.6403558575548
1711327443021,987.0450203842483
1711327443061,-68.52931650774553
1711327443101,24.637773491442204
1711327443142,292.30067334510386
1711327443182,-25.434409542009234
1711327443222,-369.4656546153128
1711327443262,-124.41747912717983
1711327443302,-304.4183996776119
1711327443342,45.09097567340359
1711327443383,161.75366548635066
1711327443422,-233.29502993356436
1711327443463,-442.5038691679947
1711327443503,263.3637108914554
1711327443543,703.5055017163977
1711327443584,175.3791646771133
1711327443623,720.0543515086174
1711327443663,-22.918937974143773
1711327443703,164.89791744295508
1711327443744,526.1069575380534
1711327443784,1273.8030815273523
1711327443824,1487.8530232459307
1711327443864,1335.537245765794
1711327443904,1166.953900613822
1711327443944,1417.188971834723
1711327443985,1370.0200876705348
1711327444024,1517.108314721845
1711327444064,1215.1477549825795
1711327444104,886.2358717434108
1711327444144,1153.5426057744771
1711327444185,1161.7583807646297
1711327444225,915.7901493064128
1711327444265,615.9194616363384
1711327444305,174.18154031038284
1711327444345,36.23269241722301
1711327444386,134.9385204007849
1711327444425,-284.7594312527217
1711327444465,59.804161777719855
1711327444505,530.8556671561673
1711327444545,721.9753099889494
1711327444586,925.5248054447584
1711327444626,399.2509645833634
1711327444666,576.7182811084203
1711327444706,1293.5156858796254
1711327444746,1346.163526617922
1711327444787,944.4521070318297
1711327444826,619.127943106927
1711327444866,942.3695389451459
1711327444906,781.5789389293641
1711327444946,1262.1923029925674
1711327444987,1196.618624154944
1711327445027,1245.9819644861855
1711327445067,1106.196502301842
1711327445109,-90.08341527590528
1711327445147,45.757493062876165
1711327445188,616.3346108878031
1711327445227,121.65169624332339
1711327445267,70.2783532794565
1711327445307,-137.64569219574332
1711327445347,389.50651141349226
1711327445388,-28.136567416600883
1711327445428,-227.8135400833562
1711327445468,-220.12927952921018
1711327445508,44.684970581904054
1711327445548,-30.42050456441939
1711327445589,248.31648287037387
1711327445628,77.64177658315748
1711327445668,-284.0511973462999
1711327445708,-56.57520405435935
1711327445748,-93.80409730877727
1711327445789,-307.89381385035813
1711327445829,-123.74075726466253
1711327445869,-548.9384820144624
1711327445909,-897.7059969720431
1711327445949,-1421.359033686109
1711327445990,-1428.1124997921288
1711327446029,-1576.3724698470905
1711327446069,-1551.9584272745997
1711327446109,-1045.916822731495
1711327446150,-1073.2314895894378
1711327446190,-751.2002599104308
1711327446230,-1352.0538495685905
1711327446270,-954.8984835422598
1711327446310,-908.7328556515276
1711327446350,-1128.811167907901
1711327446391,-648.986849072855
1711327446430,-627.1003056336194
1711327446470,-994.5434452779591
1711327446510,-1102.1502595320344
1711327446551,-1213.4372591227293
1711327446591,-521.357403066475
1711327446631,-706.8426586701535
1711327446671,-302.1758633540012
1711327446708,-515.4449593327008
1711327446748,-745.7424997407943
1711327446789,-561.2296797037125
1711327446828,-384.8517559505999
1711327446869,-512.7917580958456
1711327446909,80.71810491941869
1711327446949,164.5081913303584
1711327446990,-58.098241828382015
1711327447029,132.99642780190334
1711327447069,385.33969775028527
1711327447109,378.7291356995702
1711327447149,638.2515631495044
1711327447190,1032.2078326558694
1711327447229,999.984849601984
1711327447269,499.7788061471656
1711327447310,826.9101391844451
1711327447350,869.481056669727
1711327447391,883.1171419811435
1711327447430,726.2105681472458
1711327447470,392.1500165211037
1711327447510,286.9533912492916
1711327447550,-265.67959717847407
1711327447591,-158.98883165046573
1711327447631,70.95138092478737
1711327447671,188.24926407029852
1711327447711,531.0205033714883
1711327447751,399.3045884259045
1711327447792,854.4102821573615
1711327447831,1511.8679938605055
1711327447871,1237.4272803287022
1711327447911,1372.0167730180547
1711327447952,1584.4530562213622
1711327447992,1508.5278765996918
1711327448032,1696.1028409786522
1711327448072,1026.6682077329606
1711327448112,758.0214657075703
1711327448152,836.4020996564068
1711327448193,739.5935388919897
1711327448232,-21.488527856301516
1711327448272,-178.4297263235785
1711327448313,-209.5019229101017
1711327448353,-30.63473467156291
1711327448394,-61.72952298261225
1711327448433,-208.49476709216833
1711327448473,-204.31054715439677
1711327448513,59.91725284000859
1711327448554,646.6883317213506
1711327448594,1169.8105066576973
1711327448634,1105.2541024945676
1711327448674,664.233469396364
1711327448714,848.431915005669
1711327448754,698.8976581515744
1711327448795,1103.3288523866795
1711327448834,1541.6744678216055
1711327448875,1457.1269377842546
1711327448915,1146.9397215228528
1711327448955,769.2033273959532
1711327448996,747.3103631166741
1711327449035,629.4329791041091
1711327449075,93.15744686312973
1711327449115,-146.52602692274377
1711327449156,-85.2364366138354
1711327449196,-168.70291777746752
1711327449236,-118.71923087723553
1711327449276,-228.1123248185031
1711327449316,-712.1636880990118
1711327449356,181.393069060985
1711327449397,377.7030510837212
1711327449436,577.4740012073889
1711327449476,635.6769642331637
1711327449517,871.7320218668319
1711327449557,743.2532788822427
1711327449597,673.8459855997935
1711327449637,589.7661166409962
1711327449677,657.8631580816582
1711327449717,290.3096520155668
1711327449757,464.5764933442697
1711327449798,513.7758305305615
1711327449838,307.34399464773014
1711327449878,-72.77662516245618
1711327449918,-20.650559027679265
1711327449958,-131.00705632427707
1711327449999,-371.37555573508143
1711327450038,115.8973780432716
1711327450078,-178.78682468179613
1711327450119,-895.957517775707
1711327450159,-859.878877968993
1711327450199,-237.20272194687277
1711327450239,-1714.7314949966967
1711327450279,-1421.1744683263823
1711327450319,-712.164803207852
1711327450359,-778.1554438937455
1711327450400,-1045.0719900280237
1711327450439,-800.8350714733824
1711327450480,-442.2883944232017
1711327450520,-554.4883744032122
1711327450560,-523.3881114274263
1711327450601,-743.7820195425302
1711327450640,-1100.1516703148372
1711327450680,-1136.1517036203295
1711327450720,-893.1823113961145
1711327450760,-1319.2288716305047
1711327450801,-991.0834815283306
1711327450840,-459.1653764201328
1711327450880,-639.1856947299093
1711327450920,-159.22955412883312
1711327450961,-326.5185927739367
1711327451001,-383.6098855221644
1711327451041,-3.40414762403816
1711327451081,-545.836370837409
1711327451121,-526.6156777152792
1711327451161,-1403.0963447480462
1711327451202,-772.0665000057779
1711327451241,-226.6602051248774
1711327451281,-194.66077022394165
1711327451321,-202.33248399663717
1711327451361,-473.35761796310544
1711327451402,214.99031274206936
1711327451442,363.9157323995605
1711327451482,474.1637652670033
1711327451522,2841.845379104838
1711327451562,2192.5395083157346
1711327451603,1643.4647743673995
1711327451642,2078.851467544213
1711327451682,1763.3751101261005
1711327451722,1883.3881059880368
1711327451762,1979.9861006997526
1711327451803,2166.631201984361
1711327451842,1800.507315597497
1711327451882,1775.8319069454446
1711327451923,2053.3117187763564
1711327451963,1888.5205536484718
1711327452003,1976.7793651726097
1711327452043,2140.147696154192
1711327452083,2129.9096646523103
1711327452123,1141.3654147135094
1711327452163,477.53362402226776
1711327452204,605.3089463645592
1711327452243,1184.9866934921592
1711327452283,1732.205131324008
1711327452323,1015.4960619555786
1711327452363,1466.3894894360565
1711327452404,2155.4986233059317
1711327452444,2594.3307998664677
1711327452484,2191.3326991284266
1711327452524,1417.9014660995454
1711327452564,1464.9037893442437
1711327452605,1180.8898831531405
1711327452644,1337.944263617508
1711327452684,1466.9177601267584
1711327452724,1911.3060245597735
1711327452764,1359.602368190419
1711327452805,767.2946091769263
1711327452845,1067.7584505770355
1711327452885,1054.9636753005907
1711327452925,973.8245789590292
1711327452965,911.7841321798041
1711327453006,570.8396341633052
1711327453045,-339.27074881922454
1711327453085,-742.6571234394796
1711327453125,-765.4279042365961
1711327453165,-233.30106315761805
1711327453206,-197.5618193829432
1711327453246,187.87369429133832
1711327453286,175.3468536203727
1711327453326,593.5114084016532
1711327453366,348.1336341309361
1711327453407,675.585395058617
1711327453446,466.40236571989954
1711327453486,391.0561771923676
1711327453526,529.4677986428142
1711327453566,377.4103428120725
1711327453607,652.1074107158929
1711327453646,1299.9737297836691
1711327453687,856.6755263837986
1711327453727,830.634763806127
1711327453767,155.50134648615494
1711327453808,623.2997811473906
1711327453847,399.9309584191069
1711327453887,780.5929035982117
1711327453927,494.4285167828202
1711327453967,6.3471275488846
1711327454008,-455.22657502954826
1711327454047,-686.0802583391778
1711327454088,-477.2938825674355
1711327454128,-240.7669116575271
1711327454168,-42.453708520159125
1711327454209,-303.33884476916865
1711327454248,-295.69273333624005
1711327454288,-489.84144053794444
1711327454328,-65.8048818828538
1711327454368,54.62616170570254
1711327454409,562.0583350602537
1711327454449,919.4283439973369
1711327454489,635.8820627178065
1711327454529,290.19298907276243
1711327454569,-227.05665751732886
1711327454610,-444.5460708346218
1711327454649,-640.0651250793599
1711327454689,-747.9604408107698
1711327454729,-143.42081526108086
1711327454770,-97.83028107415885
1711327454810,-948.7461781897582
1711327454850,-754.7219841163605
1711327454890,-955.5810274640098
1711327454930,-1611.9506809194572
1711327454970,-1466.241963634733
1711327455011,-1123.2622536020353
1711327455050,-898.1572590828873
1711327455090,-892.3050307808444
1711327455130,-567.8989713015035
1711327455171,-854.0378806097433
1711327455211,-442.3744308431633
1711327455251,-175.9727405216545
1711327455291,-199.70509211998433
1711327455331,-209.48448082851246
1711327455371,-322.39567748783156
1711327455412,-460.39090623660013
1711327455451,-171.28577704075724
1711327455492,37.89843155629933
1711327455532,444.440767431166
1711327455572,200.60090971039608
1711327455613,665.1823631725274
1711327455652,991.4420816311613
1711327455692,809.6002904521301
1711327455732,31.51020035147667
1711327455773,-255.47018236853182
1711327455813,-103.76130153378472
1711327455853,37.435230906587094
1711327455893,171.55785501468927
1711327455933,1018.5102802617475
1711327455973,1018.7227753535844
1711327456014,493.1514181373641
1711327456053,418.4036303181201
1711327456093,882.7201585909352
1711327456134,920.5755653586239
1711327456174,854.8255797764286
1711327456214,1359.9508316610008
1711327456254,1451.4837649036199
1711327456294,1278.8261078307405
1711327456334,1080.9865405168384
1711327456374,1122.3608819176443
1711327456415,886.2552213212475
1711327456454,1010.6802124357782
1711327456495,1160.6328885471448
1711327456535,1151.546297736466
1711327456575,389.321898589842
1711327456616,922.5570178031921
1711327456655,235.0038840631023
1711327456695,246.9992090971209
1711327456735,-246.20146295055747
1711327456775,236.12676129397005
1711327456816,-320.8072136370465
1711327456856,-652.3017873563804
1711327456896,-693.0746653866954
1711327456936,-651.8922329018824
1711327456976,-316.8323643547483
1711327457017,-269.4717593714595
1711327457056,-168.34612888284028
1711327457097,3.331052713096142
1711327457137,266.1463539004326
1711327457177,460.52556547895074
1711327457218,-417.2720352495089
1711327457257,-572.6764092333615
1711327457297,-27.170287093613297
1711327457338,-248.0346462377347
1711327457378,299.54146936396137
1711327457418,78.65252951951697
1711327457458,254.9062377414666
1711327457498,-205.13756952621043
1711327457538,-245.06982325110584
1711327457578,-109.39393622195348
1711327457619,-322.6041726595722
1711327457659,-544.3463823217899
1711327457699,-217.70765917375684
1711327457739,-225.9976284177974
1711327457779,-73.83488801168278
1711327457820,188.84131815610453
1711327457859,829.7075910735875
1711327457899,546.9228062480688
1711327457939,1725.7931448896416
1711327457979,1690.3237339835614
1711327458020,1670.2750044008717
1711327458060,1657.9728290424682
1711327458100,1778.1469598594122
1711327458140,2532.46450936608
1711327458180,1938.771316030994
1711327458221,1402.4617915921845
1711327458260,1399.8400866948068
1711327458300,1395.7686936715618
1711327458340,1147.4975164532661
1711327458380,453.6079224841669
1711327458421,660.9008486480452
1711327458461,-11.998575430829078
1711327458501,-69.65326178073883
1711327458541,61.04094183631241
1711327458581,376.85812714137137
1711327458622,879.966525782831
1711327458661,149.20659498684108
1711327458701,352.38132375478745
1711327458751,141.40692386357114
1711327458792,440.4375485968776
1711327458832,78.40993930678815
1711327458872,-197.40643423050642
1711327458912,-43.25552143808454
1711327458952,160.48375272983685
1711327458992,-231.3521198462695
1711327459033,-405.99850923381746
1711327459072,-884.0523679088801
1711327459112,-622.3161985101178
1711327459153,-1386.060903787613
1711327459193,-1662.5219091046602
1711327459233,-1954.9762905314565
1711327459273,-2151.458279061131
1711327459313,-2090.8473798050545
1711327459353,-2156.935070026666
1711327459393,-2038.36344525218
1711327459434,-2536.295222584158
1711327459473,-2253.880444815848
1711327459513,-1684.1674722046591
1711327459553,-1728.6086034532636
1711327459594,-1477.4072755901143
1711327459634,-1272.8653329564258
1711327459674,-733.4062383649871
1711327459714,-692.8144844719209
1711327459754,-828.0777773279697
1711327459794,-170.09834241261706
1711327459835,254.25200962554663
1711327459874,-42.21324886009097
1711327459914,-120.20000454084948
1711327459954,-1053.1558510279283
1711327459995,-612.3754424545914
1711327460035,-513.3569115623832
1711327460075,-670.4171880614012
1711327460115,-576.7656361469999
1711327460155,-432.04359799064696
1711327460195,181.98442457662895
1711327460236,233.2382736792788
1711327460275,248.85707304580137
1711327460315,514.00751309935
1711327460356,1270.923923944123
1711327460396,663.4808259783313
1711327460436,1153.338366583921
1711327460476,1345.9207511702552
1711327460516,1233.7001916123554
1711327460556,1320.8304680222645
1711327460596,1760.0704491734505
1711327460637,1825.7408332265913
1711327460676,1839.2147172680125
1711327460717,1170.6801384338178
1711327460756,1777.0677842949517
1711327460797,1492.6877368977293
1711327460838,1260.6075564655475
1711327460877,954.0345496078953
1711327460917,1521.0295361829922
1711327460957,1476.214046410285
1711327460997,1196.7203654265031
1711327461038,1327.7577250255272
1711327461078,850.3308070129715
1711327461118,149.6053290879354
1711327461158,888.7240910790861
1711327461198,628.0108169298619
1711327461239,1924.2908240691759
1711327461278,1229.8051846111193
1711327461318,1089.0287490752526
1711327461358,1532.1414201590233
1711327461398,1812.3525841603987
1711327461439,1464.0973535119556
1711327461479,1156.729549350217
1711327461519,954.7240354288369
1711327461559,839.9987307367846
1711327461599,563.2489855643362
1711327461640,347.5951193124056
1711327461680,161.46475807763636
1711327461720,144.81254773028195
1711327461760,-4.507137024775147
1711327461800,127.22771091619506
1711327461841,182.43832828477025
1711327461880,129.94015203416348
1711327461920,144.16756148822606
1711327461960,-235.35043898131698
1711327462000,574.3969747498631
1711327462041,-70.24832056229934
1711327462081,-422.1211921116337
1711327462121,-417.20785202784464
1711327462161,-83.45645958324894
1711327462201,-827.0106342788786
1711327462242,-1353.3694942672737
1711327462282,-1296.935279740952
1711327462322,-1390.7022325638682
1711327462362,-882.9276547706686
1711327462402,-152.41429413110018
1711327462443,-698.5763954548165
1711327462482,-681.9307372914627
1711327462522,-469.9626577706076
1711327462562,-124.00355459284037
1711327462603,-277.4977848175913
1711327462644,-457.2172582782805
1711327462683,-538.6217229226604
1711327462723,-235.31035577924922
1711327462763,-225.10111317876726
1711327462803,-152.12078016018495
1711327462844,208.07120107673109
1711327462884,-57.0576730677858
1711327462924,-117.82979774614796
1711327462964,76.09915588982403
1711327463004,-67.50245486432686
1711327463045,-140.73294584685937
1711327463084,-317.33039562031627
1711327463125,-589.035862528719
1711327463165,-321.6033528111875
1711327463205,-152.4114315607585
1711327463246,-250.44986661337316
1711327463285,-395.64658732991666
1711327463325,-382.7080393554643
1711327463366,-148.37487249728292
1711327463406,293.13086915854365
1711327463446,108.88770866859704
1711327463486,512.2582978513092
1711327463526,937.8092145854607
1711327463566,522.0470988759771
1711327463606,716.5753082847223
1711327463647,547.4698526798747
1711327463687,418.2104852264747
1711327463727,190.5822226535529
1711327463767,97.06759471120313
1711327463807,340.66654357872903
1711327463848,640.7777036037296
1711327463887,924.1069031693041
1711327463927,804.0724624209106
1711327463968,1056.200318578165
1711327464008,985.2989600901492
1711327464049,84.52696335036308
1711327464088,-159.017808069475
1711327464128,-263.87182689039037
1711327464168,-327.7512736450881
1711327464208,-280.8135776654817
1711327464249,-721.3307410972193
1711327464288,-138.87925331760198
1711327464329,-25.367227523121983
1711327464369,101.17561711743474
1711327464409,-28.039140827953815
1711327464450,281.5873589613475
1711327464489,-188.55335308704525
1711327464529,-346.16552277095616
1711327464569,-214.1438217908144
1711327464609,-260.6665645982139
1711327464650,-398.09187125694007
1711327464690,-424.8172402558848
1711327464730,-232.05409898422658
1711327464770,-438.503316543065
1711327464810,-1234.816757898312
1711327464851,-1170.0277675115503
1711327464890,-1058.593748383224
1711327464930,-1092.7310257363133
1711327464970,-350.15612346865237
1711327465010,-34.58789230603725
1711327465051,348.0422285525128
1711327465091,-559.5306529868394
1711327465131,-707.1418463890441
1711327465171,-396.462538940832
1711327465211,-574.8606531247497
1711327465252,-1091.7605448728427
1711327465291,-1606.2901851106435
1711327465331,-997.4634845438413
1711327465371,-638.769620235078
1711327465412,-140.657760579139
1711327465452,101.60611775610596
1711327465492,641.3499256330542
1711327465532,1106.1442309566773
1711327465572,-177.67540515307337
1711327465612,488.4434613431804
1711327465653,655.811642434448
1711327465692,633.8890249030665
1711327465732,146.94691959768534
1711327465773,431.70756833348423
1711327465813,618.4257317376323
1711327465853,789.819701581262
1711327465893,1110.5369321890175
1711327465933,1360.9812973798253
1711327465973,1317.5351898069493
1711327466013,712.7935211854056
1711327466054,469.08386800810695
1711327466093,1046.7957710628398
1711327466134,1087.1940397741273
1711327466174,1280.9134714789689
1711327466214,1498.2668712185696
1711327466255,911.2458238750696
1711327466294,913.3205877305008
1711327466334,625.8692402457818
1711327466374,1233.283625739161
1711327466414,1080.6711126966402
1711327466455,1171.3446089439094
1711327466495,1048.7160981353372
1711327466535,1191.6442588893697
1711327466575,1561.2554218461737
1711327466615,1595.8190991445445
1711327466656,1582.1194156263955
1711327466695,1942.2062049023807
1711327466735,2033.6616935851052
1711327466775,1615.4748048372567
1711327466816,794.244502411224
1711327466856,1572.7565281558782
1711327466896,1365.3409229484387
1711327466936,877.9929719362408
1711327466976,1357.6777751888148
1711327467016,1623.4679920212366
1711327467057,1601.7510567689314
1711327467097,1670.5746813989244
1711327467137,1658.6025686431676
1711327467177,1396.035917390138
1711327467217,1145.9329041428864
1711327467258,748.7450303365476
1711327467297,836.3233067751862
1711327467337,738.2492621010169
1711327467377,213.653973672539
1711327467417,373.2767626577988
1711327467458,49.9850823241286
1711327467498,-165.27655601873994
1711327467538,-343.7622627094388
1711327467578,-135.49418334290385
1711327467618,-453.6492677712813
1711327467659,88.99286509212106
1711327467698,-410.6585335782729
1711327467738,-1207.1236687283963
1711327467778,-890.9998534182087
1711327467819,-396.17168545071036
1711327467859,-431.7042780071497
1711327467899,-568.0233472175896
1711327467939,-700.4654172267765
1711327467979,-789.5442871102132
1711327468019,-801.8781379247084
1711327468060,-630.0471086427569
1711327468099,84.9437164934352
1711327468140,-595.9233278222382
1711327468180,-571.505182525143
1711327468220,-262.7671836987138
1711327468261,-311.9827021723613
1711327468300,-362.9799524154514
1711327468340,-1278.9245491619222
1711327468381,-1154.2450447957963
1711327468421,-1018.4192818067968
1711327468462,-871.8078833902255
1711327468501,-793.234479227569
1711327468541,-84.30974209867418
1711327468581,56.41502287006006
1711327468621,372.52810520958155
1711327468662,751.03402317781
1711327468702,977.3970631891862
1711327468742,660.5695024966262
1711327468782,942.1255151536316
1711327468822,851.379178551957
1711327468863,542.232966022566
1711327468902,67.38391497824341
1711327468942,-555.8758551874198
1711327468982,-340.41152016911656
1711327469023,475.98543127719313
1711327469063,1126.1224139309488
1711327469103,19.048883460462093
1711327469143,-287.36074740998447
1711327469183,-621.039213986136
1711327469223,-390.0398212876171
1711327469264,-657.2540238304064
1711327469303,-572.9588131299242
1711327469344,-486.3763773338869
1711327469384,-441.3537810379639
1711327469424,238.45345118036494
1711327469465,213.9120293785818
1711327469504,-227.45040430128574
1711327469544,3.7778370808809996
1711327469584,207.66220679087564
1711327469625,616.6511735804379
1711327469666,462.24398976471275
1711327469705,768.5240592351183
1711327469745,604.9943892508745
1711327469785,519.4455623063259
1711327469825,701.6931522861123
1711327469866,778.107055646833
1711327469906,484.9239398445934
1711327469946,-102.31355949025601
1711327469986,341.7764503546059
1711327470026,325.570831971243
1711327470067,153.15956044755876
1711327470106,337.9114610813558
1711327470146,41.09761538449675
1711327470187,566.7600142830051
1711327470227,953.4114199299365
1711327470268,720.1551286103204
1711327470307,823.5687705329619
1711327470347,144.313234067522
1711327470387,459.2164977872744
1711327470427,481.8011845257133
1711327470468,283.5083307744935
1711327470508,190.27258404251188
1711327470548,1130.6567159499973
1711327470588,1228.551983534824
1711327470628,711.5952989999205
1711327470669,448.09300149884075
1711327470708,-273.42216380219907
1711327470748,-10.390095342881978
1711327470786,713.6435688612983
1711327470826,299.0622185310349
1711327470867,502.27419934328645
1711327470906,775.836232861504
1711327470947,1006.2150475298986
1711327470987,476.71038915775716
1711327471027,604.0815225085244
1711327471068,847.7671586666256
1711327471107,474.1353309303522
1711327471147,501.1014034319669
1711327471187,1281.865963560529
1711327471227,1288.421461968217
1711327471268,843.7802370078862
1711327471307,1770.5868585146964
1711327471347,899.837732180953
1711327471388,660.8195048184134
1711327471428,877.3272932288237
1711327471468,844.6512058246881
1711327471508,795.2673331424594
1711327471548,551.9777363915928
1711327471588,979.606058137957
1711327471628,645.9580460777506
1711327471669,1042.1736930701882
1711327471708,1237.6310894601047
1711327471748,1403.9795316546224
1711327471789,1938.4442226495594
1711327471829,1242.663376649376
1711327471869,1026.2878802930936
1711327471909,1120.6151924207807
1711327471949,1173.4219421041198
1711327471989,1345.8519756598398
1711327472029,1077.269427263178
1711327472070,178.65377497160807
1711327472109,-83.14455648092553
1711327472150,-107.83883881522343
1711327472190,-889.7545480704866
1711327472230,-756.6061907573603
1711327472270,-493.4104205509648
1711327472310,164.48353653028607
1711327472350,202.40970273688436
1711327472390,6.571307559963316
1711327472430,-353.09019659273326
1711327472471,-926.7549731968902
1711327472510,-361.0066980998963
1711327472550,-240.29171820916235
1711327472590,-707.6771844569594
1711327472631,13.453763554804027
1711327472671,-332.2247350104153
1711327472711,-113.17626324808225
1711327472751,227.1347848828882
1711327472791,258.5514854667708
1711327472831,179.44593481859192
1711327472872,-148.83843548269942
1711327472911,117.80526204034686
1711327472951,-424.6145770139992
1711327472992,-662.8699379423633
1711327473032,-320.8949797367677
1711327473072,-627.3306090449914
1711327473112,-280.0604602950625
1711327473152,-21.903226253576577
1711327473192,175.63388812588528
1711327473232,167.88537314813584
1711327473273,46.402376473881304
1711327473312,-25.33950327336788
1711327473353,448.22783501725644
1711327473392,364.2315844325349
1711327473432,-423.7900763680227
1711327473473,-472.65464089252055
1711327473513,-645.4101434587501
1711327473553,-553.2049428494647
1711327473593,-1687.4860076699406
1711327473633,-1857.155927483458
1711327473674,-1883.925162697211
1711327473713,-1733.706616781652
1711327473753,-1316.9786631134339
1711327473793,-1200.4083827193826
