dataReceived,timestamp,ppg,status
1711327338509,1711327326390,2183807,0
1711327338509,1711327326431,2184396,0
1711327338509,1711327326472,2184787,0
1711327338509,1711327326511,2184854,0
1711327338509,1711327326551,2184814,0
1711327338509,1711327326591,2184859,0
1711327338509,1711327326631,2185056,0
1711327338509,1711327326672,2185537,0
1711327338509,1711327326711,2185771,0
1711327338509,1711327326751,2185768,0
1711327338509,1711327326792,2186141,0
1711327338509,1711327326832,2186375,0
1711327338509,1711327326873,2186479,0
1711327338509,1711327326912,2186529,0
1711327338509,1711327326952,2186979,0
1711327338509,1711327326992,2187456,0
1711327338509,1711327327032,2187362,0
1711327338509,1711327327073,2187523,0
1711327338509,1711327327112,2187722,0
1711327338509,1711327327153,2187856,0
1711327338509,1711327327193,2187978,0
1711327338509,1711327327233,2188200,0
1711327338509,1711327327274,2188363,0
1711327338509,1711327327313,2188579,0
1711327338509,1711327327353,2188633,0
1711327338509,1711327327393,2188939,0
1711327338509,1711327327433,2188910,0
1711327338509,1711327327474,2189052,0
1711327338509,1711327327514,2189057,0
1711327338509,1711327327554,2188527,0
1711327338509,1711327327596,2188226,0
1711327338509,1711327327634,2187810,0
1711327338509,1711327327675,2187421,0
1711327338509,1711327327714,2186878,0
1711327338509,1711327327754,2186488,0
1711327338509,1711327327794,2186297,0
1711327338509,1711327327834,2186136,0
1711327338509,1711327327876,2185973,0
1711327338509,1711327327915,2186017,0
1711327338509,1711327327955,2185984,0
1711327338509,1711327327995,2185951,0
1711327338509,1711327328035,2186050,0
1711327338509,1711327328076,2186256,0
1711327338509,1711327328116,2186253,0
1711327338509,1711327328155,2186247,0
1711327338509,1711327328196,2185955,0
1711327338509,1711327328236,2185649,0
1711327338509,1711327328277,2185597,0
1711327338509,1711327328316,2185683,0
1711327338509,1711327328356,2185803,0
1711327338509,1711327328396,2185949,0
1711327338509,1711327328436,2186112,0
1711327338509,1711327328477,2186073,0
1711327338509,1711327328516,2186095,0
1711327338509,1711327328557,2186231,0
1711327338509,1711327328597,2186262,0
1711327338509,1711327328637,2185496,0
1711327338509,1711327328678,2184793,0
1711327338509,1711327328717,2183638,0
1711327338509,1711327328757,2183014,0
1711327338509,1711327328797,2182276,0
1711327338509,1711327328837,2181963,0
1711327338509,1711327328878,2181619,0
1711327338509,1711327328917,2181758,0
1711327338509,1711327328958,2182015,0
1711327338509,1711327328998,2182486,0
1711327338509,1711327329038,2182921,0
1711327338509,1711327329079,2183081,0
1711327338509,1711327329118,2182992,0
1711327338509,1711327329158,2182796,0
1711327338509,1711327329198,2182568,0
1711327338509,1711327329238,2182273,0
1711327338509,1711327329280,2181925,0
1711327338509,1711327329319,2181415,0
1711327338509,1711327329359,2180903,0
1711327338509,1711327329399,2180539,0
1711327338509,1711327329439,2179775,0
1711327338509,1711327329480,2179142,0
1711327338509,1711327329519,2178960,0
1711327338509,1711327329559,2179160,0
1711327338509,1711327329599,2178929,0
1711327338509,1711327329640,2178625,0
1711327338509,1711327329681,2178625,0
1711327338509,1711327329720,2178563,0
1711327338509,1711327329760,2178513,0
1711327338509,1711327329803,2178335,0
1711327338509,1711327329840,2178190,0
1711327338509,1711327329881,2178072,0
1711327338509,1711327329921,2178061,0
1711327338509,1711327329960,2178073,0
1711327338509,1711327330001,2178047,0
1711327338509,1711327330041,2177962,0
1711327338509,1711327330082,2178133,0
1711327338509,1711327330121,2178276,0
1711327338509,1711327330161,2178465,0
1711327338509,1711327330201,2178554,0
1711327338509,1711327330241,2178194,0
1711327338509,1711327330283,2177760,0
1711327338509,1711327330322,2178512,0
1711327338509,1711327330362,2178768,0
1711327338509,1711327330402,2178486,0
1711327338509,1711327330442,2178049,0
1711327338509,1711327330483,2176358,0
1711327338509,1711327330522,2173868,0
1711327338509,1711327330562,2172573,0
1711327338509,1711327330602,2172628,0
1711327338509,1711327330643,2172648,0
1711327338509,1711327330684,2172150,0
1711327338509,1711327330723,2171081,0
1711327338509,1711327330763,2167639,0
1711327338509,1711327330803,2162876,0
1711327338509,1711327330843,2159499,0
1711327338509,1711327330884,2158311,0
1711327338509,1711327330923,2157437,0
1711327338509,1711327330963,2157433,0
1711327338509,1711327331003,2157438,0
1711327338509,1711327331043,2157055,0
1711327338509,1711327331084,2156550,0
1711327338509,1711327331123,2156476,0
1711327338509,1711327331163,2156885,0
1711327338509,1711327331203,2156699,0
1711327338509,1711327331244,2156095,0
1711327338509,1711327331284,2155499,0
1711327338509,1711327331323,2154472,0
1711327338509,1711327331364,2153588,0
1711327338509,1711327331404,2150948,0
1711327338509,1711327331444,2144941,0
1711327338509,1711327331485,2139995,0
1711327338509,1711327331524,2137661,0
1711327338509,1711327331564,2136838,0
1711327338509,1711327331604,2137144,0
1711327338509,1711327331644,2137071,0
1711327338509,1711327331685,2136397,0
1711327338509,1711327331724,2135628,0
1711327338509,1711327331764,2135462,0
1711327338509,1711327331804,2135608,0
1711327338509,1711327331845,2135975,0
1711327338509,1711327331885,2136626,0
1711327338509,1711327331925,2137393,0
1711327338509,1711327331965,2138071,0
1711327338509,1711327332005,2138772,0
1711327338509,1711327332045,2136210,0
1711327338509,1711327332086,2131142,0
1711327338509,1711327332125,2127600,0
1711327338509,1711327332165,2125892,0
1711327338509,1711327332205,2124693,0
1711327338509,1711327332245,2124504,0
1711327338509,1711327332286,2124304,0
1711327338509,1711327332326,2123786,0
1711327338509,1711327332366,2123396,0
1711327338509,1711327332406,2123353,0
1711327338509,1711327332446,2124020,0
1711327338509,1711327332486,2124846,0
1711327338509,1711327332526,2125603,0
1711327338509,1711327332566,2126623,0
1711327338509,1711327332606,2127780,0
1711327338509,1711327332646,2127819,0
1711327338509,1711327332687,2123777,0
1711327338509,1711327332726,2118844,0
1711327338509,1711327332766,2116286,0
1711327338509,1711327332806,2115080,0
1711327338509,1711327332846,2114712,0
1711327338509,1711327332887,2115056,0
1711327338509,1711327332927,2115084,0
1711327338509,1711327332967,2114776,0
1711327338509,1711327333007,2114823,0
1711327338509,1711327333047,2115229,0
1711327338509,1711327333088,2115902,0
1711327338509,1711327333127,2116685,0
1711327338509,1711327333167,2117584,0
1711327338509,1711327333207,2118420,0
1711327338509,1711327333247,2119361,0
1711327338509,1711327333288,2119164,0
1711327338509,1711327333327,2114694,0
1711327338509,1711327333367,2109982,0
1711327338509,1711327333408,2107735,0
1711327338509,1711327333448,2106719,0
1711327338509,1711327333488,2106687,0
1711327338509,1711327333528,2107280,0
1711327338509,1711327333568,2107316,0
1711327338509,1711327333608,2107065,0
1711327338509,1711327333648,2107001,0
1711327338509,1711327333689,2107500,0
1711327338509,1711327333728,2108192,0
1711327338509,1711327333768,2109208,0
1711327338509,1711327333808,2110076,0
1711327338509,1711327333848,2111118,0
1711327338509,1711327333889,2112121,0
1711327338509,1711327333929,2112104,0
1711327338509,1711327333969,2107750,0
1711327338509,1711327334009,2102694,0
1711327338509,1711327334049,2100371,0
1711327338509,1711327334090,2099490,0
1711327338509,1711327334129,2099396,0
1711327338509,1711327334169,2099981,0
1711327338509,1711327334209,2100070,0
1711327338509,1711327334249,2099843,0
1711327338509,1711327334290,2100282,0
1711327338509,1711327334329,2100980,0
1711327338509,1711327334369,2101741,0
1711327338509,1711327334409,2102581,0
1711327338509,1711327334449,2103526,0
1711327338509,1711327334490,2104546,0
1711327338509,1711327334529,2105672,0
1711327338509,1711327334569,2106099,0
1711327338509,1711327334610,2102245,0
1711327338509,1711327334650,2096833,0
1711327338509,1711327334690,2094055,0
1711327338509,1711327334730,2093057,0
1711327338509,1711327334770,2093169,0
1711327338509,1711327334810,2093618,0
1711327338509,1711327334850,2094088,0
1711327338509,1711327334890,2094014,0
1711327338509,1711327334930,2094014,0
1711327338509,1711327334970,2094527,0
1711327338509,1711327335010,2095546,0
1711327338509,1711327335050,2096590,0
1711327338509,1711327335091,2097844,0
1711327338509,1711327335130,2099064,0
1711327338509,1711327335170,2100234,0
1711327338509,1711327335210,2100882,0
1711327338509,1711327335250,2097720,0
1711327338509,1711327335291,2092509,0
1711327338509,1711327335330,2089494,0
1711327338509,1711327335370,2088555,0
1711327338509,1711327335410,2088508,0
1711327338509,1711327335451,2089406,0
1711327338509,1711327335491,2089851,0
1711327338509,1711327335531,2089734,0
1711327338509,1711327335571,2089868,0
1711327338509,1711327335611,2090511,0
1711327338509,1711327335651,2091527,0
1711327338509,1711327335692,2092612,0
1711327338509,1711327335731,2093741,0
1711327338509,1711327335771,2094778,0
1711327338509,1711327335811,2096003,0
1711327338509,1711327335851,2096605,0
1711327338509,1711327335892,2093044,0
1711327338509,1711327335931,2087608,0
1711327338509,1711327335971,2084865,0
1711327338509,1711327336011,2083833,0
1711327338509,1711327336052,2083979,0
1711327338509,1711327336092,2084687,0
1711327338509,1711327336132,2084988,0
1711327338509,1711327336172,2084904,0
1711327338509,1711327336212,2084901,0
1711327338509,1711327336252,2085366,0
1711327338509,1711327336293,2086249,0
1711327338509,1711327336332,2087259,0
1711327338509,1711327336372,2088442,0
1711327338509,1711327336413,2089568,0
1711327338509,1711327336453,2090738,0
1711327338509,1711327336493,2091312,0
1711327338509,1711327336533,2087747,0
1711327338509,1711327336573,2082219,0
1711327338509,1711327336613,2079228,0
1711327338509,1711327336653,2078252,0
1711327338509,1711327336694,2078069,0
1711327338509,1711327336733,2078665,0
1711327338509,1711327336773,2078945,0
1711327338509,1711327336813,2078674,0
1711327338509,1711327336853,2078519,0
1711327338509,1711327336894,2078940,0
1711327338509,1711327336933,2079923,0
1711327338509,1711327336974,2080760,0
1711327338509,1711327337014,2081827,0
1711327338509,1711327337054,2082831,0
1711327338509,1711327337095,2083941,0
1711327338509,1711327337134,2084558,0
1711327338509,1711327337174,2081294,0
1711327338509,1711327337214,2075790,0
1711327338509,1711327337254,2072724,0
1711327338509,1711327337295,2071564,0
1711327338509,1711327337334,2071431,0
1711327338509,1711327337375,2071881,0
1711327338509,1711327337415,2072023,0
1711327338509,1711327337455,2071635,0
1711327338509,1711327337496,2071413,0
1711327338509,1711327337535,2071827,0
1711327338509,1711327337575,2072555,0
1711327338509,1711327337615,2073561,0
1711327338509,1711327337655,2074528,0
1711327338509,1711327337696,2075482,0
1711327338509,1711327337735,2076535,0
1711327338509,1711327337775,2077475,0
1711327338509,1711327337816,2075413,0
1711327338509,1711327337856,2069883,0
1711327338509,1711327337896,2066132,0
1711327338509,1711327337936,2064714,0
1711327338509,1711327337976,2064338,0
1711327338509,1711327338016,2064774,0
1711327338509,1711327338056,2065145,0
1711327338509,1711327338097,2064987,0
1711327338509,1711327338136,2064720,0
1711327338509,1711327338176,2065138,0
1711327338509,1711327338217,2065839,0
1711327338509,1711327338257,2066954,0
1711327338509,1711327338297,2068070,0
1711327338509,1711327338337,2069379,0
1711327338509,1711327338377,2070469,0
1711327350524,1711327338425,2071727,0
1711327350524,1711327338465,2070957,0
1711327350524,1711327338506,2065954,0
1711327350524,1711327338545,2061481,0
1711327350524,1711327338586,2059778,0
1711327350524,1711327338626,2059269,0
1711327350524,1711327338666,2059707,0
1711327350524,1711327338707,2059976,0
1711327350524,1711327338746,2059844,0
1711327350524,1711327338786,2059705,0
1711327350524,1711327338826,2059754,0
1711327350524,1711327338866,2060502,0
1711327350524,1711327338907,2061557,0
1711327350524,1711327338947,2062729,0
1711327350524,1711327338987,2063918,0
1711327350524,1711327339027,2065188,0
1711327350524,1711327339067,2066465,0
1711327350524,1711327339107,2066103,0
1711327350524,1711327339147,2061642,0
1711327350524,1711327339187,2057597,0
1711327350524,1711327339227,2056241,0
1711327350524,1711327339267,2056048,0
1711327350524,1711327339308,2056951,0
1711327350524,1711327339348,2057837,0
1711327350524,1711327339388,2057997,0
1711327350524,1711327339428,2058040,0
1711327350524,1711327339468,2058594,0
1711327350524,1711327339509,2059710,0
1711327350524,1711327339548,2060994,0
1711327350524,1711327339588,2062337,0
1711327350524,1711327339628,2063872,0
1711327350524,1711327339669,2065336,0
1711327350524,1711327339709,2066759,0
1711327350524,1711327339749,2066203,0
1711327350524,1711327339789,2061626,0
1711327350524,1711327339829,2057575,0
1711327350524,1711327339869,2056362,0
1711327350524,1711327339910,2056360,0
1711327350524,1711327339949,2057159,0
1711327350524,1711327339990,2058300,0
1711327350524,1711327340030,2058781,0
1711327350524,1711327340070,2058934,0
1711327350524,1711327340111,2059578,0
1711327350524,1711327340150,2060459,0
1711327350524,1711327340190,2061740,0
1711327350524,1711327340230,2063010,0
1711327350524,1711327340271,2064316,0
1711327350524,1711327340311,2065625,0
1711327350524,1711327340351,2066729,0
1711327350524,1711327340391,2065760,0
1711327350524,1711327340431,2060715,0
1711327350524,1711327340471,2056780,0
1711327350524,1711327340512,2055421,0
1711327350524,1711327340551,2055444,0
1711327350524,1711327340591,2056355,0
1711327350524,1711327340631,2057178,0
1711327350524,1711327340671,2057521,0
1711327350524,1711327340712,2057706,0
1711327350524,1711327340752,2058330,0
1711327350524,1711327340792,2059429,0
1711327350524,1711327340832,2060601,0
1711327350524,1711327340872,2061952,0
1711327350524,1711327340912,2063078,0
1711327350524,1711327340952,2064488,0
1711327350524,1711327340992,2065641,0
1711327350524,1711327341032,2063520,0
1711327350524,1711327341072,2058063,0
1711327350524,1711327341113,2054493,0
1711327350524,1711327341152,2053010,0
1711327350524,1711327341192,2052854,0
1711327350524,1711327341232,2053498,0
1711327350524,1711327341272,2054091,0
1711327350524,1711327341313,2054008,0
1711327350524,1711327341353,2054067,0
1711327350524,1711327341393,2054574,0
1711327350524,1711327341433,2055578,0
1711327350524,1711327341473,2056738,0
1711327350524,1711327341514,2058060,0
1711327350524,1711327341553,2059232,0
1711327350524,1711327341593,2060643,0
1711327350524,1711327341633,2060660,0
1711327350524,1711327341673,2055618,0
1711327350524,1711327341714,2050357,0
1711327350524,1711327341753,2048245,0
1711327350524,1711327341793,2047501,0
1711327350524,1711327341834,2047479,0
1711327350524,1711327341874,2048167,0
1711327350524,1711327341914,2048381,0
1711327350524,1711327341954,2048222,0
1711327350524,1711327341994,2048358,0
1711327350524,1711327342034,2048970,0
1711327350524,1711327342074,2050238,0
1711327350524,1711327342115,2051632,0
1711327350524,1711327342154,2052872,0
1711327350524,1711327342194,2054384,0
1711327350524,1711327342234,2055511,0
1711327350524,1711327342274,2052442,0
1711327350524,1711327342315,2046296,0
1711327350524,1711327342355,2042716,0
1711327350524,1711327342395,2041615,0
1711327350524,1711327342435,2041213,0
1711327350524,1711327342475,2041471,0
1711327350524,1711327342516,2041705,0
1711327350524,1711327342555,2041713,0
1711327350524,1711327342595,2041622,0
1711327350524,1711327342635,2042150,0
1711327350524,1711327342675,2042943,0
1711327350524,1711327342716,2043182,0
1711327350524,1711327342755,2042511,0
1711327350524,1711327342796,2042335,0
1711327350524,1711327342836,2043090,0
1711327350524,1711327342876,2043435,0
1711327350524,1711327342917,2039240,0
1711327350524,1711327342956,2034678,0
1711327350524,1711327342996,2032319,0
1711327350524,1711327343036,2032093,0
1711327350524,1711327343076,2035478,0
1711327350524,1711327343117,2037346,0
1711327350524,1711327343157,2038816,0
1711327350524,1711327343197,2036154,0
1711327350524,1711327343237,2033682,0
1711327350524,1711327343277,2030862,0
1711327350524,1711327343317,2028218,0
1711327350524,1711327343357,2027352,0
1711327350524,1711327343397,2029376,0
1711327350524,1711327343437,2035890,0
1711327350524,1711327343477,2040423,0
1711327350524,1711327343518,2042140,0
1711327350524,1711327343557,2036150,0
1711327350524,1711327343597,2031552,0
1711327350524,1711327343638,2030461,0
1711327350524,1711327343678,2031797,0
1711327350524,1711327343719,2035059,0
1711327350524,1711327343758,2037511,0
1711327350524,1711327343798,2043724,0
1711327350524,1711327343839,2048765,0
1711327350524,1711327343879,2052034,0
1711327350524,1711327343920,2055375,0
1711327350524,1711327343959,2059385,0
1711327350524,1711327343999,2061977,0
1711327350524,1711327344039,2063074,0
1711327350524,1711327344079,2062656,0
1711327350524,1711327344120,2058449,0
1711327350524,1711327344159,2049216,0
1711327350524,1711327344199,2039183,0
1711327350524,1711327344240,2031588,0
1711327350524,1711327344280,2027978,0
1711327350524,1711327344321,2031233,0
1711327350524,1711327344360,2036433,0
1711327350524,1711327344400,2041199,0
1711327350524,1711327344440,2047871,0
1711327350524,1711327344480,2054154,0
1711327350524,1711327344521,2058624,0
1711327350524,1711327344560,2061444,0
1711327350524,1711327344601,2063566,0
1711327350524,1711327344641,2065507,0
1711327350524,1711327344681,2066097,0
1711327350524,1711327344722,2065298,0
1711327350524,1711327344761,2065141,0
1711327350524,1711327344801,2065908,0
1711327350524,1711327344841,2069084,0
1711327350524,1711327344881,2070469,0
1711327350524,1711327344922,2072565,0
1711327350524,1711327344962,2073815,0
1711327350524,1711327345002,2072103,0
1711327350524,1711327345042,2069769,0
1711327350524,1711327345082,2068046,0
1711327350524,1711327345123,2068695,0
1711327350524,1711327345162,2070257,0
1711327350524,1711327345202,2071900,0
1711327350524,1711327345242,2073862,0
1711327350524,1711327345282,2075393,0
1711327350524,1711327345323,2076702,0
1711327350524,1711327345363,2078554,0
1711327350524,1711327345403,2079021,0
1711327350524,1711327345443,2080179,0
1711327350524,1711327345483,2081626,0
1711327350524,1711327345524,2084052,0
1711327350524,1711327345563,2085868,0
1711327350524,1711327345603,2086947,0
1711327350524,1711327345643,2087837,0
1711327350524,1711327345684,2087834,0
1711327350524,1711327345724,2087375,0
1711327350524,1711327345764,2087108,0
1711327350524,1711327345804,2087910,0
1711327350524,1711327345844,2089525,0
1711327350524,1711327345884,2092271,0
1711327350524,1711327345925,2094073,0
1711327350524,1711327345964,2094528,0
1711327350524,1711327346004,2093680,0
1711327350524,1711327346045,2093106,0
1711327350524,1711327346085,2093353,0
1711327350524,1711327346125,2095554,0
1711327350524,1711327346165,2096853,0
1711327350524,1711327346205,2095300,0
1711327350524,1711327346245,2093586,0
1711327350524,1711327346285,2094213,0
1711327350524,1711327346326,2092426,0
1711327350524,1711327346365,2096084,0
1711327350524,1711327346405,2098902,0
1711327350524,1711327346445,2105147,0
1711327350524,1711327346486,2112242,0
1711327350524,1711327346526,2112416,0
1711327350524,1711327346566,2111172,0
1711327350524,1711327346606,2110484,0
1711327350524,1711327346646,2110398,0
1711327350524,1711327346686,2110463,0
1711327350524,1711327346727,2110692,0
1711327350524,1711327346766,2110569,0
1711327350524,1711327346806,2110024,0
1711327350524,1711327346847,2109435,0
1711327350524,1711327346887,2109258,0
1711327350524,1711327346928,2109765,0
1711327350524,1711327346967,2109944,0
1711327350524,1711327347007,2110118,0
1711327350524,1711327347047,2109857,0
1711327350524,1711327347087,2109742,0
1711327350524,1711327347128,2109621,0
1711327350524,1711327347167,2109560,0
1711327350524,1711327347207,2109297,0
1711327350524,1711327347248,2109204,0
1711327350524,1711327347288,2109359,0
1711327350524,1711327347328,2109904,0
1711327350524,1711327347368,2111239,0
1711327350524,1711327347408,2113670,0
1711327350524,1711327347448,2114465,0
1711327350524,1711327347488,2114204,0
1711327350524,1711327347529,2113982,0
1711327350524,1711327347569,2114933,0
1711327350524,1711327347609,2115802,0
1711327350524,1711327347649,2116253,0
1711327350524,1711327347689,2116877,0
1711327350524,1711327347730,2117583,0
1711327350524,1711327347769,2117515,0
1711327350524,1711327347809,2117266,0
1711327350524,1711327347849,2117110,0
1711327350524,1711327347889,2117068,0
1711327350524,1711327347930,2117268,0
1711327350524,1711327347970,2117402,0
1711327350524,1711327348010,2117646,0
1711327350524,1711327348050,2117744,0
1711327350524,1711327348090,2117547,0
1711327350524,1711327348131,2117636,0
1711327350524,1711327348170,2117499,0
1711327350524,1711327348210,2117718,0
1711327350524,1711327348250,2118163,0
1711327350524,1711327348291,2118569,0
1711327350524,1711327348331,2118960,0
1711327350524,1711327348371,2119195,0
1711327350524,1711327348411,2119465,0
1711327350524,1711327348451,2119882,0
1711327350524,1711327348491,2120183,0
1711327350524,1711327348532,2120631,0
1711327350524,1711327348571,2120968,0
1711327350524,1711327348611,2121461,0
1711327350524,1711327348651,2121815,0
1711327350524,1711327348691,2122249,0
1711327350524,1711327348732,2122615,0
1711327350524,1711327348771,2122862,0
1711327350524,1711327348812,2123404,0
1711327350524,1711327348852,2123783,0
1711327350524,1711327348892,2124172,0
1711327350524,1711327348933,2124629,0
1711327350524,1711327348972,2125007,0
1711327350524,1711327349012,2125354,0
1711327350524,1711327349052,2125745,0
1711327350524,1711327349092,2126178,0
1711327350524,1711327349133,2126890,0
1711327350524,1711327349172,2127814,0
1711327350524,1711327349212,2128884,0
1711327350524,1711327349252,2129456,0
1711327350524,1711327349293,2130111,0
1711327350524,1711327349333,2131062,0
1711327350524,1711327349373,2131774,0
1711327350524,1711327349413,2132489,0
1711327350524,1711327349453,2133055,0
1711327350524,1711327349493,2133451,0
1711327350524,1711327349534,2133821,0
1711327350524,1711327349573,2133857,0
1711327350524,1711327349613,2133974,0
1711327350524,1711327349653,2134318,0
1711327350524,1711327349693,2134734,0
1711327350524,1711327349734,2134934,0
1711327350524,1711327349774,2135129,0
1711327350524,1711327349814,2135472,0
1711327350524,1711327349854,2135728,0
1711327350524,1711327349894,2136152,0
1711327350524,1711327349934,2136272,0
1711327350524,1711327349974,2136304,0
1711327350524,1711327350014,2136450,0
1711327350524,1711327350054,2136710,0
1711327350524,1711327350094,2136980,0
1711327350524,1711327350135,2137295,0
1711327350524,1711327350174,2137292,0
1711327350524,1711327350214,2137326,0
1711327350524,1711327350255,2137035,0
1711327350524,1711327350295,2136932,0
1711327350524,1711327350335,2136959,0
1711327350524,1711327350375,2136940,0
1711327350524,1711327350415,2137043,0
1711327362566,1711327350455,2137121,0
1711327362566,1711327350495,2137083,0
1711327362566,1711327350536,2136969,0
1711327362566,1711327350575,2137128,0
1711327362566,1711327350615,2137061,0
1711327362566,1711327350655,2137083,0
1711327362566,1711327350695,2136826,0
1711327362566,1711327350736,2137230,0
1711327362566,1711327350776,2137831,0
1711327362566,1711327350816,2137801,0
1711327362566,1711327350856,2138151,0
1711327362566,1711327350896,2138379,0
1711327362566,1711327350937,2138230,0
1711327362566,1711327350976,2138109,0
1711327362566,1711327351016,2138610,0
1711327362566,1711327351056,2138699,0
1711327362566,1711327351096,2138787,0
1711327362566,1711327351137,2138927,0
1711327362566,1711327351176,2138934,0
1711327362566,1711327351217,2138941,0
1711327362566,1711327351257,2138878,0
1711327362566,1711327351297,2138907,0
1711327362566,1711327351338,2139054,0
1711327362566,1711327351377,2139364,0
1711327362566,1711327351417,2139638,0
1711327362566,1711327351457,2139661,0
1711327362566,1711327351497,2139918,0
1711327362566,1711327351538,2139989,0
1711327362566,1711327351578,2140339,0
1711327362566,1711327351618,2140693,0
1711327362566,1711327351658,2140933,0
1711327362566,1711327351698,2141330,0
1711327362566,1711327351738,2141562,0
1711327362566,1711327351778,2141749,0
1711327362566,1711327351818,2142209,0
1711327362566,1711327351858,2142439,0
1711327362566,1711327351898,2142570,0
1711327362566,1711327351939,2142527,0
1711327362566,1711327351978,2142408,0
1711327362566,1711327352018,2142560,0
1711327362566,1711327352059,2142669,0
1711327362566,1711327352099,2142699,0
1711327362566,1711327352139,2142751,0
1711327362566,1711327352179,2142687,0
1711327362566,1711327352219,2142739,0
1711327362566,1711327352259,2142732,0
1711327362566,1711327352299,2142968,0
1711327362566,1711327352340,2143027,0
1711327362566,1711327352379,2143242,0
1711327362566,1711327352419,2143359,0
1711327362566,1711327352459,2143535,0
1711327362566,1711327352500,2143723,0
1711327362566,1711327352541,2143716,0
1711327362566,1711327352580,2143790,0
1711327362566,1711327352620,2144114,0
1711327362566,1711327352660,2144196,0
1711327362566,1711327352700,2144537,0
1711327362566,1711327352741,2144826,0
1711327362566,1711327352780,2144981,0
1711327362566,1711327352820,2145199,0
1711327362566,1711327352861,2145324,0
1711327362566,1711327352901,2145512,0
1711327362566,1711327352941,2145541,0
1711327362566,1711327352981,2145817,0
1711327362566,1711327353021,2145726,0
1711327362566,1711327353061,2145614,0
1711327362566,1711327353101,2145736,0
1711327362566,1711327353142,2145949,0
1711327362566,1711327353181,2146069,0
1711327362566,1711327353221,2146041,0
1711327362566,1711327353262,2146325,0
1711327362566,1711327353302,2146634,0
1711327362566,1711327353343,2146735,0
1711327362566,1711327353382,2146792,0
1711327362566,1711327353422,2146864,0
1711327362566,1711327353462,2146801,0
1711327362566,1711327353502,2146926,0
1711327362566,1711327353543,2147158,0
1711327362566,1711327353582,2147332,0
1711327362566,1711327353623,2147566,0
1711327362566,1711327353663,2147565,0
1711327362566,1711327353703,2147453,0
1711327362566,1711327353744,2147667,0
1711327362566,1711327353783,2147809,0
1711327362566,1711327353823,2147841,0
1711327362566,1711327353863,2147899,0
1711327362566,1711327353903,2147919,0
1711327362566,1711327353944,2147882,0
1711327362566,1711327353984,2147947,0
1711327362566,1711327354024,2147987,0
1711327362566,1711327354064,2148098,0
1711327362566,1711327354104,2148227,0
1711327362566,1711327354145,2148309,0
1711327362566,1711327354184,2148471,0
1711327362566,1711327354224,2148558,0
1711327362566,1711327354264,2148741,0
1711327362566,1711327354305,2148817,0
1711327362566,1711327354345,2149013,0
1711327362566,1711327354385,2149163,0
1711327362566,1711327354425,2149179,0
1711327362566,1711327354465,2149330,0
1711327362566,1711327354505,2149385,0
1711327362566,1711327354546,2149500,0
1711327362566,1711327354585,2149376,0
1711327362566,1711327354625,2149555,0
1711327362566,1711327354666,2149563,0
1711327362566,1711327354706,2149577,0
1711327362566,1711327354747,2149878,0
1711327362566,1711327354786,2149991,0
1711327362566,1711327354826,2150128,0
1711327362566,1711327354866,2150151,0
1711327362566,1711327354906,2150281,0
1711327362566,1711327354947,2150348,0
1711327362566,1711327354987,2150552,0
1711327362566,1711327355027,2150679,0
1711327362566,1711327355067,2150757,0
1711327362566,1711327355107,2150807,0
1711327362566,1711327355148,2150874,0
1711327362566,1711327355187,2150933,0
1711327362566,1711327355227,2150876,0
1711327362566,1711327355267,2150400,0
1711327362566,1711327355308,2150411,0
1711327362566,1711327355348,2150765,0
1711327362566,1711327355388,2151119,0
1711327362566,1711327355428,2151385,0
1711327362566,1711327355468,2151557,0
1711327362566,1711327355508,2151747,0
1711327362566,1711327355549,2152370,0
1711327362566,1711327355588,2152677,0
1711327362566,1711327355628,2152469,0
1711327362566,1711327355669,2152311,0
1711327362566,1711327355709,2152032,0
1711327362566,1711327355749,2152370,0
1711327362566,1711327355789,2153158,0
1711327362566,1711327355829,2153546,0
1711327362566,1711327355869,2153896,0
1711327362566,1711327355909,2153856,0
1711327362566,1711327355950,2153709,0
1711327362566,1711327355990,2154465,0
1711327362566,1711327356030,2155032,0
1711327362566,1711327356070,2155023,0
1711327362566,1711327356110,2154754,0
1711327362566,1711327356151,2154193,0
1711327362566,1711327356190,2154144,0
1711327362566,1711327356230,2154658,0
1711327362566,1711327356270,2155043,0
1711327362566,1711327356310,2154494,0
1711327362566,1711327356351,2154266,0
1711327362566,1711327356391,2154073,0
1711327362566,1711327356431,2154258,0
1711327362566,1711327356471,2154809,0
1711327362566,1711327356511,2154967,0
1711327362566,1711327356552,2154459,0
1711327362566,1711327356591,2154084,0
1711327362566,1711327356631,2154049,0
1711327362566,1711327356671,2154268,0
1711327362566,1711327356711,2154703,0
1711327362566,1711327356752,2154930,0
1711327362566,1711327356791,2154621,0
1711327362566,1711327356831,2154516,0
1711327362566,1711327356872,2154854,0
1711327362566,1711327356912,2155101,0
1711327362566,1711327356952,2155471,0
1711327362566,1711327356992,2155729,0
1711327362566,1711327357032,2155759,0
1711327362566,1711327357072,2155880,0
1711327362566,1711327357112,2156113,0
1711327362566,1711327357153,2156386,0
1711327362566,1711327357192,2156478,0
1711327362566,1711327357232,2156644,0
1711327362566,1711327357272,2156648,0
1711327362566,1711327357312,2156550,0
1711327362566,1711327357353,2156356,0
1711327362566,1711327357393,2156287,0
1711327362566,1711327357433,2156458,0
1711327362566,1711327357473,2156427,0
1711327362566,1711327357513,2156521,0
1711327362566,1711327357554,2156446,0
1711327362566,1711327357593,2156485,0
1711327362566,1711327357633,2156500,0
1711327362566,1711327357673,2156662,0
1711327362566,1711327357714,2156806,0
1711327362566,1711327357754,2157031,0
1711327362566,1711327357794,2157365,0
1711327362566,1711327357834,2157523,0
1711327362566,1711327357874,2157418,0
1711327362566,1711327357914,2157323,0
1711327362566,1711327357955,2157370,0
1711327362566,1711327357994,2157539,0
1711327362566,1711327358034,2157514,0
1711327362566,1711327358074,2157168,0
1711327362566,1711327358114,2156837,0
1711327362566,1711327358155,2156938,0
1711327362566,1711327358195,2157334,0
1711327362566,1711327358235,2157424,0
1711327362566,1711327358275,2157445,0
1711327362566,1711327358315,2157407,0
1711327362566,1711327358356,2157429,0
1711327362566,1711327358395,2157649,0
1711327362566,1711327358435,2157761,0
1711327362566,1711327358475,2157953,0
1711327362566,1711327358515,2158237,0
1711327362566,1711327358556,2158630,0
1711327362566,1711327358595,2158706,0
1711327362566,1711327358636,2158935,0
1711327362566,1711327358676,2158940,0
1711327362566,1711327358716,2158913,0
1711327362566,1711327358757,2158676,0
1711327362566,1711327358796,2158555,0
1711327362566,1711327358836,2158537,0
1711327362566,1711327358876,2159187,0
1711327362566,1711327358917,2159448,0
1711327362566,1711327358957,2159563,0
1711327362566,1711327358997,2159372,0
1711327362566,1711327359037,2159109,0
1711327362566,1711327359077,2158818,0
1711327362566,1711327359117,2158820,0
1711327362566,1711327359158,2159014,0
1711327362566,1711327359197,2159344,0
1711327362566,1711327359237,2159550,0
1711327362566,1711327359278,2159683,0
1711327362566,1711327359318,2159824,0
1711327362566,1711327359358,2159962,0
1711327362566,1711327359398,2160019,0
1711327362566,1711327359438,2160110,0
1711327362566,1711327359478,2160258,0
1711327362566,1711327359518,2160486,0
1711327362566,1711327359559,2160712,0
1711327362566,1711327359598,2161069,0
1711327362566,1711327359638,2161412,0
1711327362566,1711327359678,2161634,0
1711327362566,1711327359719,2161791,0
1711327362566,1711327359760,2162017,0
1711327362566,1711327359799,2162255,0
1711327362566,1711327359839,2162388,0
1711327362566,1711327359879,2162531,0
1711327362566,1711327359919,2162677,0
1711327362566,1711327359960,2162906,0
1711327362566,1711327359999,2163033,0
1711327362566,1711327360039,2163185,0
1711327362566,1711327360080,2163450,0
1711327362566,1711327360120,2163548,0
1711327362566,1711327360160,2163526,0
1711327362566,1711327360200,2163583,0
1711327362566,1711327360240,2163636,0
1711327362566,1711327360280,2163713,0
1711327362566,1711327360320,2164064,0
1711327362566,1711327360361,2164142,0
1711327362566,1711327360400,2164249,0
1711327362566,1711327360440,2164383,0
1711327362566,1711327360481,2164598,0
1711327362566,1711327360521,2164483,0
1711327362566,1711327360561,2164748,0
1711327362566,1711327360601,2164909,0
1711327362566,1711327360641,2165077,0
1711327362566,1711327360681,2165129,0
1711327362566,1711327360721,2165207,0
1711327362566,1711327360762,2165278,0
1711327362566,1711327360801,2165313,0
1711327362566,1711327360842,2165206,0
1711327362566,1711327360882,2165339,0
1711327362566,1711327360922,2165299,0
1711327362566,1711327360963,2165293,0
1711327362566,1711327361002,2165348,0
1711327362566,1711327361042,2165282,0
1711327362566,1711327361082,2165383,0
1711327362566,1711327361122,2165543,0
1711327362566,1711327361163,2165734,0
1711327362566,1711327361203,2165713,0
1711327362566,1711327361243,2165770,0
1711327362566,1711327361283,2165784,0
1711327362566,1711327361323,2165703,0
1711327362566,1711327361364,2165547,0
1711327362566,1711327361403,2165544,0
1711327362566,1711327361443,2165309,0
1711327362566,1711327361483,2165325,0
1711327362566,1711327361523,2165366,0
1711327362566,1711327361564,2165459,0
1711327362566,1711327361604,2165422,0
1711327362566,1711327361644,2165417,0
1711327362566,1711327361684,2165533,0
1711327362566,1711327361724,2165439,0
1711327362566,1711327361765,2165505,0
1711327362566,1711327361804,2165652,0
1711327362566,1711327361844,2165753,0
1711327362566,1711327361884,2165614,0
1711327362566,1711327361925,2165705,0
1711327362566,1711327361965,2165945,0
1711327362566,1711327362005,2166020,0
1711327362566,1711327362045,2166145,0
1711327362566,1711327362085,2166315,0
1711327362566,1711327362125,2166448,0
1711327362566,1711327362166,2166463,0
1711327362566,1711327362205,2166388,0
1711327362566,1711327362245,2166569,0
1711327362566,1711327362286,2166722,0
1711327362566,1711327362326,2166498,0
1711327362566,1711327362367,2166621,0
1711327362566,1711327362406,2166510,0
1711327362566,1711327362446,2166644,0
1711327374587,1711327362485,2166558,0
1711327374587,1711327362526,2166712,0
1711327374587,1711327362566,2166873,0
1711327374587,1711327362606,2167108,0
1711327374587,1711327362646,2167022,0
1711327374587,1711327362686,2167034,0
1711327374587,1711327362726,2167260,0
1711327374587,1711327362767,2167478,0
1711327374587,1711327362806,2167562,0
1711327374587,1711327362847,2167539,0
1711327374587,1711327362887,2167757,0
1711327374587,1711327362927,2167711,0
1711327374587,1711327362967,2167932,0
1711327374587,1711327363007,2167897,0
1711327374587,1711327363047,2168054,0
1711327374587,1711327363087,2168035,0
1711327374587,1711327363127,2168094,0
1711327374587,1711327363168,2168238,0
1711327374587,1711327363208,2168344,0
1711327374587,1711327363248,2168525,0
1711327374587,1711327363288,2168800,0
1711327374587,1711327363328,2168858,0
1711327374587,1711327363369,2169113,0
1711327374587,1711327363408,2169362,0
1711327374587,1711327363448,2169588,0
1711327374587,1711327363489,2169607,0
1711327374587,1711327363528,2169625,0
1711327374587,1711327363569,2169636,0
1711327374587,1711327363609,2169590,0
1711327374587,1711327363649,2169633,0
1711327374587,1711327363689,2169800,0
1711327374587,1711327363729,2170051,0
1711327374587,1711327363770,2169962,0
1711327374587,1711327363809,2170075,0
1711327374587,1711327363849,2170196,0
1711327374587,1711327363889,2170412,0
1711327374587,1711327363929,2170607,0
1711327374587,1711327363970,2170767,0
1711327374587,1711327364010,2170974,0
1711327374587,1711327364050,2171139,0
1711327374587,1711327364090,2171244,0
1711327374587,1711327364130,2171366,0
1711327374587,1711327364170,2171548,0
1711327374587,1711327364210,2171759,0
1711327374587,1711327364250,2171859,0
1711327374587,1711327364290,2172044,0
1711327374587,1711327364330,2172429,0
1711327374587,1711327364371,2172706,0
1711327374587,1711327364410,2173038,0
1711327374587,1711327364450,2173393,0
1711327374587,1711327364490,2173468,0
1711327374587,1711327364531,2173210,0
1711327374587,1711327364571,2172759,0
1711327374587,1711327364611,2172490,0
1711327374587,1711327364651,2172331,0
1711327374587,1711327364691,2172450,0
1711327374587,1711327364731,2172482,0
1711327374587,1711327364772,2172559,0
1711327374587,1711327364811,2172640,0
1711327374587,1711327364851,2172752,0
1711327374587,1711327364891,2172977,0
1711327374587,1711327364932,2173049,0
1711327374587,1711327364972,2173258,0
1711327374587,1711327365012,2173376,0
1711327374587,1711327365052,2173517,0
1711327374587,1711327365092,2173511,0
1711327374587,1711327365132,2173753,0
1711327374587,1711327365173,2174033,0
1711327374587,1711327365212,2174183,0
1711327374587,1711327365252,2173918,0
1711327374587,1711327365292,2173155,0
1711327374587,1711327365332,2172897,0
1711327374587,1711327365373,2172812,0
1711327374587,1711327365413,2173048,0
1711327374587,1711327365453,2173559,0
1711327374587,1711327365493,2173882,0
1711327374587,1711327365533,2174205,0
1711327374587,1711327365574,2174423,0
1711327374587,1711327365613,2174678,0
1711327374587,1711327365653,2174995,0
1711327374587,1711327365693,2175301,0
1711327374587,1711327365733,2175455,0
1711327374587,1711327365774,2175518,0
1711327374587,1711327365814,2175817,0
1711327374587,1711327365854,2176012,0
1711327374587,1711327365894,2176050,0
1711327374587,1711327365934,2176336,0
1711327374587,1711327365975,2176446,0
1711327374587,1711327366014,2176415,0
1711327374587,1711327366054,2175984,0
1711327374587,1711327366094,2175708,0
1711327374587,1711327366134,2175699,0
1711327374587,1711327366175,2176019,0
1711327374587,1711327366214,2176434,0
1711327374587,1711327366255,2176738,0
1711327374587,1711327366295,2177018,0
1711327374587,1711327366335,2177324,0
1711327374587,1711327366376,2177620,0
1711327374587,1711327366415,2177828,0
1711327374587,1711327366455,2178055,0
1711327374587,1711327366495,2178223,0
1711327374587,1711327366535,2178424,0
1711327374587,1711327366576,2178641,0
1711327374587,1711327366615,2178688,0
1711327374587,1711327366655,2178903,0
1711327374587,1711327366696,2179009,0
1711327374587,1711327366736,2179126,0
1711327374587,1711327366777,2179064,0
1711327374587,1711327366816,2179014,0
1711327374587,1711327366856,2178920,0
1711327374587,1711327366896,2179192,0
1711327374587,1711327366936,2179429,0
1711327374587,1711327366977,2179646,0
1711327374587,1711327367016,2180011,0
1711327374587,1711327367057,2180165,0
1711327374587,1711327367097,2180501,0
1711327374587,1711327367137,2180868,0
1711327374587,1711327367178,2181150,0
1711327374587,1711327367217,2181347,0
1711327374587,1711327367257,2181515,0
1711327374587,1711327367297,2181711,0
1711327374587,1711327367338,2181991,0
1711327374587,1711327367378,2182214,0
1711327374587,1711327367417,2182501,0
1711327374587,1711327367458,2182477,0
1711327374587,1711327367498,2182721,0
1711327374587,1711327367538,2182704,0
1711327374587,1711327367579,2182386,0
1711327374587,1711327367618,2182184,0
1711327374587,1711327367658,2182080,0
1711327374587,1711327367698,2182075,0
1711327374587,1711327367738,2182356,0
1711327374587,1711327367779,2182527,0
1711327374587,1711327367819,2182765,0
1711327374587,1711327367859,2182857,0
1711327374587,1711327367899,2183135,0
1711327374587,1711327367939,2183230,0
1711327374587,1711327367980,2183405,0
1711327374587,1711327368019,2183572,0
1711327374587,1711327368060,2183551,0
1711327374587,1711327368100,2183769,0
1711327374587,1711327368140,2183666,0
1711327374587,1711327368181,2183416,0
1711327374587,1711327368220,2183395,0
1711327374587,1711327368260,2183233,0
1711327374587,1711327368300,2182984,0
1711327374587,1711327368340,2181946,0
1711327374587,1711327368381,2180994,0
1711327374587,1711327368421,2180525,0
1711327374587,1711327368460,2180130,0
1711327374587,1711327368501,2180260,0
1711327374587,1711327368541,2180214,0
1711327374587,1711327368581,2180260,0
1711327374587,1711327368621,2179996,0
1711327374587,1711327368661,2179996,0
1711327374587,1711327368701,2179842,0
1711327374587,1711327368741,2179981,0
1711327374587,1711327368782,2179823,0
1711327374587,1711327368822,2180017,0
1711327374587,1711327368862,2179893,0
1711327374587,1711327368902,2179995,0
1711327374587,1711327368942,2180044,0
1711327374587,1711327368983,2180373,0
1711327374587,1711327369022,2180404,0
1711327374587,1711327369062,2180284,0
1711327374587,1711327369102,2180180,0
1711327374587,1711327369142,2179639,0
1711327374587,1711327369183,2179336,0
1711327374587,1711327369223,2179089,0
1711327374587,1711327369263,2179128,0
1711327374587,1711327369303,2179110,0
1711327374587,1711327369343,2179286,0
1711327374587,1711327369384,2179397,0
1711327374587,1711327369423,2179404,0
1711327374587,1711327369463,2179739,0
1711327374587,1711327369504,2179606,0
1711327374587,1711327369544,2179827,0
1711327374587,1711327369585,2180019,0
1711327374587,1711327369624,2180125,0
1711327374587,1711327369664,2180329,0
1711327374587,1711327369704,2180527,0
1711327374587,1711327369744,2180639,0
1711327374587,1711327369785,2180951,0
1711327374587,1711327369825,2180947,0
1711327374587,1711327369865,2181142,0
1711327374587,1711327369905,2181182,0
1711327374587,1711327369945,2181151,0
1711327374587,1711327369986,2181224,0
1711327374587,1711327370025,2181392,0
1711327374587,1711327370065,2181400,0
1711327374587,1711327370106,2181376,0
1711327374587,1711327370146,2181684,0
1711327374587,1711327370187,2181822,0
1711327374587,1711327370226,2181852,0
1711327374587,1711327370266,2181858,0
1711327374587,1711327370306,2181992,0
1711327374587,1711327370347,2182025,0
1711327374587,1711327370387,2181852,0
1711327374587,1711327370427,2181940,0
1711327374587,1711327370467,2181929,0
1711327374587,1711327370507,2181952,0
1711327374587,1711327370547,2181728,0
1711327374587,1711327370588,2181612,0
1711327374587,1711327370627,2181373,0
1711327374587,1711327370667,2181233,0
1711327374587,1711327370708,2181229,0
1711327374587,1711327370747,2181378,0
1711327374587,1711327370788,2181708,0
1711327374587,1711327370828,2181938,0
1711327374587,1711327370868,2182381,0
1711327374587,1711327370908,2182666,0
1711327374587,1711327370948,2183020,0
1711327374587,1711327370989,2183315,0
1711327374587,1711327371028,2183494,0
1711327374587,1711327371069,2183691,0
1711327374587,1711327371109,2183844,0
1711327374587,1711327371149,2184032,0
1711327374587,1711327371190,2184245,0
1711327374587,1711327371229,2184452,0
1711327374587,1711327371269,2184551,0
1711327374587,1711327371309,2184653,0
1711327374587,1711327371349,2184961,0
1711327374587,1711327371390,2185095,0
1711327374587,1711327371429,2185231,0
1711327374587,1711327371469,2185251,0
1711327374587,1711327371509,2185561,0
1711327374587,1711327371550,2185577,0
1711327374587,1711327371590,2185796,0
1711327374587,1711327371629,2185937,0
1711327374587,1711327371670,2186147,0
1711327374587,1711327371710,2186123,0
1711327374587,1711327371750,2186285,0
1711327374587,1711327371791,2186332,0
1711327374587,1711327371830,2186381,0
1711327374587,1711327371870,2186319,0
1711327374587,1711327371910,2186426,0
1711327374587,1711327371950,2186415,0
1711327374587,1711327371991,2186618,0
1711327374587,1711327372031,2186759,0
1711327374587,1711327372070,2186753,0
1711327374587,1711327372111,2186916,0
1711327374587,1711327372151,2187088,0
1711327374587,1711327372191,2186884,0
1711327374587,1711327372231,2186816,0
1711327374587,1711327372271,2186471,0
1711327374587,1711327372311,2186458,0
1711327374587,1711327372351,2186311,0
1711327374587,1711327372392,2186372,0
1711327374587,1711327372431,2186475,0
1711327374587,1711327372471,2186464,0
1711327374587,1711327372512,2186562,0
1711327374587,1711327372552,2186744,0
1711327374587,1711327372592,2186844,0
1711327374587,1711327372632,2187089,0
1711327374587,1711327372672,2187076,0
1711327374587,1711327372712,2187284,0
1711327374587,1711327372752,2187315,0
1711327374587,1711327372793,2187433,0
1711327374587,1711327372832,2187565,0
1711327374587,1711327372872,2187576,0
1711327374587,1711327372912,2187553,0
1711327374587,1711327372952,2187590,0
1711327374587,1711327372993,2187577,0
1711327374587,1711327373033,2187228,0
1711327374587,1711327373073,2187063,0
1711327374587,1711327373113,2186978,0
1711327374587,1711327373153,2187131,0
1711327374587,1711327373194,2187249,0
1711327374587,1711327373233,2187453,0
1711327374587,1711327373273,2187442,0
1711327374587,1711327373313,2187511,0
1711327374587,1711327373353,2187662,0
1711327374587,1711327373394,2187764,0
1711327374587,1711327373434,2187716,0
1711327374587,1711327373474,2187832,0
1711327374587,1711327373514,2187955,0
1711327374587,1711327373554,2188029,0
1711327374587,1711327373595,2187951,0
1711327374587,1711327373634,2188089,0
1711327374587,1711327373674,2188073,0
1711327374587,1711327373714,2187649,0
1711327374587,1711327373754,2186834,0
1711327374587,1711327373795,2186554,0
1711327374587,1711327373835,2186698,0
1711327374587,1711327373875,2186986,0
1711327374587,1711327373915,2187186,0
1711327374587,1711327373955,2187485,0
1711327374587,1711327373996,2187695,0
1711327374587,1711327374035,2187776,0
1711327374587,1711327374075,2188022,0
1711327374587,1711327374115,2188264,0
1711327374587,1711327374155,2188484,0
1711327374587,1711327374196,2188610,0
1711327374587,1711327374235,2188753,0
1711327374587,1711327374276,2188841,0
1711327374587,1711327374316,2189274,0
1711327374587,1711327374356,2189640,0
1711327374587,1711327374397,2189755,0
1711327374587,1711327374436,2189126,0
1711327374587,1711327374476,2187621,0
1711327386607,1711327374517,2186882,0
1711327386607,1711327374557,2186325,0
1711327386607,1711327374598,2186458,0
1711327386607,1711327374638,2186662,0
1711327386607,1711327374678,2187046,0
1711327386607,1711327374718,2187736,0
1711327386607,1711327374758,2189131,0
1711327386607,1711327374799,2190302,0
1711327386607,1711327374838,2190155,0
1711327386607,1711327374878,2189469,0
1711327386607,1711327374918,2189612,0
1711327386607,1711327374958,2190573,0
1711327386607,1711327374999,2191555,0
1711327386607,1711327375039,2192472,0
1711327386607,1711327375079,2192848,0
1711327386607,1711327375119,2192752,0
1711327386607,1711327375159,2192452,0
1711327386607,1711327375200,2191538,0
1711327386607,1711327375239,2191179,0
1711327386607,1711327375279,2191000,0
1711327386607,1711327375319,2191195,0
1711327386607,1711327375360,2191682,0
1711327386607,1711327375401,2192139,0
1711327386607,1711327375440,2192670,0
1711327386607,1711327375480,2193005,0
1711327386607,1711327375520,2193203,0
1711327386607,1711327375560,2193509,0
1711327386607,1711327375601,2193728,0
1711327386607,1711327375641,2193840,0
1711327386607,1711327375681,2194029,0
1711327386607,1711327375721,2194287,0
1711327386607,1711327375761,2194399,0
1711327386607,1711327375802,2194586,0
1711327386607,1711327375841,2194640,0
1711327386607,1711327375881,2194652,0
1711327386607,1711327375921,2194699,0
1711327386607,1711327375961,2193991,0
1711327386607,1711327376002,2193458,0
1711327386607,1711327376041,2193387,0
1711327386607,1711327376082,2193435,0
1711327386607,1711327376122,2193784,0
1711327386607,1711327376162,2193884,0
1711327386607,1711327376203,2193872,0
1711327386607,1711327376242,2193898,0
1711327386607,1711327376282,2193923,0
1711327386607,1711327376322,2193787,0
1711327386607,1711327376362,2193868,0
1711327386607,1711327376403,2193987,0
1711327386607,1711327376442,2194319,0
1711327386607,1711327376483,2194342,0
1711327386607,1711327376523,2194049,0
1711327386607,1711327376563,2193514,0
1711327386607,1711327376604,2194267,0
1711327386607,1711327376643,2193489,0
1711327386607,1711327376683,2188171,0
1711327386607,1711327376723,2185596,0
1711327386607,1711327376763,2184167,0
1711327386607,1711327376804,2182168,0
1711327386607,1711327376844,2181387,0
1711327386607,1711327376884,2181566,0
1711327386607,1711327376924,2181379,0
1711327386607,1711327376964,2181938,0
1711327386607,1711327377005,2182107,0
1711327386607,1711327377044,2182518,0
1711327386607,1711327377084,2183769,0
1711327386607,1711327377124,2185402,0
1711327386607,1711327377164,2186894,0
1711327386607,1711327377205,2187647,0
1711327386607,1711327377245,2188870,0
1711327386607,1711327377285,2189838,0
1711327386607,1711327377325,2190291,0
1711327386607,1711327377365,2190128,0
1711327386607,1711327377406,2188185,0
1711327386607,1711327377445,2186775,0
1711327386607,1711327377485,2186511,0
1711327386607,1711327377525,2186043,0
1711327386607,1711327377566,2186138,0
1711327386607,1711327377607,2186358,0
1711327386607,1711327377646,2186553,0
1711327386607,1711327377686,2186570,0
1711327386607,1711327377726,2186951,0
1711327386607,1711327377766,2187710,0
1711327386607,1711327377807,2188471,0
1711327386607,1711327377846,2189243,0
1711327386607,1711327377886,2189482,0
1711327386607,1711327377927,2189870,0
1711327386607,1711327377967,2190903,0
1711327386607,1711327378007,2191867,0
1711327386607,1711327378047,2192874,0
1711327386607,1711327378087,2194060,0
1711327386607,1711327378127,2193504,0
1711327386607,1711327378167,2187177,0
1711327386607,1711327378208,2184506,0
1711327386607,1711327378247,2183041,0
1711327386607,1711327378288,2181743,0
1711327386607,1711327378328,2181976,0
1711327386607,1711327378368,2182945,0
1711327386607,1711327378409,2182839,0
1711327386607,1711327378448,2182466,0
1711327386607,1711327378488,2181491,0
1711327386607,1711327378528,2180787,0
1711327386607,1711327378568,2181399,0
1711327386607,1711327378609,2182601,0
1711327386607,1711327378649,2182972,0
1711327386607,1711327378689,2184048,0
1711327386607,1711327378729,2183991,0
1711327386607,1711327378769,2183775,0
1711327386607,1711327378810,2182128,0
1711327386607,1711327378849,2182937,0
1711327386607,1711327378890,2186261,0
1711327386607,1711327378929,2188226,0
1711327386607,1711327378969,2190019,0
1711327386607,1711327379010,2191202,0
1711327386607,1711327379049,2191266,0
1711327386607,1711327379090,2190559,0
1711327386607,1711327379130,2190788,0
1711327386607,1711327379170,2191547,0
1711327386607,1711327379210,2192110,0
1711327386607,1711327379250,2190797,0
1711327386607,1711327379290,2188007,0
1711327386607,1711327379330,2188782,0
1711327386607,1711327379370,2191211,0
1711327386607,1711327379411,2192484,0
1711327386607,1711327379450,2194915,0
1711327386607,1711327379490,2197333,0
1711327386607,1711327379530,2199138,0
1711327386607,1711327379571,2199777,0
1711327386607,1711327379611,2200293,0
1711327386607,1711327379651,2197965,0
1711327386607,1711327379691,2194540,0
1711327386607,1711327379731,2192994,0
1711327386607,1711327379771,2192135,0
1711327386607,1711327379812,2192119,0
1711327386607,1711327379851,2191311,0
1711327386607,1711327379891,2190459,0
1711327386607,1711327379931,2189953,0
1711327386607,1711327379972,2190979,0
1711327386607,1711327380012,2193397,0
1711327386607,1711327380052,2196495,0
1711327386607,1711327380092,2198116,0
1711327386607,1711327380132,2199589,0
1711327386607,1711327380172,2200110,0
1711327386607,1711327380213,2200406,0
1711327386607,1711327380252,2200995,0
1711327386607,1711327380292,2201735,0
1711327386607,1711327380332,2201686,0
1711327386607,1711327380372,2202404,0
1711327386607,1711327380413,2203227,0
1711327386607,1711327380453,2203749,0
1711327386607,1711327380493,2204026,0
1711327386607,1711327380533,2203697,0
1711327386607,1711327380573,2203339,0
1711327386607,1711327380614,2203228,0
1711327386607,1711327380653,2203368,0
1711327386607,1711327380693,2204282,0
1711327386607,1711327380733,2206056,0
1711327386607,1711327380773,2207393,0
1711327386607,1711327380814,2207660,0
1711327386607,1711327380853,2207853,0
1711327386607,1711327380893,2207950,0
1711327386607,1711327380934,2207800,0
1711327386607,1711327380974,2207849,0
1711327386607,1711327381015,2207582,0
1711327386607,1711327381054,2207107,0
1711327386607,1711327381094,2206661,0
1711327386607,1711327381134,2206294,0
1711327386607,1711327381174,2206186,0
1711327386607,1711327381215,2206014,0
1711327386607,1711327381254,2205875,0
1711327386607,1711327381295,2205797,0
1711327386607,1711327381335,2205634,0
1711327386607,1711327381375,2205625,0
1711327386607,1711327381416,2205593,0
1711327386607,1711327381455,2205630,0
1711327386607,1711327381495,2205471,0
1711327386607,1711327381535,2205306,0
1711327386607,1711327381575,2205287,0
1711327386607,1711327381616,2205283,0
1711327386607,1711327381655,2205242,0
1711327386607,1711327381695,2205168,0
1711327386607,1711327381736,2205297,0
1711327386607,1711327381776,2205264,0
1711327386607,1711327381817,2205422,0
1711327386607,1711327381856,2205580,0
1711327386607,1711327381896,2205632,0
1711327386607,1711327381936,2205682,0
1711327386607,1711327381976,2205814,0
1711327386607,1711327382017,2205809,0
1711327386607,1711327382057,2205787,0
1711327386607,1711327382097,2205923,0
1711327386607,1711327382137,2205998,0
1711327386607,1711327382177,2205911,0
1711327386607,1711327382218,2206098,0
1711327386607,1711327382257,2206231,0
1711327386607,1711327382297,2206301,0
1711327386607,1711327382337,2206366,0
1711327386607,1711327382378,2206584,0
1711327386607,1711327382418,2206602,0
1711327386607,1711327382458,2206803,0
1711327386607,1711327382498,2206906,0
1711327386607,1711327382538,2206985,0
1711327386607,1711327382578,2207236,0
1711327386607,1711327382619,2207339,0
1711327386607,1711327382658,2207509,0
1711327386607,1711327382698,2207652,0
1711327386607,1711327382741,2207924,0
1711327386607,1711327382779,2208127,0
1711327386607,1711327382819,2208059,0
1711327386607,1711327382859,2207725,0
1711327386607,1711327382899,2207518,0
1711327386607,1711327382939,2207447,0
1711327386607,1711327382979,2207533,0
1711327386607,1711327383020,2207729,0
1711327386607,1711327383059,2207778,0
1711327386607,1711327383100,2207836,0
1711327386607,1711327383140,2207870,0
1711327386607,1711327383180,2207718,0
1711327386607,1711327383221,2207665,0
1711327386607,1711327383260,2207751,0
1711327386607,1711327383300,2207779,0
1711327386607,1711327383340,2207810,0
1711327386607,1711327383380,2207846,0
1711327386607,1711327383421,2207794,0
1711327386607,1711327383461,2207771,0
1711327386607,1711327383501,2207603,0
1711327386607,1711327383541,2207307,0
1711327386607,1711327383581,2207447,0
1711327386607,1711327383622,2207592,0
1711327386607,1711327383661,2207563,0
1711327386607,1711327383701,2207531,0
1711327386607,1711327383741,2207625,0
1711327386607,1711327383782,2207691,0
1711327386607,1711327383822,2207738,0
1711327386607,1711327383862,2207752,0
1711327386607,1711327383902,2207933,0
1711327386607,1711327383942,2207926,0
1711327386607,1711327383982,2208145,0
1711327386607,1711327384023,2208049,0
1711327386607,1711327384063,2208204,0
1711327386607,1711327384102,2208291,0
1711327386607,1711327384143,2208432,0
1711327386607,1711327384183,2208481,0
1711327386607,1711327384224,2208321,0
1711327386607,1711327384263,2208393,0
1711327386607,1711327384303,2208497,0
1711327386607,1711327384343,2208616,0
1711327386607,1711327384383,2208709,0
1711327386607,1711327384424,2208615,0
1711327386607,1711327384464,2208773,0
1711327386607,1711327384504,2208919,0
1711327386607,1711327384544,2209032,0
1711327386607,1711327384584,2208934,0
1711327386607,1711327384625,2209069,0
1711327386607,1711327384664,2209142,0
1711327386607,1711327384704,2209222,0
1711327386607,1711327384744,2209316,0
1711327386607,1711327384785,2209380,0
1711327386607,1711327384825,2209403,0
1711327386607,1711327384865,2209593,0
1711327386607,1711327384905,2209655,0
1711327386607,1711327384948,2209769,0
1711327386607,1711327384985,2209852,0
1711327386607,1711327385026,2209817,0
1711327386607,1711327385065,2209934,0
1711327386607,1711327385105,2209879,0
1711327386607,1711327385146,2210037,0
1711327386607,1711327385186,2210123,0
1711327386607,1711327385227,2210146,0
1711327386607,1711327385266,2210480,0
1711327386607,1711327385306,2210726,0
1711327386607,1711327385346,2210808,0
1711327386607,1711327385387,2210708,0
1711327386607,1711327385427,2210729,0
1711327386607,1711327385467,2210843,0
1711327386607,1711327385507,2210820,0
1711327386607,1711327385547,2211078,0
1711327386607,1711327385587,2211231,0
1711327386607,1711327385628,2211421,0
1711327386607,1711327385667,2211451,0
1711327386607,1711327385707,2211577,0
1711327386607,1711327385748,2211581,0
1711327386607,1711327385788,2211507,0
1711327386607,1711327385828,2211446,0
1711327386607,1711327385868,2211537,0
1711327386607,1711327385908,2211598,0
1711327386607,1711327385948,2211722,0
1711327386607,1711327385988,2211802,0
1711327386607,1711327386029,2211924,0
1711327386607,1711327386069,2212138,0
1711327386607,1711327386109,2212235,0
1711327386607,1711327386149,2212311,0
1711327386607,1711327386189,2212446,0
1711327386607,1711327386230,2212414,0
1711327386607,1711327386269,2212543,0
1711327386607,1711327386309,2212570,0
1711327386607,1711327386349,2212626,0
1711327386607,1711327386389,2212804,0
1711327386607,1711327386430,2212770,0
1711327386607,1711327386470,2212928,0
1711327386607,1711327386509,2212930,0
1711327398608,1711327386550,2212928,0
1711327398608,1711327386590,2212947,0
1711327398608,1711327386630,2213042,0
1711327398608,1711327386670,2213111,0
1711327398608,1711327386710,2213112,0
1711327398608,1711327386750,2213293,0
1711327398608,1711327386790,2213242,0
1711327398608,1711327386831,2213250,0
1711327398608,1711327386870,2213378,0
1711327398608,1711327386910,2213373,0
1711327398608,1711327386951,2213561,0
1711327398608,1711327386991,2213581,0
1711327398608,1711327387031,2213687,0
1711327398608,1711327387071,2213781,0
1711327398608,1711327387111,2213844,0
1711327398608,1711327387151,2214011,0
1711327398608,1711327387191,2214063,0
1711327398608,1711327387232,2214162,0
1711327398608,1711327387271,2214213,0
1711327398608,1711327387311,2214323,0
1711327398608,1711327387351,2214361,0
1711327398608,1711327387391,2214364,0
1711327398608,1711327387432,2214329,0
1711327398608,1711327387472,2214478,0
1711327398608,1711327387512,2214453,0
1711327398608,1711327387552,2214573,0
1711327398608,1711327387592,2214675,0
1711327398608,1711327387633,2214904,0
1711327398608,1711327387672,2214900,0
1711327398608,1711327387712,2214921,0
1711327398608,1711327387752,2215120,0
1711327398608,1711327387793,2215234,0
1711327398608,1711327387833,2215204,0
1711327398608,1711327387872,2215322,0
1711327398608,1711327387913,2215439,0
1711327398608,1711327387953,2215541,0
1711327398608,1711327387993,2215642,0
1711327398608,1711327388034,2215480,0
1711327398608,1711327388073,2215605,0
1711327398608,1711327388113,2215836,0
1711327398608,1711327388153,2215814,0
1711327398608,1711327388193,2215891,0
1711327398608,1711327388234,2215943,0
1711327398608,1711327388273,2216097,0
1711327398608,1711327388313,2216017,0
1711327398608,1711327388354,2216177,0
1711327398608,1711327388394,2216122,0
1711327398608,1711327388434,2216103,0
1711327398608,1711327388474,2216132,0
1711327398608,1711327388514,2216166,0
1711327398608,1711327388554,2216188,0
1711327398608,1711327388594,2216049,0
1711327398608,1711327388635,2216131,0
1711327398608,1711327388674,2216154,0
1711327398608,1711327388714,2216263,0
1711327398608,1711327388755,2216139,0
1711327398608,1711327388795,2216180,0
1711327398608,1711327388835,2216208,0
1711327398608,1711327388875,2216220,0
1711327398608,1711327388915,2216201,0
1711327398608,1711327388955,2216158,0
1711327398608,1711327388995,2216256,0
1711327398608,1711327389036,2216167,0
1711327398608,1711327389075,2216179,0
1711327398608,1711327389116,2216270,0
1711327398608,1711327389155,2216408,0
1711327398608,1711327389196,2216436,0
1711327398608,1711327389237,2216606,0
1711327398608,1711327389276,2216672,0
1711327398608,1711327389316,2216695,0
1711327398608,1711327389356,2216787,0
1711327398608,1711327389396,2216785,0
1711327398608,1711327389437,2216895,0
1711327398608,1711327389476,2217039,0
1711327398608,1711327389516,2217103,0
1711327398608,1711327389557,2217139,0
1711327398608,1711327389597,2217250,0
1711327398608,1711327389637,2217263,0
1711327398608,1711327389677,2217101,0
1711327398608,1711327389717,2217228,0
1711327398608,1711327389757,2217257,0
1711327398608,1711327389797,2217221,0
1711327398608,1711327389838,2217233,0
1711327398608,1711327389877,2217297,0
1711327398608,1711327389917,2217407,0
1711327398608,1711327389958,2217682,0
1711327398608,1711327389998,2217717,0
1711327398608,1711327390038,2217881,0
1711327398608,1711327390078,2217963,0
1711327398608,1711327390118,2218007,0
1711327398608,1711327390158,2217972,0
1711327398608,1711327390198,2218016,0
1711327398608,1711327390239,2218002,0
1711327398608,1711327390278,2218233,0
1711327398608,1711327390319,2218323,0
1711327398608,1711327390359,2218479,0
1711327398608,1711327390399,2218468,0
1711327398608,1711327390440,2218215,0
1711327398608,1711327390479,2218294,0
1711327398608,1711327390519,2218305,0
1711327398608,1711327390559,2218362,0
1711327398608,1711327390599,2218305,0
1711327398608,1711327390640,2218430,0
1711327398608,1711327390679,2218531,0
1711327398608,1711327390719,2218785,0
1711327398608,1711327390759,2218967,0
1711327398608,1711327390800,2218929,0
1711327398608,1711327390840,2219020,0
1711327398608,1711327390880,2219211,0
1711327398608,1711327390920,2219402,0
1711327398608,1711327390960,2219583,0
1711327398608,1711327391000,2219710,0
1711327398608,1711327391041,2219810,0
1711327398608,1711327391080,2219957,0
1711327398608,1711327391121,2219983,0
1711327398608,1711327391161,2220077,0
1711327398608,1711327391201,2220208,0
1711327398608,1711327391242,2220195,0
1711327398608,1711327391281,2220288,0
1711327398608,1711327391321,2220223,0
1711327398608,1711327391361,2220331,0
1711327398608,1711327391401,2220486,0
1711327398608,1711327391442,2220551,0
1711327398608,1711327391482,2220588,0
1711327398608,1711327391522,2220567,0
1711327398608,1711327391562,2220529,0
1711327398608,1711327391602,2220649,0
1711327398608,1711327391643,2220641,0
1711327398608,1711327391682,2220667,0
1711327398608,1711327391722,2220702,0
1711327398608,1711327391763,2220882,0
1711327398608,1711327391802,2220908,0
1711327398608,1711327391843,2220882,0
1711327398608,1711327391883,2220763,0
1711327398608,1711327391923,2220676,0
1711327398608,1711327391963,2220854,0
1711327398608,1711327392003,2221088,0
1711327398608,1711327392044,2221604,0
1711327398608,1711327392083,2221975,0
1711327398608,1711327392124,2221996,0
1711327398608,1711327392164,2222172,0
1711327398608,1711327392204,2222607,0
1711327398608,1711327392245,2223075,0
1711327398608,1711327392284,2223423,0
1711327398608,1711327392324,2223327,0
1711327398608,1711327392364,2223343,0
1711327398608,1711327392404,2223484,0
1711327398608,1711327392445,2223510,0
1711327398608,1711327392485,2223723,0
1711327398608,1711327392525,2223717,0
1711327398608,1711327392565,2223756,0
1711327398608,1711327392605,2223825,0
1711327398608,1711327392646,2223876,0
1711327398608,1711327392685,2224094,0
1711327398608,1711327392725,2224352,0
1711327398608,1711327392765,2224445,0
1711327398608,1711327392806,2224379,0
1711327398608,1711327392846,2224339,0
1711327398608,1711327392886,2224074,0
1711327398608,1711327392926,2223845,0
1711327398608,1711327392966,2223946,0
1711327398608,1711327393006,2223780,0
1711327398608,1711327393047,2223956,0
1711327398608,1711327393086,2223974,0
1711327398608,1711327393126,2224059,0
1711327398608,1711327393167,2224031,0
1711327398608,1711327393207,2224153,0
1711327398608,1711327393247,2224248,0
1711327398608,1711327393287,2224266,0
1711327398608,1711327393327,2224257,0
1711327398608,1711327393367,2224457,0
1711327398608,1711327393407,2224418,0
1711327398608,1711327393448,2224399,0
1711327398608,1711327393488,2224513,0
1711327398608,1711327393528,2224539,0
1711327398608,1711327393568,2224670,0
1711327398608,1711327393608,2224792,0
1711327398608,1711327393649,2224717,0
1711327398608,1711327393688,2224761,0
1711327398608,1711327393728,2224541,0
1711327398608,1711327393768,2224550,0
1711327398608,1711327393809,2224506,0
1711327398608,1711327393849,2224638,0
1711327398608,1711327393889,2224805,0
1711327398608,1711327393929,2224817,0
1711327398608,1711327393969,2224924,0
1711327398608,1711327394009,2224918,0
1711327398608,1711327394050,2224886,0
1711327398608,1711327394089,2225002,0
1711327398608,1711327394129,2225069,0
1711327398608,1711327394169,2225254,0
1711327398608,1711327394209,2225348,0
1711327398608,1711327394250,2225392,0
1711327398608,1711327394290,2225465,0
1711327398608,1711327394330,2225349,0
1711327398608,1711327394370,2225460,0
1711327398608,1711327394410,2225616,0
1711327398608,1711327394451,2225475,0
1711327398608,1711327394490,2225383,0
1711327398608,1711327394530,2225415,0
1711327398608,1711327394570,2225454,0
1711327398608,1711327394610,2225570,0
1711327398608,1711327394651,2225593,0
1711327398608,1711327394690,2225817,0
1711327398608,1711327394731,2225882,0
1711327398608,1711327394771,2226195,0
1711327398608,1711327394811,2226282,0
1711327398608,1711327394852,2226473,0
1711327398608,1711327394891,2226511,0
1711327398608,1711327394931,2226587,0
1711327398608,1711327394971,2226366,0
1711327398608,1711327395011,2226300,0
1711327398608,1711327395052,2226262,0
1711327398608,1711327395091,2226311,0
1711327398608,1711327395132,2226236,0
1711327398608,1711327395172,2226312,0
1711327398608,1711327395212,2226306,0
1711327398608,1711327395253,2226306,0
1711327398608,1711327395292,2226194,0
1711327398608,1711327395332,2226279,0
1711327398608,1711327395372,2226269,0
1711327398608,1711327395412,2226231,0
1711327398608,1711327395453,2226279,0
1711327398608,1711327395492,2226484,0
1711327398608,1711327395532,2226422,0
1711327398608,1711327395573,2226590,0
1711327398608,1711327395613,2226579,0
1711327398608,1711327395653,2226625,0
1711327398608,1711327395693,2226644,0
1711327398608,1711327395733,2226665,0
1711327398608,1711327395773,2226794,0
1711327398608,1711327395813,2226882,0
1711327398608,1711327395854,2226934,0
1711327398608,1711327395893,2226880,0
1711327398608,1711327395933,2226932,0
1711327398608,1711327395974,2226584,0
1711327398608,1711327396014,2226548,0
1711327398608,1711327396054,2226380,0
1711327398608,1711327396094,2226429,0
1711327398608,1711327396134,2226305,0
1711327398608,1711327396174,2226437,0
1711327398608,1711327396214,2226574,0
1711327398608,1711327396255,2226641,0
1711327398608,1711327396294,2226670,0
1711327398608,1711327396335,2226694,0
1711327398608,1711327396375,2226824,0
1711327398608,1711327396415,2226805,0
1711327398608,1711327396456,2226988,0
1711327398608,1711327396495,2227019,0
1711327398608,1711327396535,2227095,0
1711327398608,1711327396575,2227143,0
1711327398608,1711327396615,2227116,0
1711327398608,1711327396656,2227222,0
1711327398608,1711327396696,2227243,0
1711327398608,1711327396736,2226926,0
1711327398608,1711327396776,2226754,0
1711327398608,1711327396816,2226523,0
1711327398608,1711327396857,2226548,0
1711327398608,1711327396896,2226532,0
1711327398608,1711327396936,2226613,0
1711327398608,1711327396976,2226645,0
1711327398608,1711327397017,2226806,0
1711327398608,1711327397058,2226808,0
1711327398608,1711327397097,2226979,0
1711327398608,1711327397137,2226947,0
1711327398608,1711327397177,2227116,0
1711327398608,1711327397217,2227120,0
1711327398608,1711327397258,2227146,0
1711327398608,1711327397298,2227235,0
1711327398608,1711327397338,2227345,0
1711327398608,1711327397378,2227490,0
1711327398608,1711327397418,2227464,0
1711327398608,1711327397459,2227591,0
1711327398608,1711327397498,2227518,0
1711327398608,1711327397538,2227155,0
1711327398608,1711327397578,2226770,0
1711327398608,1711327397618,2226619,0
1711327398608,1711327397659,2226621,0
1711327398608,1711327397698,2226698,0
1711327398608,1711327397739,2226809,0
1711327398608,1711327397779,2226867,0
1711327398608,1711327397819,2226957,0
1711327398608,1711327397860,2227079,0
1711327398608,1711327397899,2227117,0
1711327398608,1711327397939,2227222,0
1711327398608,1711327397979,2227397,0
1711327398608,1711327398020,2227393,0
1711327398608,1711327398060,2227434,0
1711327398608,1711327398100,2227607,0
1711327398608,1711327398140,2227643,0
1711327398608,1711327398180,2227791,0
1711327398608,1711327398220,2227820,0
1711327398608,1711327398261,2227866,0
1711327398608,1711327398300,2227983,0
1711327398608,1711327398340,2227613,0
1711327398608,1711327398381,2227413,0
1711327398608,1711327398421,2227384,0
1711327398608,1711327398461,2227454,0
1711327398608,1711327398501,2227536,0
1711327398608,1711327398541,2227619,0
1711327410677,1711327398580,2227677,0
1711327410677,1711327398620,2227833,0
1711327410677,1711327398661,2227836,0
1711327410677,1711327398700,2227971,0
1711327410677,1711327398741,2228143,0
1711327410677,1711327398781,2228129,0
1711327410677,1711327398821,2228248,0
1711327410677,1711327398862,2228253,0
1711327410677,1711327398901,2228344,0
1711327410677,1711327398941,2228483,0
1711327410677,1711327398981,2228489,0
1711327410677,1711327399021,2228607,0
1711327410677,1711327399062,2228671,0
1711327410677,1711327399102,2228485,0
1711327410677,1711327399142,2228328,0
1711327410677,1711327399182,2228317,0
1711327410677,1711327399222,2228299,0
1711327410677,1711327399263,2228266,0
1711327410677,1711327399302,2228347,0
1711327410677,1711327399342,2228496,0
1711327410677,1711327399382,2228490,0
1711327410677,1711327399422,2228690,0
1711327410677,1711327399463,2228934,0
1711327410677,1711327399503,2229116,0
1711327410677,1711327399543,2229229,0
1711327410677,1711327399583,2229457,0
1711327410677,1711327399623,2229417,0
1711327410677,1711327399664,2229458,0
1711327410677,1711327399703,2229604,0
1711327410677,1711327399743,2229689,0
1711327410677,1711327399783,2229638,0
1711327410677,1711327399824,2229533,0
1711327410677,1711327399864,2229294,0
1711327410677,1711327399904,2228805,0
1711327410677,1711327399944,2228658,0
1711327410677,1711327399984,2228585,0
1711327410677,1711327400024,2228601,0
1711327410677,1711327400065,2228749,0
1711327410677,1711327400105,2228809,0
1711327410677,1711327400145,2228907,0
1711327410677,1711327400185,2228905,0
1711327410677,1711327400225,2228970,0
1711327410677,1711327400266,2229073,0
1711327410677,1711327400305,2229307,0
1711327410677,1711327400345,2229493,0
1711327410677,1711327400385,2229568,0
1711327410677,1711327400426,2229672,0
1711327410677,1711327400466,2229623,0
1711327410677,1711327400506,2229838,0
1711327410677,1711327400546,2229810,0
1711327410677,1711327400586,2229940,0
1711327410677,1711327400626,2229741,0
1711327410677,1711327400667,2229048,0
1711327410677,1711327400706,2228803,0
1711327410677,1711327400747,2228702,0
1711327410677,1711327400787,2228669,0
1711327410677,1711327400827,2228795,0
1711327410677,1711327400868,2228902,0
1711327410677,1711327400907,2228961,0
1711327410677,1711327400947,2229038,0
1711327410677,1711327400987,2229066,0
1711327410677,1711327401027,2229199,0
1711327410677,1711327401068,2229239,0
1711327410677,1711327401107,2229318,0
1711327410677,1711327401148,2229349,0
1711327410677,1711327401187,2229341,0
1711327410677,1711327401227,2229475,0
1711327410677,1711327401268,2229599,0
1711327410677,1711327401308,2229697,0
1711327410677,1711327401348,2229646,0
1711327410677,1711327401388,2229801,0
1711327410677,1711327401428,2229525,0
1711327410677,1711327401469,2229436,0
1711327410677,1711327401508,2229425,0
1711327410677,1711327401548,2229513,0
1711327410677,1711327401588,2229572,0
1711327410677,1711327401629,2229720,0
1711327410677,1711327401669,2229488,0
1711327410677,1711327401709,2229456,0
1711327410677,1711327401749,2229380,0
1711327410677,1711327401789,2229449,0
1711327410677,1711327401829,2229278,0
1711327410677,1711327401870,2229478,0
1711327410677,1711327401909,2229496,0
1711327410677,1711327401949,2229539,0
1711327410677,1711327401989,2229593,0
1711327410677,1711327402029,2229566,0
1711327410677,1711327402070,2229554,0
1711327410677,1711327402110,2229569,0
1711327410677,1711327402150,2229503,0
1711327410677,1711327402190,2229476,0
1711327410677,1711327402230,2229392,0
1711327410677,1711327402271,2229361,0
1711327410677,1711327402310,2229437,0
1711327410677,1711327402350,2229368,0
1711327410677,1711327402390,2229437,0
1711327410677,1711327402430,2229389,0
1711327410677,1711327402471,2229484,0
1711327410677,1711327402511,2229379,0
1711327410677,1711327402551,2229461,0
1711327410677,1711327402591,2229508,0
1711327410677,1711327402631,2229568,0
1711327410677,1711327402672,2229442,0
1711327410677,1711327402711,2229425,0
1711327410677,1711327402751,2229385,0
1711327410677,1711327402791,2229567,0
1711327410677,1711327402831,2229546,0
1711327410677,1711327402872,2229504,0
1711327410677,1711327402912,2229302,0
1711327410677,1711327402952,2229280,0
1711327410677,1711327402992,2229240,0
1711327410677,1711327403032,2229266,0
1711327410677,1711327403073,2229406,0
1711327410677,1711327403112,2229558,0
1711327410677,1711327403152,2229441,0
1711327410677,1711327403192,2229434,0
1711327410677,1711327403232,2229536,0
1711327410677,1711327403273,2229658,0
1711327410677,1711327403312,2229765,0
1711327410677,1711327403352,2229843,0
1711327410677,1711327403392,2229788,0
1711327410677,1711327403433,2229860,0
1711327410677,1711327403473,2229810,0
1711327410677,1711327403513,2229932,0
1711327410677,1711327403553,2229629,0
1711327410677,1711327403593,2229527,0
1711327410677,1711327403633,2229234,0
1711327410677,1711327403674,2229137,0
1711327410677,1711327403713,2229125,0
1711327410677,1711327403753,2229270,0
1711327410677,1711327403794,2229330,0
1711327410677,1711327403834,2229409,0
1711327410677,1711327403874,2229466,0
1711327410677,1711327403914,2229461,0
1711327410677,1711327403954,2229628,0
1711327410677,1711327403994,2229673,0
1711327410677,1711327404034,2229819,0
1711327410677,1711327404075,2229729,0
1711327410677,1711327404114,2229929,0
1711327410677,1711327404154,2229948,0
1711327410677,1711327404194,2229899,0
1711327410677,1711327404234,2229802,0
1711327410677,1711327404275,2229168,0
1711327410677,1711327404315,2228077,0
1711327410677,1711327404355,2227269,0
1711327410677,1711327404395,2226929,0
1711327410677,1711327404435,2226831,0
1711327410677,1711327404476,2227293,0
1711327410677,1711327404515,2227579,0
1711327410677,1711327404555,2227757,0
1711327410677,1711327404595,2227735,0
1711327410677,1711327404636,2228038,0
1711327410677,1711327404676,2228191,0
1711327410677,1711327404716,2228339,0
1711327410677,1711327404756,2228447,0
1711327410677,1711327404796,2228626,0
1711327410677,1711327404836,2228792,0
1711327410677,1711327404877,2228843,0
1711327410677,1711327404916,2228967,0
1711327410677,1711327404956,2229066,0
1711327410677,1711327404997,2229125,0
1711327410677,1711327405036,2228611,0
1711327410677,1711327405077,2226849,0
1711327410677,1711327405117,2225359,0
1711327410677,1711327405157,2224655,0
1711327410677,1711327405197,2224396,0
1711327410677,1711327405237,2224830,0
1711327410677,1711327405278,2225328,0
1711327410677,1711327405317,2225814,0
1711327410677,1711327405357,2226005,0
1711327410677,1711327405397,2226284,0
1711327410677,1711327405437,2226657,0
1711327410677,1711327405478,2226991,0
1711327410677,1711327405518,2227175,0
1711327410677,1711327405558,2227430,0
1711327410677,1711327405598,2227598,0
1711327410677,1711327405638,2227833,0
1711327410677,1711327405679,2228027,0
1711327410677,1711327405718,2228231,0
1711327410677,1711327405758,2228506,0
1711327410677,1711327405798,2228739,0
1711327410677,1711327405839,2228752,0
1711327410677,1711327405879,2228336,0
1711327410677,1711327405919,2223718,0
1711327410677,1711327405959,2217939,0
1711327410677,1711327405999,2215547,0
1711327410677,1711327406039,2214349,0
1711327410677,1711327406080,2214009,0
1711327410677,1711327406119,2214613,0
1711327410677,1711327406159,2215229,0
1711327410677,1711327406200,2215977,0
1711327410677,1711327406240,2216646,0
1711327410677,1711327406281,2217826,0
1711327410677,1711327406320,2219026,0
1711327410677,1711327406360,2220011,0
1711327410677,1711327406400,2220814,0
1711327410677,1711327406440,2221398,0
1711327410677,1711327406481,2222059,0
1711327410677,1711327406520,2222489,0
1711327410677,1711327406561,2222861,0
1711327410677,1711327406601,2223415,0
1711327410677,1711327406641,2223714,0
1711327410677,1711327406682,2224032,0
1711327410677,1711327406721,2224403,0
1711327410677,1711327406761,2223686,0
1711327410677,1711327406801,2221077,0
1711327410677,1711327406841,2219760,0
1711327410677,1711327406882,2219748,0
1711327410677,1711327406922,2220284,0
1711327410677,1711327406962,2221079,0
1711327410677,1711327407002,2221787,0
1711327410677,1711327407042,2222171,0
1711327410677,1711327407083,2222588,0
1711327410677,1711327407122,2223025,0
1711327410677,1711327407162,2223370,0
1711327410677,1711327407202,2223658,0
1711327410677,1711327407242,2224102,0
1711327410677,1711327407283,2224377,0
1711327410677,1711327407323,2224753,0
1711327410677,1711327407363,2224890,0
1711327410677,1711327407403,2225141,0
1711327410677,1711327407443,2225453,0
1711327410677,1711327407484,2225650,0
1711327410677,1711327407524,2225766,0
1711327410677,1711327407564,2223580,0
1711327410677,1711327407604,2220260,0
1711327410677,1711327407644,2219030,0
1711327410677,1711327407685,2218991,0
1711327410677,1711327407724,2219666,0
1711327410677,1711327407764,2220604,0
1711327410677,1711327407804,2221350,0
1711327410677,1711327407845,2221834,0
1711327410677,1711327407885,2222307,0
1711327410677,1711327407925,2222777,0
1711327410677,1711327407965,2223186,0
1711327410677,1711327408005,2223663,0
1711327410677,1711327408045,2223978,0
1711327410677,1711327408086,2224247,0
1711327410677,1711327408126,2224576,0
1711327410677,1711327408166,2224877,0
1711327410677,1711327408206,2225158,0
1711327410677,1711327408246,2225481,0
1711327410677,1711327408287,2225620,0
1711327410677,1711327408326,2225790,0
1711327410677,1711327408366,2223930,0
1711327410677,1711327408406,2218808,0
1711327410677,1711327408446,2218764,0
1711327410677,1711327408487,2219387,0
1711327410677,1711327408526,2220189,0
1711327410677,1711327408566,2220765,0
1711327410677,1711327408607,2221037,0
1711327410677,1711327408647,2221428,0
1711327410677,1711327408687,2222105,0
1711327410677,1711327408727,2222553,0
1711327410677,1711327408767,2223241,0
1711327410677,1711327408807,2223444,0
1711327410677,1711327408847,2224068,0
1711327410677,1711327408888,2224260,0
1711327410677,1711327408927,2224539,0
1711327410677,1711327408967,2224956,0
1711327410677,1711327409007,2225235,0
1711327410677,1711327409048,2225609,0
1711327410677,1711327409088,2225786,0
1711327410677,1711327409128,2224663,0
1711327410677,1711327409168,2221149,0
1711327410677,1711327409208,2219348,0
1711327410677,1711327409248,2219120,0
1711327410677,1711327409289,2219649,0
1711327410677,1711327409328,2220490,0
1711327410677,1711327409368,2221271,0
1711327410677,1711327409408,2221915,0
1711327410677,1711327409449,2222342,0
1711327410677,1711327409489,2222769,0
1711327410677,1711327409529,2223203,0
1711327410677,1711327409569,2223780,0
1711327410677,1711327409609,2224087,0
1711327410677,1711327409649,2224513,0
1711327410677,1711327409690,2224746,0
1711327410677,1711327409729,2225160,0
1711327410677,1711327409769,2225375,0
1711327410677,1711327409810,2225608,0
1711327410677,1711327409850,2225838,0
1711327410677,1711327409890,2226124,0
1711327410677,1711327409930,2226079,0
1711327410677,1711327409970,2223857,0
1711327410677,1711327410010,2220826,0
1711327410677,1711327410050,2219863,0
1711327410677,1711327410091,2220032,0
1711327410677,1711327410130,2220772,0
1711327410677,1711327410170,2221631,0
1711327410677,1711327410210,2222255,0
1711327410677,1711327410250,2222778,0
1711327410677,1711327410291,2223360,0
1711327410677,1711327410331,2224002,0
1711327410677,1711327410371,2224422,0
1711327410677,1711327410411,2224919,0
1711327410677,1711327410451,2225192,0
1711327410677,1711327410492,2225543,0
1711327410677,1711327410531,2225679,0
1711327410677,1711327410571,2226076,0
1711327422651,1711327410611,2226276,0
1711327422651,1711327410651,2226686,0
1711327422651,1711327410692,2227027,0
1711327422651,1711327410732,2227175,0
1711327422651,1711327410772,2227203,0
1711327422651,1711327410812,2226695,0
1711327422651,1711327410852,2226702,0
1711327422651,1711327410893,2226895,0
1711327422651,1711327410932,2227040,0
1711327422651,1711327410972,2227563,0
1711327422651,1711327411012,2228090,0
1711327422651,1711327411052,2228383,0
1711327422651,1711327411093,2228843,0
1711327422651,1711327411133,2229223,0
1711327422651,1711327411173,2229404,0
1711327422651,1711327411213,2229629,0
1711327422651,1711327411253,2229701,0
1711327422651,1711327411294,2229790,0
1711327422651,1711327411333,2230089,0
1711327422651,1711327411373,2230584,0
1711327422651,1711327411413,2230875,0
1711327422651,1711327411453,2231311,0
1711327422651,1711327411494,2231456,0
1711327422651,1711327411534,2231556,0
1711327422651,1711327411574,2231446,0
1711327422651,1711327411614,2230761,0
1711327422651,1711327411654,2229741,0
1711327422651,1711327411695,2229549,0
1711327422651,1711327411734,2229719,0
1711327422651,1711327411774,2229993,0
1711327422651,1711327411814,2230373,0
1711327422651,1711327411854,2230625,0
1711327422651,1711327411895,2230644,0
1711327422651,1711327411935,2230744,0
1711327422651,1711327411975,2230963,0
1711327422651,1711327412015,2231057,0
1711327422651,1711327412055,2231132,0
1711327422651,1711327412096,2231314,0
1711327422651,1711327412135,2231423,0
1711327422651,1711327412175,2231634,0
1711327422651,1711327412215,2231803,0
1711327422651,1711327412255,2231829,0
1711327422651,1711327412296,2232061,0
1711327422651,1711327412336,2232036,0
1711327422651,1711327412376,2232169,0
1711327422651,1711327412416,2231571,0
1711327422651,1711327412456,2229963,0
1711327422651,1711327412497,2229540,0
1711327422651,1711327412536,2229834,0
1711327422651,1711327412576,2230199,0
1711327422651,1711327412616,2230556,0
1711327422651,1711327412657,2230835,0
1711327422651,1711327412697,2231020,0
1711327422651,1711327412737,2231366,0
1711327422651,1711327412777,2231412,0
1711327422651,1711327412817,2231626,0
1711327422651,1711327412857,2231816,0
1711327422651,1711327412898,2232015,0
1711327422651,1711327412937,2231992,0
1711327422651,1711327412977,2232262,0
1711327422651,1711327413017,2232465,0
1711327422651,1711327413058,2232680,0
1711327422651,1711327413098,2232730,0
1711327422651,1711327413138,2232799,0
1711327422651,1711327413178,2232966,0
1711327422651,1711327413218,2232805,0
1711327422651,1711327413258,2231243,0
1711327422651,1711327413299,2230112,0
1711327422651,1711327413338,2230182,0
1711327422651,1711327413378,2230451,0
1711327422651,1711327413419,2231056,0
1711327422651,1711327413459,2231445,0
1711327422651,1711327413499,2231803,0
1711327422651,1711327413539,2231996,0
1711327422651,1711327413579,2232321,0
1711327422651,1711327413619,2232518,0
1711327422651,1711327413659,2232713,0
1711327422651,1711327413700,2232979,0
1711327422651,1711327413739,2233281,0
1711327422651,1711327413780,2233324,0
1711327422651,1711327413820,2233615,0
1711327422651,1711327413860,2233518,0
1711327422651,1711327413901,2233717,0
1711327422651,1711327413940,2233719,0
1711327422651,1711327413980,2233786,0
1711327422651,1711327414020,2233550,0
1711327422651,1711327414060,2231961,0
1711327422651,1711327414101,2230908,0
1711327422651,1711327414141,2230887,0
1711327422651,1711327414180,2231090,0
1711327422651,1711327414221,2231785,0
1711327422651,1711327414261,2232194,0
1711327422651,1711327414302,2232357,0
1711327422651,1711327414341,2232636,0
1711327422651,1711327414381,2232915,0
1711327422651,1711327414421,2233120,0
1711327422651,1711327414461,2233349,0
1711327422651,1711327414502,2233575,0
1711327422651,1711327414542,2233852,0
1711327422651,1711327414582,2234035,0
1711327422651,1711327414622,2234223,0
1711327422651,1711327414662,2234339,0
1711327422651,1711327414703,2234431,0
1711327422651,1711327414742,2234505,0
1711327422651,1711327414782,2234613,0
1711327422651,1711327414822,2234606,0
1711327422651,1711327414863,2233136,0
1711327422651,1711327414903,2231655,0
1711327422651,1711327414943,2231408,0
1711327422651,1711327414983,2231819,0
1711327422651,1711327415023,2232196,0
1711327422651,1711327415063,2232779,0
1711327422651,1711327415104,2232979,0
1711327422651,1711327415143,2233267,0
1711327422651,1711327415184,2233440,0
1711327422651,1711327415224,2233718,0
1711327422651,1711327415264,2234013,0
1711327422651,1711327415305,2234162,0
1711327422651,1711327415344,2234354,0
1711327422651,1711327415384,2234501,0
1711327422651,1711327415424,2234642,0
1711327422651,1711327415465,2234790,0
1711327422651,1711327415505,2234866,0
1711327422651,1711327415545,2235068,0
1711327422651,1711327415585,2235206,0
1711327422651,1711327415625,2235214,0
1711327422651,1711327415665,2233747,0
1711327422651,1711327415706,2232686,0
1711327422651,1711327415745,2232426,0
1711327422651,1711327415785,2232567,0
1711327422651,1711327415826,2232961,0
1711327422651,1711327415866,2233390,0
1711327422651,1711327415906,2233751,0
1711327422651,1711327415946,2233937,0
1711327422651,1711327415986,2234198,0
1711327422651,1711327416026,2234371,0
1711327422651,1711327416066,2234511,0
1711327422651,1711327416107,2234611,0
1711327422651,1711327416146,2234739,0
1711327422651,1711327416186,2235084,0
1711327422651,1711327416226,2235276,0
1711327422651,1711327416266,2235351,0
1711327422651,1711327416307,2235364,0
1711327422651,1711327416347,2235528,0
1711327422651,1711327416387,2235634,0
1711327422651,1711327416427,2235861,0
1711327422651,1711327416467,2234980,0
1711327422651,1711327416508,2233171,0
1711327422651,1711327416547,2232329,0
1711327422651,1711327416587,2232310,0
1711327422651,1711327416627,2232519,0
1711327422651,1711327416667,2233070,0
1711327422651,1711327416708,2233541,0
1711327422651,1711327416747,2233835,0
1711327422651,1711327416788,2233954,0
1711327422651,1711327416828,2234150,0
1711327422651,1711327416868,2234430,0
1711327422651,1711327416909,2234700,0
1711327422651,1711327416948,2234960,0
1711327422651,1711327416988,2235121,0
1711327422651,1711327417028,2235177,0
1711327422651,1711327417068,2235339,0
1711327422651,1711327417109,2235446,0
1711327422651,1711327417148,2235597,0
1711327422651,1711327417188,2235789,0
1711327422651,1711327417229,2235770,0
1711327422651,1711327417269,2235902,0
1711327422651,1711327417309,2234652,0
1711327422651,1711327417349,2233003,0
1711327422651,1711327417389,2232554,0
1711327422651,1711327417429,2232675,0
1711327422651,1711327417469,2232772,0
1711327422651,1711327417510,2233556,0
1711327422651,1711327417549,2233845,0
1711327422651,1711327417589,2234106,0
1711327422651,1711327417630,2234406,0
1711327422651,1711327417670,2234589,0
1711327422651,1711327417710,2234864,0
1711327422651,1711327417750,2235069,0
1711327422651,1711327417790,2235358,0
1711327422651,1711327417830,2235466,0
1711327422651,1711327417870,2235586,0
1711327422651,1711327417911,2235653,0
1711327422651,1711327417950,2235797,0
1711327422651,1711327417990,2236030,0
1711327422651,1711327418030,2236089,0
1711327422651,1711327418070,2236170,0
1711327422651,1711327418111,2235029,0
1711327422651,1711327418150,2232988,0
1711327422651,1711327418191,2232056,0
1711327422651,1711327418231,2231832,0
1711327422651,1711327418271,2232225,0
1711327422651,1711327418311,2232867,0
1711327422651,1711327418351,2233437,0
1711327422651,1711327418391,2233783,0
1711327422651,1711327418431,2234041,0
1711327422651,1711327418471,2234308,0
1711327422651,1711327418512,2234594,0
1711327422651,1711327418551,2234968,0
1711327422651,1711327418592,2235200,0
1711327422651,1711327418632,2235417,0
1711327422651,1711327418672,2235593,0
1711327422651,1711327418713,2235618,0
1711327422651,1711327418752,2235940,0
1711327422651,1711327418792,2236014,0
1711327422651,1711327418832,2236134,0
1711327422651,1711327418872,2236163,0
1711327422651,1711327418913,2234205,0
1711327422651,1711327418953,2231813,0
1711327422651,1711327418992,2230858,0
1711327422651,1711327419033,2230460,0
1711327422651,1711327419073,2230581,0
1711327422651,1711327419113,2231339,0
1711327422651,1711327419153,2231908,0
1711327422651,1711327419193,2232265,0
1711327422651,1711327419233,2232467,0
1711327422651,1711327419273,2233125,0
1711327422651,1711327419314,2233409,0
1711327422651,1711327419353,2233876,0
1711327422651,1711327419393,2234303,0
1711327422651,1711327419434,2234520,0
1711327422651,1711327419474,2234829,0
1711327422651,1711327419514,2234974,0
1711327422651,1711327419554,2235170,0
1711327422651,1711327419594,2235275,0
1711327422651,1711327419634,2235746,0
1711327422651,1711327419674,2235845,0
1711327422651,1711327419715,2234329,0
1711327422651,1711327419754,2231629,0
1711327422651,1711327419795,2229815,0
1711327422651,1711327419835,2228747,0
1711327422651,1711327419875,2228051,0
1711327422651,1711327419916,2228401,0
1711327422651,1711327419955,2229026,0
1711327422651,1711327419995,2229667,0
1711327422651,1711327420035,2230204,0
1711327422651,1711327420075,2231131,0
1711327422651,1711327420116,2231788,0
1711327422651,1711327420156,2232613,0
1711327422651,1711327420196,2232922,0
1711327422651,1711327420236,2233356,0
1711327422651,1711327420276,2233760,0
1711327422651,1711327420317,2234063,0
1711327422651,1711327420356,2234156,0
1711327422651,1711327420396,2234652,0
1711327422651,1711327420436,2234834,0
1711327422651,1711327420476,2235057,0
1711327422651,1711327420517,2234588,0
1711327422651,1711327420556,2231292,0
1711327422651,1711327420597,2228601,0
1711327422651,1711327420637,2227795,0
1711327422651,1711327420677,2227795,0
1711327422651,1711327420718,2228390,0
1711327422651,1711327420757,2229252,0
1711327422651,1711327420797,2230083,0
1711327422651,1711327420837,2230512,0
1711327422651,1711327420878,2231066,0
1711327422651,1711327420918,2231487,0
1711327422651,1711327420958,2232193,0
1711327422651,1711327420998,2232776,0
1711327422651,1711327421038,2233094,0
1711327422651,1711327421078,2233471,0
1711327422651,1711327421119,2233714,0
1711327422651,1711327421158,2233999,0
1711327422651,1711327421198,2234296,0
1711327422651,1711327421238,2234415,0
1711327422651,1711327421278,2234812,0
1711327422651,1711327421319,2234571,0
1711327422651,1711327421359,2232969,0
1711327422651,1711327421399,2231270,0
1711327422651,1711327421439,2230903,0
1711327422651,1711327421479,2231260,0
1711327422651,1711327421520,2231775,0
1711327422651,1711327421559,2232469,0
1711327422651,1711327421600,2233031,0
1711327422651,1711327421640,2233235,0
1711327422651,1711327421680,2233696,0
1711327422651,1711327421721,2234108,0
1711327422651,1711327421760,2234410,0
1711327422651,1711327421800,2234593,0
1711327422651,1711327421840,2234904,0
1711327422651,1711327421880,2235258,0
1711327422651,1711327421921,2235210,0
1711327422651,1711327421961,2235450,0
1711327422651,1711327422001,2235711,0
1711327422651,1711327422041,2235786,0
1711327422651,1711327422081,2236034,0
1711327422651,1711327422122,2235543,0
1711327422651,1711327422161,2233709,0
1711327422651,1711327422202,2232847,0
1711327422651,1711327422241,2232991,0
1711327422651,1711327422282,2233295,0
1711327422651,1711327422323,2233791,0
1711327422651,1711327422362,2234250,0
1711327422651,1711327422402,2234506,0
1711327422651,1711327422442,2234826,0
1711327422651,1711327422482,2235004,0
1711327422651,1711327422523,2235366,0
1711327422651,1711327422563,2235552,0
1711327422651,1711327422603,2235752,0
1711327434735,1711327422645,2235915,0
1711327434735,1711327422685,2236099,0
1711327434735,1711327422726,2236369,0
1711327434735,1711327422765,2236425,0
1711327434735,1711327422805,2236451,0
1711327434735,1711327422845,2236650,0
1711327434735,1711327422886,2236285,0
1711327434735,1711327422927,2234583,0
1711327434735,1711327422966,2233672,0
1711327434735,1711327423006,2233618,0
1711327434735,1711327423046,2233808,0
1711327434735,1711327423086,2234309,0
1711327434735,1711327423127,2234759,0
1711327434735,1711327423167,2235054,0
1711327434735,1711327423207,2235327,0
1711327434735,1711327423247,2235438,0
1711327434735,1711327423287,2235740,0
1711327434735,1711327423328,2236023,0
1711327434735,1711327423367,2236373,0
1711327434735,1711327423407,2236570,0
1711327434735,1711327423447,2236790,0
1711327434735,1711327423487,2236854,0
1711327434735,1711327423528,2236936,0
1711327434735,1711327423567,2237177,0
1711327434735,1711327423608,2237205,0
1711327434735,1711327423648,2236100,0
1711327434735,1711327423688,2234268,0
1711327434735,1711327423729,2233577,0
1711327434735,1711327423768,2233525,0
1711327434735,1711327423808,2233542,0
1711327434735,1711327423848,2234036,0
1711327434735,1711327423888,2234783,0
1711327434735,1711327423929,2235025,0
1711327434735,1711327423968,2235235,0
1711327434735,1711327424009,2235422,0
1711327434735,1711327424049,2235864,0
1711327434735,1711327424089,2236212,0
1711327434735,1711327424130,2236378,0
1711327434735,1711327424169,2236446,0
1711327434735,1711327424209,2236611,0
1711327434735,1711327424249,2236757,0
1711327434735,1711327424289,2236976,0
1711327434735,1711327424330,2237118,0
1711327434735,1711327424370,2237314,0
1711327434735,1711327424410,2237396,0
1711327434735,1711327424450,2237329,0
1711327434735,1711327424490,2235303,0
1711327434735,1711327424531,2234429,0
1711327434735,1711327424570,2234265,0
1711327434735,1711327424610,2234348,0
1711327434735,1711327424650,2234710,0
1711327434735,1711327424690,2235297,0
1711327434735,1711327424731,2235550,0
1711327434735,1711327424771,2235953,0
1711327434735,1711327424811,2236089,0
1711327434735,1711327424851,2236339,0
1711327434735,1711327424891,2236616,0
1711327434735,1711327424932,2236950,0
1711327434735,1711327424971,2236956,0
1711327434735,1711327425011,2237194,0
1711327434735,1711327425051,2237398,0
1711327434735,1711327425092,2237487,0
1711327434735,1711327425132,2237667,0
1711327434735,1711327425172,2237760,0
1711327434735,1711327425212,2237931,0
1711327434735,1711327425252,2238053,0
1711327434735,1711327425292,2238276,0
1711327434735,1711327425333,2237366,0
1711327434735,1711327425372,2236428,0
1711327434735,1711327425412,2236359,0
1711327434735,1711327425452,2236574,0
1711327434735,1711327425492,2236797,0
1711327434735,1711327425533,2237143,0
1711327434735,1711327425573,2237583,0
1711327434735,1711327425613,2237615,0
1711327434735,1711327425653,2237825,0
1711327434735,1711327425693,2237970,0
1711327434735,1711327425734,2238181,0
1711327434735,1711327425773,2238314,0
1711327434735,1711327425813,2238412,0
1711327434735,1711327425853,2238525,0
1711327434735,1711327425894,2238544,0
1711327434735,1711327425935,2238693,0
1711327434735,1711327425974,2238760,0
1711327434735,1711327426014,2238862,0
1711327434735,1711327426054,2238959,0
1711327434735,1711327426094,2238994,0
1711327434735,1711327426135,2238381,0
1711327434735,1711327426174,2237554,0
1711327434735,1711327426215,2237488,0
1711327434735,1711327426255,2237526,0
1711327434735,1711327426295,2237793,0
1711327434735,1711327426335,2237949,0
1711327434735,1711327426375,2238180,0
1711327434735,1711327426415,2238194,0
1711327434735,1711327426455,2238341,0
1711327434735,1711327426495,2238455,0
1711327434735,1711327426536,2238450,0
1711327434735,1711327426576,2238678,0
1711327434735,1711327426616,2238642,0
1711327434735,1711327426656,2238841,0
1711327434735,1711327426696,2238953,0
1711327434735,1711327426737,2239001,0
1711327434735,1711327426776,2239115,0
1711327434735,1711327426816,2239229,0
1711327434735,1711327426856,2239282,0
1711327434735,1711327426897,2238738,0
1711327434735,1711327426937,2237330,0
1711327434735,1711327426977,2236634,0
1711327434735,1711327427017,2236401,0
1711327434735,1711327427057,2236569,0
1711327434735,1711327427097,2236826,0
1711327434735,1711327427138,2237193,0
1711327434735,1711327427177,2237417,0
1711327434735,1711327427217,2237408,0
1711327434735,1711327427258,2237654,0
1711327434735,1711327427298,2237876,0
1711327434735,1711327427339,2238064,0
1711327434735,1711327427378,2238271,0
1711327434735,1711327427418,2238384,0
1711327434735,1711327427458,2238462,0
1711327434735,1711327427499,2238637,0
1711327434735,1711327427539,2238606,0
1711327434735,1711327427579,2238872,0
1711327434735,1711327427619,2238849,0
1711327434735,1711327427659,2239098,0
1711327434735,1711327427699,2238914,0
1711327434735,1711327427740,2237480,0
1711327434735,1711327427779,2236304,0
1711327434735,1711327427819,2236009,0
1711327434735,1711327427860,2235838,0
1711327434735,1711327427900,2236101,0
1711327434735,1711327427940,2236465,0
1711327434735,1711327427980,2236946,0
1711327434735,1711327428020,2237218,0
1711327434735,1711327428060,2237407,0
1711327434735,1711327428100,2237734,0
1711327434735,1711327428141,2237900,0
1711327434735,1711327428180,2238178,0
1711327434735,1711327428221,2238305,0
1711327434735,1711327428261,2238564,0
1711327434735,1711327428301,2238516,0
1711327434735,1711327428342,2238691,0
1711327434735,1711327428381,2238913,0
1711327434735,1711327428421,2238921,0
1711327434735,1711327428461,2239089,0
1711327434735,1711327428501,2239169,0
1711327434735,1711327428542,2239114,0
1711327434735,1711327428582,2237859,0
1711327434735,1711327428622,2236919,0
1711327434735,1711327428662,2236838,0
1711327434735,1711327428702,2236858,0
1711327434735,1711327428743,2237078,0
1711327434735,1711327428782,2237430,0
1711327434735,1711327428823,2237787,0
1711327434735,1711327428862,2238065,0
1711327434735,1711327428903,2238226,0
1711327434735,1711327428944,2238465,0
1711327434735,1711327428983,2238604,0
1711327434735,1711327429023,2238910,0
1711327434735,1711327429063,2238988,0
1711327434735,1711327429103,2239162,0
1711327434735,1711327429144,2239304,0
1711327434735,1711327429184,2239367,0
1711327434735,1711327429224,2239406,0
1711327434735,1711327429264,2239514,0
1711327434735,1711327429304,2239588,0
1711327434735,1711327429345,2239687,0
1711327434735,1711327429384,2239578,0
1711327434735,1711327429424,2238492,0
1711327434735,1711327429464,2237621,0
1711327434735,1711327429504,2237282,0
1711327434735,1711327429546,2237470,0
1711327434735,1711327429585,2237604,0
1711327434735,1711327429625,2238081,0
1711327434735,1711327429665,2238343,0
1711327434735,1711327429705,2238479,0
1711327434735,1711327429746,2238588,0
1711327434735,1711327429786,2238857,0
1711327434735,1711327429826,2239019,0
1711327434735,1711327429866,2239182,0
1711327434735,1711327429906,2239279,0
1711327434735,1711327429947,2239417,0
1711327434735,1711327429986,2239661,0
1711327434735,1711327430027,2239633,0
1711327434735,1711327430067,2239709,0
1711327434735,1711327430107,2239750,0
1711327434735,1711327430148,2239929,0
1711327434735,1711327430187,2240111,0
1711327434735,1711327430227,2240128,0
1711327434735,1711327430267,2238942,0
1711327434735,1711327430307,2237898,0
1711327434735,1711327430348,2237719,0
1711327434735,1711327430387,2237677,0
1711327434735,1711327430427,2237769,0
1711327434735,1711327430467,2238195,0
1711327434735,1711327430508,2238367,0
1711327434735,1711327430548,2238405,0
1711327434735,1711327430588,2238494,0
1711327434735,1711327430628,2238525,0
1711327434735,1711327430668,2238547,0
1711327434735,1711327430708,2238576,0
1711327434735,1711327430749,2238612,0
1711327434735,1711327430788,2238635,0
1711327434735,1711327430828,2238570,0
1711327434735,1711327430868,2238554,0
1711327434735,1711327430908,2238471,0
1711327434735,1711327430949,2238309,0
1711327434735,1711327430989,2238395,0
1711327434735,1711327431029,2238396,0
1711327434735,1711327431069,2238506,0
1711327434735,1711327431109,2238249,0
1711327434735,1711327431150,2237971,0
1711327434735,1711327431189,2237987,0
1711327434735,1711327431229,2237934,0
1711327434735,1711327431269,2237939,0
1711327434735,1711327431309,2238049,0
1711327434735,1711327431350,2238312,0
1711327434735,1711327431390,2238264,0
1711327434735,1711327431430,2238464,0
1711327434735,1711327431470,2238434,0
1711327434735,1711327431510,2238595,0
1711327434735,1711327431551,2238692,0
1711327434735,1711327431590,2238857,0
1711327434735,1711327431630,2238957,0
1711327434735,1711327431670,2239111,0
1711327434735,1711327431711,2239173,0
1711327434735,1711327431751,2239247,0
1711327434735,1711327431791,2239227,0
1711327434735,1711327431831,2239241,0
1711327434735,1711327431871,2239505,0
1711327434735,1711327431911,2239377,0
1711327434735,1711327431952,2238767,0
1711327434735,1711327431991,2239237,0
1711327434735,1711327432031,2240197,0
1711327434735,1711327432072,2240696,0
1711327434735,1711327432112,2241053,0
1711327434735,1711327432152,2241144,0
1711327434735,1711327432192,2241178,0
1711327434735,1711327432232,2241268,0
1711327434735,1711327432272,2241475,0
1711327434735,1711327432312,2241570,0
1711327434735,1711327432353,2241725,0
1711327434735,1711327432392,2241643,0
1711327434735,1711327432432,2241782,0
1711327434735,1711327432472,2241827,0
1711327434735,1711327432512,2241932,0
1711327434735,1711327432553,2241964,0
1711327434735,1711327432593,2242090,0
1711327434735,1711327432633,2241922,0
1711327434735,1711327432673,2241897,0
1711327434735,1711327432713,2241822,0
1711327434735,1711327432754,2241676,0
1711327434735,1711327432793,2241704,0
1711327434735,1711327432833,2241600,0
1711327434735,1711327432873,2241738,0
1711327434735,1711327432914,2241783,0
1711327434735,1711327432954,2241768,0
1711327434735,1711327432994,2241792,0
1711327434735,1711327433034,2241945,0
1711327434735,1711327433074,2242006,0
1711327434735,1711327433114,2242032,0
1711327434735,1711327433155,2242104,0
1711327434735,1711327433194,2242155,0
1711327434735,1711327433235,2242153,0
1711327434735,1711327433275,2242077,0
1711327434735,1711327433315,2242290,0
1711327434735,1711327433356,2242131,0
1711327434735,1711327433395,2242220,0
1711327434735,1711327433435,2241852,0
1711327434735,1711327433475,2241596,0
1711327434735,1711327433516,2241562,0
1711327434735,1711327433556,2241488,0
1711327434735,1711327433596,2241571,0
1711327434735,1711327433636,2241759,0
1711327434735,1711327433676,2241696,0
1711327434735,1711327433716,2241667,0
1711327434735,1711327433757,2241700,0
1711327434735,1711327433796,2241804,0
1711327434735,1711327433836,2241869,0
1711327434735,1711327433876,2241916,0
1711327434735,1711327433916,2241941,0
1711327434735,1711327433957,2242153,0
1711327434735,1711327433997,2242151,0
1711327434735,1711327434037,2242183,0
1711327434735,1711327434077,2242275,0
1711327434735,1711327434117,2242213,0
1711327434735,1711327434158,2242282,0
1711327434735,1711327434197,2242096,0
1711327434735,1711327434238,2241757,0
1711327434735,1711327434277,2241567,0
1711327434735,1711327434318,2241511,0
1711327434735,1711327434359,2241592,0
1711327434735,1711327434398,2241587,0
1711327434735,1711327434438,2241808,0
1711327434735,1711327434478,2241699,0
1711327434735,1711327434518,2241763,0
1711327434735,1711327434559,2241805,0
1711327434735,1711327434598,2241909,0
1711327434735,1711327434638,2241984,0
1711327446757,1711327434677,2242070,0
1711327446757,1711327434717,2242149,0
1711327446757,1711327434757,2242079,0
1711327446757,1711327434797,2242169,0
1711327446757,1711327434837,2242175,0
1711327446757,1711327434877,2242364,0
1711327446757,1711327434917,2242452,0
1711327446757,1711327434958,2242450,0
1711327446757,1711327434997,2242068,0
1711327446757,1711327435038,2241782,0
1711327446757,1711327435078,2241752,0
1711327446757,1711327435118,2241811,0
1711327446757,1711327435159,2241891,0
1711327446757,1711327435198,2241878,0
1711327446757,1711327435238,2241962,0
1711327446757,1711327435278,2241949,0
1711327446757,1711327435319,2242045,0
1711327446757,1711327435359,2242098,0
1711327446757,1711327435399,2242122,0
1711327446757,1711327435439,2242191,0
1711327446757,1711327435479,2242189,0
1711327446757,1711327435519,2242350,0
1711327446757,1711327435560,2242432,0
1711327446757,1711327435599,2242359,0
1711327446757,1711327435639,2242459,0
1711327446757,1711327435680,2242474,0
1711327446757,1711327435720,2242716,0
1711327446757,1711327435761,2242540,0
1711327446757,1711327435800,2242481,0
1711327446757,1711327435840,2242294,0
1711327446757,1711327435880,2242247,0
1711327446757,1711327435920,2242362,0
1711327446757,1711327435961,2242450,0
1711327446757,1711327436001,2242599,0
1711327446757,1711327436041,2242639,0
1711327446757,1711327436081,2242654,0
1711327446757,1711327436121,2242719,0
1711327446757,1711327436162,2242756,0
1711327446757,1711327436201,2242808,0
1711327446757,1711327436241,2242841,0
1711327446757,1711327436282,2242815,0
1711327446757,1711327436322,2242905,0
1711327446757,1711327436363,2242888,0
1711327446757,1711327436402,2242957,0
1711327446757,1711327436442,2243023,0
1711327446757,1711327436482,2243095,0
1711327446757,1711327436522,2242957,0
1711327446757,1711327436563,2242667,0
1711327446757,1711327436603,2242643,0
1711327446757,1711327436643,2242613,0
1711327446757,1711327436683,2242542,0
1711327446757,1711327436723,2242733,0
1711327446757,1711327436764,2242607,0
1711327446757,1711327436803,2242809,0
1711327446757,1711327436844,2242784,0
1711327446757,1711327436884,2242813,0
1711327446757,1711327436924,2242770,0
1711327446757,1711327436965,2242863,0
1711327446757,1711327437004,2242889,0
1711327446757,1711327437044,2242970,0
1711327446757,1711327437084,2243001,0
1711327446757,1711327437124,2243071,0
1711327446757,1711327437165,2243012,0
1711327446757,1711327437204,2243125,0
1711327446757,1711327437245,2242631,0
1711327446757,1711327437285,2242296,0
1711327446757,1711327437325,2242299,0
1711327446757,1711327437366,2242254,0
1711327446757,1711327437405,2242320,0
1711327446757,1711327437445,2242309,0
1711327446757,1711327437485,2242415,0
1711327446757,1711327437525,2242416,0
1711327446757,1711327437566,2242464,0
1711327446757,1711327437605,2242586,0
1711327446757,1711327437645,2242626,0
1711327446757,1711327437685,2242692,0
1711327446757,1711327437726,2242861,0
1711327446757,1711327437766,2242711,0
1711327446757,1711327437806,2242885,0
1711327446757,1711327437846,2242959,0
1711327446757,1711327437886,2242958,0
1711327446757,1711327437926,2242944,0
1711327446757,1711327437967,2242997,0
1711327446757,1711327438006,2242400,0
1711327446757,1711327438046,2242219,0
1711327446757,1711327438087,2242081,0
1711327446757,1711327438127,2242100,0
1711327446757,1711327438167,2242061,0
1711327446757,1711327438207,2242168,0
1711327446757,1711327438247,2242329,0
1711327446757,1711327438287,2242302,0
1711327446757,1711327438327,2242434,0
1711327446757,1711327438368,2242401,0
1711327446757,1711327438407,2242401,0
1711327446757,1711327438448,2242672,0
1711327446757,1711327438488,2242651,0
1711327446757,1711327438528,2242612,0
1711327446757,1711327438569,2242696,0
1711327446757,1711327438608,2242745,0
1711327446757,1711327438648,2242791,0
1711327446757,1711327438688,2242917,0
1711327446757,1711327438728,2242818,0
1711327446757,1711327438769,2242526,0
1711327446757,1711327438809,2242253,0
1711327446757,1711327438848,2242221,0
1711327446757,1711327438889,2242244,0
1711327446757,1711327438929,2242454,0
1711327446757,1711327438970,2242369,0
1711327446757,1711327439009,2242504,0
1711327446757,1711327439049,2242516,0
1711327446757,1711327439089,2242652,0
1711327446757,1711327439129,2242577,0
1711327446757,1711327439170,2242892,0
1711327446757,1711327439209,2242798,0
1711327446757,1711327439249,2242930,0
1711327446757,1711327439290,2243066,0
1711327446757,1711327439330,2243199,0
1711327446757,1711327439371,2243131,0
1711327446757,1711327439410,2243199,0
1711327446757,1711327439450,2243165,0
1711327446757,1711327439490,2243437,0
1711327446757,1711327439530,2243314,0
1711327446757,1711327439571,2243064,0
1711327446757,1711327439611,2242994,0
1711327446757,1711327439651,2243021,0
1711327446757,1711327439691,2243023,0
1711327446757,1711327439731,2243174,0
1711327446757,1711327439772,2243214,0
1711327446757,1711327439811,2243293,0
1711327446757,1711327439851,2243257,0
1711327446757,1711327439891,2243289,0
1711327446757,1711327439931,2243442,0
1711327446757,1711327439972,2243454,0
1711327446757,1711327440012,2243517,0
1711327446757,1711327440052,2243500,0
1711327446757,1711327440092,2243668,0
1711327446757,1711327440132,2243633,0
1711327446757,1711327440173,2243673,0
1711327446757,1711327440212,2243773,0
1711327446757,1711327440253,2243726,0
1711327446757,1711327440293,2243428,0
1711327446757,1711327440333,2243078,0
1711327446757,1711327440374,2243264,0
1711327446757,1711327440413,2243299,0
1711327446757,1711327440453,2243212,0
1711327446757,1711327440493,2243319,0
1711327446757,1711327440533,2243434,0
1711327446757,1711327440574,2243423,0
1711327446757,1711327440614,2243356,0
1711327446757,1711327440654,2243540,0
1711327446757,1711327440694,2243590,0
1711327446757,1711327440734,2243668,0
1711327446757,1711327440775,2243739,0
1711327446757,1711327440814,2243778,0
1711327446757,1711327440854,2243775,0
1711327446757,1711327440894,2243836,0
1711327446757,1711327440934,2243898,0
1711327446757,1711327440975,2244024,0
1711327446757,1711327441015,2243920,0
1711327446757,1711327441055,2243829,0
1711327446757,1711327441095,2243416,0
1711327446757,1711327441135,2243312,0
1711327446757,1711327441176,2243275,0
1711327446757,1711327441215,2243241,0
1711327446757,1711327441255,2243199,0
1711327446757,1711327441295,2243328,0
1711327446757,1711327441336,2243360,0
1711327446757,1711327441376,2243468,0
1711327446757,1711327441416,2243431,0
1711327446757,1711327441456,2243520,0
1711327446757,1711327441496,2243552,0
1711327446757,1711327441536,2243596,0
1711327446757,1711327441577,2243783,0
1711327446757,1711327441616,2243725,0
1711327446757,1711327441656,2243771,0
1711327446757,1711327441697,2243959,0
1711327446757,1711327441737,2243978,0
1711327446757,1711327441777,2243920,0
1711327446757,1711327441817,2244039,0
1711327446757,1711327441857,2244093,0
1711327446757,1711327441897,2243958,0
1711327446757,1711327441937,2243631,0
1711327446757,1711327441978,2243381,0
1711327446757,1711327442017,2243301,0
1711327446757,1711327442058,2243243,0
1711327446757,1711327442098,2243416,0
1711327446757,1711327442138,2243493,0
1711327446757,1711327442179,2243418,0
1711327446757,1711327442218,2243527,0
1711327446757,1711327442258,2243655,0
1711327446757,1711327442299,2243647,0
1711327446757,1711327442339,2243813,0
1711327446757,1711327442379,2243860,0
1711327446757,1711327442419,2243937,0
1711327446757,1711327442459,2243967,0
1711327446757,1711327442499,2243944,0
1711327446757,1711327442539,2244069,0
1711327446757,1711327442580,2244018,0
1711327446757,1711327442620,2244091,0
1711327446757,1711327442660,2244180,0
1711327446757,1711327442700,2244228,0
1711327446757,1711327442740,2243929,0
1711327446757,1711327442781,2243678,0
1711327446757,1711327442820,2243561,0
1711327446757,1711327442860,2243596,0
1711327446757,1711327442903,2243801,0
1711327446757,1711327442941,2243751,0
1711327446757,1711327442981,2243735,0
1711327446757,1711327443021,2243788,0
1711327446757,1711327443061,2243873,0
1711327446757,1711327443101,2244068,0
1711327446757,1711327443142,2243961,0
1711327446757,1711327443182,2244198,0
1711327446757,1711327443222,2243973,0
1711327446757,1711327443262,2244303,0
1711327446757,1711327443302,2244394,0
1711327446757,1711327443342,2244380,0
1711327446757,1711327443383,2244521,0
1711327446757,1711327443422,2244612,0
1711327446757,1711327443463,2244634,0
1711327446757,1711327443503,2244685,0
1711327446757,1711327443543,2244790,0
1711327446757,1711327443584,2244574,0
1711327446757,1711327443623,2244670,0
1711327446757,1711327443663,2244582,0
1711327446757,1711327443703,2244690,0
1711327446757,1711327443744,2244769,0
1711327446757,1711327443784,2244801,0
1711327446757,1711327443824,2244855,0
1711327446757,1711327443864,2244945,0
1711327446757,1711327443904,2244867,0
1711327446757,1711327443944,2245054,0
1711327446757,1711327443985,2245034,0
1711327446757,1711327444024,2245111,0
1711327446757,1711327444064,2245275,0
1711327446757,1711327444104,2245280,0
1711327446757,1711327444144,2245237,0
1711327446757,1711327444185,2245280,0
1711327446757,1711327444225,2245289,0
1711327446757,1711327444265,2245420,0
1711327446757,1711327444305,2245364,0
1711327446757,1711327444345,2245110,0
1711327446757,1711327444386,2245035,0
1711327446757,1711327444425,2245018,0
1711327446757,1711327444465,2245151,0
1711327446757,1711327444505,2245056,0
1711327446757,1711327444545,2245243,0
1711327446757,1711327444586,2245243,0
1711327446757,1711327444626,2245189,0
1711327446757,1711327444666,2245122,0
1711327446757,1711327444706,2245208,0
1711327446757,1711327444746,2245262,0
1711327446757,1711327444787,2245344,0
1711327446757,1711327444826,2245222,0
1711327446757,1711327444866,2245367,0
1711327446757,1711327444906,2245444,0
1711327446757,1711327444946,2245393,0
1711327446757,1711327444987,2245554,0
1711327446757,1711327445027,2245578,0
1711327446757,1711327445067,2245498,0
1711327446757,1711327445109,2245152,0
1711327446757,1711327445147,2245035,0
1711327446757,1711327445188,2244999,0
1711327446757,1711327445227,2244873,0
1711327446757,1711327445267,2245025,0
1711327446757,1711327445307,2245117,0
1711327446757,1711327445347,2245165,0
1711327446757,1711327445388,2245085,0
1711327446757,1711327445428,2245127,0
1711327446757,1711327445468,2245221,0
1711327446757,1711327445508,2245328,0
1711327446757,1711327445548,2245423,0
1711327446757,1711327445589,2245394,0
1711327446757,1711327445628,2245393,0
1711327446757,1711327445668,2245466,0
1711327446757,1711327445708,2245518,0
1711327446757,1711327445748,2245559,0
1711327446757,1711327445789,2245715,0
1711327446757,1711327445829,2245728,0
1711327446757,1711327445869,2245198,0
1711327446757,1711327445909,2245035,0
1711327446757,1711327445949,2244934,0
1711327446757,1711327445990,2244958,0
1711327446757,1711327446029,2244977,0
1711327446757,1711327446069,2245018,0
1711327446757,1711327446109,2245109,0
1711327446757,1711327446150,2245031,0
1711327446757,1711327446190,2245284,0
1711327446757,1711327446230,2245264,0
1711327446757,1711327446270,2245222,0
1711327446757,1711327446310,2245277,0
1711327446757,1711327446350,2245451,0
1711327446757,1711327446391,2245412,0
1711327446757,1711327446430,2245463,0
1711327446757,1711327446470,2245630,0
1711327446757,1711327446510,2245557,0
1711327446757,1711327446551,2245614,0
1711327446757,1711327446591,2245725,0
1711327446757,1711327446631,2245767,0
1711327446757,1711327446671,2245534,0
1711327458746,1711327446708,2245345,0
1711327458746,1711327446748,2245209,0
1711327458746,1711327446789,2245319,0
1711327458746,1711327446828,2245347,0
1711327458746,1711327446869,2245480,0
1711327458746,1711327446909,2245550,0
1711327458746,1711327446949,2245665,0
1711327458746,1711327446990,2245599,0
1711327458746,1711327447029,2245674,0
1711327458746,1711327447069,2245813,0
1711327458746,1711327447109,2245897,0
1711327458746,1711327447149,2246059,0
1711327458746,1711327447190,2246007,0
1711327458746,1711327447229,2245957,0
1711327458746,1711327447269,2246162,0
1711327458746,1711327447310,2246252,0
1711327458746,1711327447350,2246182,0
1711327458746,1711327447391,2246305,0
1711327458746,1711327447430,2246108,0
1711327458746,1711327447470,2245870,0
1711327458746,1711327447510,2245749,0
1711327458746,1711327447550,2245777,0
1711327458746,1711327447591,2245805,0
1711327458746,1711327447631,2245826,0
1711327458746,1711327447671,2245879,0
1711327458746,1711327447711,2245977,0
1711327458746,1711327447751,2245954,0
1711327458746,1711327447792,2246131,0
1711327458746,1711327447831,2246113,0
1711327458746,1711327447871,2246181,0
1711327458746,1711327447911,2246152,0
1711327458746,1711327447952,2246308,0
1711327458746,1711327447992,2246412,0
1711327458746,1711327448032,2246527,0
1711327458746,1711327448072,2246423,0
1711327458746,1711327448112,2246486,0
1711327458746,1711327448152,2246620,0
1711327458746,1711327448193,2246526,0
1711327458746,1711327448232,2246188,0
1711327458746,1711327448272,2245800,0
1711327458746,1711327448313,2245669,0
1711327458746,1711327448353,2245846,0
1711327458746,1711327448394,2245801,0
1711327458746,1711327448433,2245814,0
1711327458746,1711327448473,2245875,0
1711327458746,1711327448513,2245861,0
1711327458746,1711327448554,2245918,0
1711327458746,1711327448594,2245967,0
1711327458746,1711327448634,2245970,0
1711327458746,1711327448674,2246175,0
1711327458746,1711327448714,2246189,0
1711327458746,1711327448754,2246208,0
1711327458746,1711327448795,2246213,0
1711327458746,1711327448834,2246265,0
1711327458746,1711327448875,2246384,0
1711327458746,1711327448915,2246529,0
1711327458746,1711327448955,2246422,0
1711327458746,1711327448996,2246535,0
1711327458746,1711327449035,2246228,0
1711327458746,1711327449075,2245700,0
1711327458746,1711327449115,2245733,0
1711327458746,1711327449156,2245630,0
1711327458746,1711327449196,2245660,0
1711327458746,1711327449236,2245768,0
1711327458746,1711327449276,2245773,0
1711327458746,1711327449316,2245738,0
1711327458746,1711327449356,2245925,0
1711327458746,1711327449397,2245905,0
1711327458746,1711327449436,2245999,0
1711327458746,1711327449476,2246134,0
1711327458746,1711327449517,2246289,0
1711327458746,1711327449557,2246189,0
1711327458746,1711327449597,2246259,0
1711327458746,1711327449637,2246297,0
1711327458746,1711327449677,2246310,0
1711327458746,1711327449717,2246343,0
1711327458746,1711327449757,2246485,0
1711327458746,1711327449798,2246444,0
1711327458746,1711327449838,2246256,0
1711327458746,1711327449878,2246124,0
1711327458746,1711327449918,2246062,0
1711327458746,1711327449958,2245982,0
1711327458746,1711327449999,2246133,0
1711327458746,1711327450038,2246267,0
1711327458746,1711327450078,2246224,0
1711327458746,1711327450119,2246387,0
1711327458746,1711327450159,2246411,0
1711327458746,1711327450199,2246440,0
1711327458746,1711327450239,2246769,0
1711327458746,1711327450279,2246993,0
1711327458746,1711327450319,2247268,0
1711327458746,1711327450359,2247587,0
1711327458746,1711327450400,2247633,0
1711327458746,1711327450439,2247710,0
1711327458746,1711327450480,2247825,0
1711327458746,1711327450520,2247737,0
1711327458746,1711327450560,2247534,0
1711327458746,1711327450601,2247476,0
1711327458746,1711327450640,2247300,0
1711327458746,1711327450680,2247307,0
1711327458746,1711327450720,2247368,0
1711327458746,1711327450760,2247477,0
1711327458746,1711327450801,2247404,0
1711327458746,1711327450840,2247493,0
1711327458746,1711327450880,2247392,0
1711327458746,1711327450920,2247617,0
1711327458746,1711327450961,2247777,0
1711327458746,1711327451001,2247869,0
1711327458746,1711327451041,2248032,0
1711327458746,1711327451081,2248119,0
1711327458746,1711327451121,2248407,0
1711327458746,1711327451161,2248513,0
1711327458746,1711327451202,2248827,0
1711327458746,1711327451241,2248877,0
1711327458746,1711327451281,2248865,0
1711327458746,1711327451321,2248818,0
1711327458746,1711327451361,2248662,0
1711327458746,1711327451402,2248555,0
1711327458746,1711327451442,2248529,0
1711327458746,1711327451482,2248435,0
1711327458746,1711327451522,2248608,0
1711327458746,1711327451562,2248485,0
1711327458746,1711327451603,2248470,0
1711327458746,1711327451642,2248486,0
1711327458746,1711327451682,2248488,0
1711327458746,1711327451722,2248443,0
1711327458746,1711327451762,2248392,0
1711327458746,1711327451803,2248522,0
1711327458746,1711327451842,2248532,0
1711327458746,1711327451882,2248536,0
1711327458746,1711327451923,2248561,0
1711327458746,1711327451963,2248451,0
1711327458746,1711327452003,2248494,0
1711327458746,1711327452043,2248476,0
1711327458746,1711327452083,2248408,0
1711327458746,1711327452123,2248135,0
1711327458746,1711327452163,2247787,0
1711327458746,1711327452204,2247773,0
1711327458746,1711327452243,2247649,0
1711327458746,1711327452283,2247633,0
1711327458746,1711327452323,2247601,0
1711327458746,1711327452363,2247687,0
1711327458746,1711327452404,2247696,0
1711327458746,1711327452444,2247754,0
1711327458746,1711327452484,2247795,0
1711327458746,1711327452524,2247885,0
1711327458746,1711327452564,2247859,0
1711327458746,1711327452605,2247974,0
1711327458746,1711327452644,2248035,0
1711327458746,1711327452684,2248101,0
1711327458746,1711327452724,2248097,0
1711327458746,1711327452764,2248148,0
1711327458746,1711327452805,2248154,0
1711327458746,1711327452845,2248226,0
1711327458746,1711327452885,2248240,0
1711327458746,1711327452925,2248072,0
1711327458746,1711327452965,2247838,0
