Timestamp,Cleaned_PPG
1710999848152,0.0
1710999848192,0.0
1710999848233,0.0
1710999848273,0.0
1710999848313,0.0
1710999848353,0.0
1710999848393,0.0
1710999848434,0.0
1710999848473,0.0
1710999848514,0.0
1710999848554,0.0
1710999848594,0.0
1710999848635,0.0
1710999848674,0.0
1710999848714,0.0
1710999848754,0.0
1710999848794,0.0
1710999848835,0.0
1710999848875,0.0
1710999848915,0.0
1710999848955,0.0
1710999848995,0.0
1710999849036,0.0
1710999849075,0.0
1710999849115,0.0
1710999849155,0.0
1710999849195,0.0
1710999849237,0.0
1710999849278,0.0
1710999849316,0.0
1710999849356,0.0
1710999849396,0.0
1710999849437,2114549.0
1710999849476,1985377.1570731811
1710999849516,1863850.2409339543
1710999849556,1749958.2392812201
1710999849597,1642829.3119176026
1710999849638,1541708.64341005
1710999849677,1446789.2706781763
1710999849717,1357839.9701888051
1710999849757,1274442.998700233
1710999849797,1196379.4888124869
1710999849838,1123042.7803689425
1710999849877,1054114.8414127114
1710999849918,989587.5966329463
1710999849958,929272.4155739818
1710999849998,872442.7304781803
1710999850039,819145.3136015171
1710999850078,768888.8778888269
1710999850118,720399.8051718376
1710999850158,675361.5659054811
1710999850199,633891.2327146339
1710999850239,594535.670856433
1710999850279,557974.765596716
1710999850319,522905.9086249657
1710999850359,489712.95472410927
1710999850399,460339.806578184
1710999850440,433152.5412962609
1710999850479,409801.91989258304
1710999850520,388284.6641353897
1710999850560,364941.3091930705
1710999850600,341503.35258841
1710999850641,316775.96839658543
1710999850680,293145.8979323299
1710999850720,270895.779579598
1710999850760,250565.71671448555
1710999850801,232840.3083357322
1710999850842,218515.28905570437
1710999850881,207820.56657557585
1710999850921,199594.98162968946
1710999850961,192050.65428988962
1710999851001,183471.3886437011
1710999851042,173905.42259179242
1710999851081,164744.62693455257
1710999851122,153615.77064871904
1710999851162,142536.47454300057
1710999851202,132058.0521843508
1710999851243,122267.01030088472
1710999851282,115202.0441564424
1710999851322,109083.35214315215
1710999851362,104401.95249229087
1710999851403,100305.41320894076
1710999851443,95673.18735430622
1710999851485,89735.38474912499
1710999851523,84066.45546517381
1710999851563,77831.04847551999
1710999851603,73057.30306794075
1710999851644,69273.85315277055
1710999851683,66903.37176975724
1710999851724,64424.15015649609
1710999851764,61220.05240008794
1710999851804,58332.506521611474
1710999851845,52945.57267194358
1710999851884,47364.86614924064
1710999851924,43634.75193209038
1710999851964,40452.60248938133
1710999852005,39044.78777502407
1710999852046,37849.20603044005
1710999852085,35401.08051959565
1710999852125,31551.258523643017
1710999852165,28641.571567060426
1710999852205,25799.65150770638
1710999852246,23027.101074272767
1710999852285,21030.1253183987
1710999852326,19162.75809003366
1710999852366,17958.25805088505
1710999852406,19264.996894218493
1710999852447,20000.165762898512
1710999852486,20676.28305131104
1710999852526,21559.16937160585
1710999852566,20796.791197870858
1710999852607,18173.295204316266
1710999852648,15477.742411741056
1710999852687,14023.895812114235
1710999852727,13504.522927305661
1710999852767,12908.70999795245
1710999852807,12119.623454877641
1710999852848,12250.965767391492
1710999852887,13113.222766353283
1710999852927,13853.613363015465
1710999852967,14426.47097624233
1710999853007,13997.653589629568
1710999853048,12249.621953630354
1710999853088,9891.292157345917
1710999853128,8767.089214892127
1710999853168,9148.934850530699
1710999853208,9862.225917020347
1710999853249,10186.410235568881
1710999853288,9113.177424508613
1710999853328,7466.034118435346
1710999853368,6973.644968554378
1710999853408,8166.1790079809725
1710999853450,9186.27678672783
1710999853489,10427.094210837968
1710999853529,10906.292199366726
1710999853569,11049.978601329029
1710999853609,10850.635221828707
1710999853650,10672.418576231692
1710999853689,10360.061347535811
1710999853729,11392.808642409276
1710999853769,10320.492263858207
1710999853809,8742.15536227636
1710999853850,8636.705102990847
1710999853889,10777.57141298661
1710999853930,15294.654474755283
1710999853970,21560.651297357865
1710999854010,29604.017453998793
1710999854051,38543.55885197781
1710999854090,45799.940184036735
1710999854130,50348.310097445734
1710999854170,53173.29350039922
1710999854210,56170.238065530546
1710999854251,57592.471379423514
1710999854291,51506.51369050052
1710999854331,35066.563143076375
1710999854371,11577.858916451223
1710999854411,-9334.7596060629
1710999854452,-24442.189581862185
1710999854491,-33513.48787035514
1710999854531,-38073.743912412785
1710999854571,-39448.8097491418
1710999854611,-36069.00004774146
1710999854653,-35273.34427187126
1710999854691,-34906.31643391587
1710999854732,-35954.54329864308
1710999854772,-36758.51446262747
1710999854812,-36352.218354081735
1710999854853,-34494.06774941692
1710999854892,-34245.26688047219
1710999854932,-33859.92349331314
1710999854972,-35585.38131815195
1710999855012,-37083.96425901726
1710999855053,-37300.47495321836
1710999855093,-38805.914202592336
1710999855133,-38037.80078169983
1710999855173,-39184.56952975225
1710999855213,-42611.067284181714
1710999855254,-45373.62328736205
1710999855293,-51309.26213932689
1710999855333,-55940.98219290702
1710999855374,-58541.39886316145
1710999855414,-57920.217161468696
1710999855454,-56242.52539111255
1710999855494,-53796.47678594524
1710999855534,-51457.39456570707
1710999855574,-45222.2564333668
1710999855614,-30000.748164489865
1710999855655,-11272.073725824244
1710999855694,3906.9635626529343
1710999855735,13671.31596355699
1710999855775,21175.699860413093
1710999855815,23429.737799111754
1710999855856,23344.077423942275
1710999855895,21982.036845409777
1710999855935,22996.909684801474
1710999855976,24020.315328763798
1710999856016,29252.671807661653
1710999856056,34378.75995934941
1710999856096,37845.77049718192
1710999856136,37784.12447198294
1710999856176,37325.959933477454
1710999856216,36593.71144892927
1710999856257,36173.52307034889
1710999856296,37471.03473190451
1710999856337,39744.05217417609
1710999856377,38605.596321308985
1710999856417,37162.41886449419
1710999856458,34408.46614783816
1710999856497,33655.53805768024
1710999856537,29965.759198277257
1710999856578,29733.989121687133
1710999856617,24590.384031869005
1710999856658,16410.264415626414
1710999856698,7634.972524557263
1710999856738,-1453.5986941549927
1710999856778,-7630.7566916765645
1710999856818,-13917.761840639636
1710999856859,-19083.419371572323
1710999856898,-16875.41946744267
1710999856939,-14249.597745598294
1710999856979,-6780.898459733464
1710999857019,-41.94415534520522
1710999857060,2539.7565308902413
1710999857099,837.4379945481196
1710999857139,3290.1345740654506
1710999857180,535.0047083385289
1710999857220,3155.0465329485014
1710999857260,5071.884175060317
1710999857300,6775.8497481504455
1710999857340,1550.14690485131
1710999857380,-7567.877463449724
1710999857420,-10728.133609664626
1710999857461,-13734.896862492897
1710999857501,-17844.01891728863
1710999857541,-20051.80615536589
1710999857581,-18765.44558861945
1710999857621,-19962.888413011096
1710999857662,-19746.16529948637
1710999857701,-17014.281566817313
1710999857741,-4543.142024565488
1710999857782,-5816.738459541462
1710999857822,-12157.398845469113
1710999857863,-16493.682222289033
1710999857902,-16715.503277468495
1710999857942,-18542.53651103843
1710999857982,-3739.2191354213282
1710999858023,-506.25608652830124
1710999858063,4308.1059321302455
1710999858103,5948.439033587929
1710999858143,5528.448011596687
1710999858183,4723.177460855572
1710999858223,8605.866738765035
1710999858264,1031.6719202434178
1710999858304,-4013.0147695690393
1710999858344,-3127.421145960223
1710999858384,-6506.490675450768
1710999858424,-5036.645769639872
1710999858465,-6808.588244505227
1710999858505,-6641.513138762675
1710999858545,-15193.975525908172
1710999858585,-17872.335290175863
1710999858625,-14434.274091369007
1710999858666,-6672.240583298728
1710999858705,-1531.535874478519
1710999858745,3430.299641670659
1710999858785,6818.241337431595
1710999858825,10189.151324340142
1710999858866,8032.244584781583
1710999858906,13795.875514585292
1710999858946,28901.811663083266
1710999858986,38783.35999755561
1710999859026,39763.3250128231
1710999859067,45525.24473883002
1710999859106,50210.323004313745
1710999859146,42670.636430774815
1710999859186,40533.07665125164
1710999859227,39770.624426136725
1710999859267,24842.606646274682
1710999859307,23960.29609773308
1710999859347,23071.99869008595
1710999859387,29493.092160088476
1710999859427,41567.1946883013
1710999859468,46583.03492338257
1710999859507,56437.15267196391
1710999859547,69342.21898320364
1710999859588,71207.35222297558
1710999859628,57152.65179499751
1710999859669,51861.3421763049
1710999859708,32235.31552937487
1710999859748,15462.09017779585
1710999859788,-8407.976091133896
1710999859828,-22962.307768763974
1710999859869,-44029.36748869205
1710999859908,-64280.451143821236
1710999859949,-81603.93918481283
1710999859989,-91487.8596700374
1710999860029,-97232.27523966227
1710999860070,-101365.76953333803
1710999860109,-107245.87666535936
1710999860149,-111080.78729127906
1710999860193,-116483.93028487125
1710999860233,-124612.68963870034
1710999860274,-131433.2282064464
1710999860314,-136878.00648018345
1710999860354,-135338.7294996432
1710999860394,-124669.12694207439
1710999860434,-103895.35248022992
1710999860475,-87324.97963521583
1710999860514,-69553.35207465012
1710999860554,-56836.03279522131
1710999860594,-54022.396756653674
1710999860634,-60993.00068099843
1710999860675,-72113.95019093528
1710999860714,-82999.66908436501
1710999860755,-92928.6875097435
1710999860795,-108566.47267908696
1710999860835,-121807.66554943472
1710999860876,-127446.54840866709
1710999860915,-124008.61444381624
1710999860955,-116791.04988425737
1710999860995,-99966.38584630028
1710999861036,-79603.78378113825
1710999861076,-58566.40479194699
1710999861116,-39390.52334673051
1710999861156,-26138.991341812536
1710999861196,-14820.92285791412
1710999861236,-5787.078830771148
1710999861277,20.063690525246784
1710999861316,3749.895888870815
1710999861356,3024.4167269060854
1710999861397,832.1731132159475
1710999861437,-2340.1060267286375
1710999861478,-5608.741169221699
1710999861517,-7280.3864419902675
1710999861557,-7980.908797643846
1710999861597,-10378.065072251018
1710999861637,-16710.078004918527
1710999861678,-23158.271574458806
1710999861717,-29643.139646737836
1710999861758,-35564.686297413195
1710999861798,-45037.98314751382
1710999861838,-53984.773846860975
1710999861879,-63367.86740049953
1710999861918,-72695.07869567303
1710999861958,-81864.5212686921
1710999861998,-88224.55912438594
1710999862038,-89386.66084477119
1710999862079,-92388.11737855268
1710999862119,-102489.80214905739
1710999862159,-112528.46857766248
1710999862199,-120291.23509405972
1710999862239,-124618.7401436565
1710999862280,-127794.10383110028
1710999862319,-129930.23913866212
1710999862359,-132821.1487012664
1710999862400,-135899.54288238892
1710999862440,-138398.20307478495
1710999862481,-140448.43568983558
1710999862520,-141481.23706673598
1710999862560,-137248.0641117778
1710999862600,-131158.72177780047
1710999862640,-124653.7072001989
1710999862681,-119159.34714455437
1710999862721,-116729.96599160205
1710999862761,-116890.93925413955
1710999862801,-120186.28047046834
1710999862841,-129834.28693714924
1710999862882,-139424.03701382503
1710999862921,-143465.85341794812
1710999862961,-143456.71357512008
1710999863001,-141182.48223581747
1710999863042,-136325.03075382137
1710999863082,-129556.67860700283
1710999863122,-124738.37258423073
1710999863162,-122574.87205004971
1710999863202,-122231.87330992939
1710999863242,-122137.0593122486
1710999863283,-119163.01976285642
1710999863323,-112032.55170885473
1710999863363,-100916.44501090655
1710999863403,-89846.70284600463
1710999863443,-80295.67259750236
1710999863484,-73056.3865343174
1710999863523,-73777.46684333915
1710999863563,-83716.18308696849
1710999863604,-93722.9390695002
1710999863644,-98433.44604346901
1710999863685,-97361.83300281223
1710999863724,-92861.50646676379
1710999863764,-86703.94917543698
1710999863804,-80111.4290295241
1710999863844,-77695.3077104222
1710999863885,-76131.21989814751
1710999863925,-73222.26363357948
1710999863965,-70013.75242693676
1710999864005,-64608.27758415509
1710999864045,-57565.27263256558
1710999864086,-48449.98948340677
1710999864125,-40723.94195972872
1710999864166,-39244.06815702282
1710999864206,-47065.21236709715
1710999864246,-57554.56312973425
1710999864287,-63205.36071725981
1710999864326,-65542.55978393648
1710999864366,-63931.85146708647
1710999864407,-61056.79320962122
1710999864447,-56151.47529336205
1710999864487,-49985.56660227757
1710999864527,-42082.22963797604
1710999864567,-38038.16670404002
1710999864607,-37621.14021605253
1710999864647,-38470.68672418408
1710999864688,-39565.8465372643
1710999864727,-39116.53789326688
1710999864768,-36682.797299306374
1710999864807,-39393.90672531817
1710999864848,-44948.24261791585
1710999864888,-48194.045715591405
1710999864928,-48555.16908882465
1710999864968,-46175.55150384945
1710999865008,-41858.835556379054
1710999865048,-39259.85201545106
1710999865089,-38712.77085720119
1710999865128,-37722.72631243477
1710999865168,-35885.06871892116
1710999865209,-32313.375742048724
1710999865249,-26575.515062683728
1710999865289,-20443.113009136636
1710999865329,-14594.842412394471
1710999865369,-9759.213165254798
1710999865409,-9884.45555977663
1710999865449,-22137.257308591623
1710999865490,-37264.46270931279
1710999865529,-45667.4303476261
1710999865569,-51265.00718288054
1710999865610,-50864.21232115012
1710999865649,-50158.3201423923
1710999865690,-50116.313244400546
1710999865730,-50778.7536874332
1710999865770,-52356.91175182769
1710999865810,-51865.953931617085
1710999865850,-47436.20835954882
1710999865891,-37812.68657926773
1710999865930,-24593.466033751843
1710999865970,-12767.381649391493
1710999866010,2464.359396391548
1710999866051,18764.039564453764
1710999866092,28290.688940318767
1710999866131,27798.472006957512
1710999866171,23661.64686959423
1710999866211,21764.253544092644
1710999866251,22643.39265084872
1710999866292,26438.84132651752
1710999866331,29952.09996233927
1710999866371,34925.93750338
1710999866411,38796.47874381463
1710999866452,41815.5268551358
1710999866492,44983.0797074032
1710999866532,46192.94129179395
1710999866572,47012.774702093564
1710999866612,55512.540956722805
1710999866652,53566.09468214656
1710999866693,38225.27142367163
1710999866732,26414.777896468062
1710999866773,19423.174156229943
1710999866813,13646.989971613279
1710999866853,15716.678685147781
1710999866894,17444.794908180833
1710999866933,8189.505048936233
1710999866973,-7576.3694167668
1710999867013,-18818.535219466314
1710999867053,-24065.2271563299
1710999867094,-26835.476847826038
1710999867133,-28293.347704483895
1710999867174,-37310.655435136054
1710999867214,-46400.22966512153
1710999867254,-44745.180561236106
1710999867295,-38392.99322935892
1710999867334,-39989.256202734075
1710999867374,-37335.49190215138
1710999867414,-33669.546514562564
1710999867454,-15050.73128478229
1710999867495,4189.053585070418
1710999867535,15252.727877415018
1710999867575,24172.13264162466
1710999867615,36119.356139395386
1710999867655,44588.61449466576
1710999867696,54278.04924739548
1710999867735,67940.7106416612
1710999867775,79373.12137408485
1710999867815,85187.41768279253
1710999867855,87440.73997889599
1710999867896,76582.82589224796
1710999867936,74004.14273644262
1710999867976,86699.5547499475
1710999868016,85565.32364926813
1710999868056,71238.879290852
1710999868097,65427.11591920396
1710999868137,62196.20005434193
1710999868176,62295.17135840352
1710999868217,63143.23517970857
1710999868257,68943.6629654998
1710999868298,75605.39575908892
1710999868337,83701.5496024643
1710999868377,95296.08201930625
1710999868417,97202.24962306046
1710999868457,100415.5081258479
1710999868498,103757.2453541127
1710999868538,100577.59047337645
1710999868578,88067.37797075044
1710999868618,93145.23078372749
1710999868658,104675.47506211419
1710999868699,112544.72637631278
1710999868738,103790.70213978365
1710999868778,93567.75839453097
1710999868818,89860.99444621848
1710999868859,87242.22182826279
1710999868900,82118.85618630121
1710999868939,78427.51419290574
1710999868979,69414.17102344427
1710999869019,53268.10071051051
1710999869059,41971.65649436973
1710999869100,34781.351388334995
1710999869140,30085.707786485087
1710999869180,23874.265346535947
1710999869220,17724.362282588147
1710999869260,21010.490279739723
1710999869301,37699.84771863604
1710999869341,61332.10164815979
1710999869381,74998.02493909467
1710999869421,72535.3313434557
1710999869461,67808.21076660976
1710999869502,60011.59412090061
1710999869541,46949.21691526729
1710999869581,40016.39235463622
1710999869621,31893.721826002467
1710999869662,26506.02849436947
1710999869703,29847.359084686264
1710999869742,37561.43742736825
1710999869782,44518.27659191447
1710999869822,46420.419618066866
1710999869862,56337.200883796206
1710999869903,60670.19109636871
1710999869943,63009.240721893264
1710999869983,66298.15010328195
1710999870023,68625.72156047681
1710999870063,68350.64256579243
1710999870104,64185.40160262911
1710999870143,60907.80144969933
1710999870184,55453.813641772605
1710999870224,47405.181384800235
1710999870264,37054.78391254577
1710999870305,25022.76749079954
1710999870344,14847.8756894283
1710999870384,8451.615823851898
1710999870425,3892.708321447484
1710999870465,8316.176816714229
1710999870506,15095.655325756175
1710999870545,11306.157869883347
1710999870585,7512.646773362532
1710999870625,4303.030725331977
1710999870665,869.8014008866157
1710999870706,3827.019206023775
1710999870746,3982.829120911425
1710999870786,6623.75883373688
1710999870826,13407.86944098305
1710999870866,12719.870231993962
1710999870907,13733.074962714687
1710999870946,6911.10307049728
1710999870986,7976.0891262302175
1710999871026,4780.787505945656
1710999871066,-1766.5277508785948
1710999871107,-8523.867597687291
1710999871147,-14162.593744019046
1710999871187,-14601.174684146885
1710999871227,-16194.378770240117
1710999871267,-15087.411105656764
1710999871308,-15195.549973397516
1710999871347,-15235.396073769312
1710999871387,-13144.216928818729
1710999871427,-12454.773200768512
1710999871467,-10855.246213686187
1710999871508,-7952.859321243595
1710999871548,-5251.908047954086
1710999871588,-3458.788760245312
1710999871628,-1327.819704277208
1710999871668,853.2104301210493
1710999871709,62.53887584106997
1710999871748,-7671.972828607541
1710999871788,-15330.846349764848
1710999871828,-19075.088702660054
1710999871868,-21156.562924689846
1710999871909,-21033.95052479906
1710999871948,-21010.935127087636
1710999871989,-20492.525110985152
1710999872029,-20064.558757703984
1710999872069,-19939.15306961909
1710999872110,-18458.81913394807
1710999872149,-16660.86178291822
1710999872189,-14656.110897320788
1710999872229,-7586.764297296992
1710999872269,-4158.591591056436
1710999872310,-4366.641118778614
1710999872350,-3426.232121359557
1710999872390,-23.964738622307777
1710999872430,1526.5848082073499
1710999872470,-2710.566782040987
1710999872511,-6769.8441630858
1710999872550,-9912.458809366915
1710999872590,-10775.706243195571
1710999872630,-10552.95380868134
1710999872670,-8663.120894602034
1710999872711,-8568.42154287966
1710999872751,-13516.594670734368
1710999872791,-20089.857346455567
1710999872831,-26290.356046723202
1710999872871,-16048.439181121066
1710999872912,-9718.963879160816
1710999872951,-6601.826395738404
1710999872992,14418.20355162071
1710999873032,45710.21485552844
1710999873072,88286.49452188169
1710999873112,-61112.12036415585
1710999873152,-52431.11788211111
1710999873192,-54643.70742984908
1710999873232,-37567.57644398697
1710999873272,-26657.87636805279
1710999873313,-14963.450802727137
1710999873353,-8719.338122435845
1710999873393,-4264.152321116999
1710999873433,-754.7632256560028
1710999873473,3987.977593372576
1710999873514,7532.260728387395
1710999873553,10776.76114049158
1710999873593,15002.718413256807
1710999873633,19521.107764699496
1710999873674,22263.765322101768
1710999873714,23804.430987346685
1710999873754,24928.377624549437
1710999873794,23945.89830686082
1710999873834,21945.54486508551
1710999873874,21749.546479193494
1710999873915,9970.237769941334
1710999873954,-271.5388886309229
1710999873994,7272.695659357123
1710999874035,21505.119805887574
1710999874075,49387.639414503705
1710999874115,75742.42219719663
1710999874155,78086.09750782186
1710999874195,81254.56323306728
1710999874235,88351.38623393071
1710999874275,77748.78498604894
1710999874316,53656.590739456704
1710999874355,-1111.8385833876673
1710999874396,165519.126487514
1710999874436,167663.44777609734
1710999874476,168494.62707467144
1710999874517,164020.3698284747
1710999874556,157984.0539027166
1710999874596,151584.65096092783
1710999874637,146229.32813418377
1710999874677,140660.69311469095
1710999874717,134748.0555602531
1710999874757,127856.12471877085
1710999874797,121036.72678789217
1710999874837,114974.37803406408
1710999874877,109351.48721499788
1710999874918,103196.23040142073
1710999874957,98918.51705908123
1710999874998,94616.31696396088
1710999875038,90928.59853405925
1710999875078,88266.65278825234
1710999875119,89152.96135886735
1710999875158,89820.19224520493
1710999875198,96821.44795400463
1710999875239,99362.60207232996
1710999875279,86678.90506866807
1710999875319,62657.555127240485
1710999875359,44971.669913058635
1710999875399,32266.1541456033
1710999875439,23588.436929621734
1710999875479,17594.93079929892
1710999875520,11384.15743132052
1710999875560,5532.845483455341
1710999875600,11644.402673156466
1710999875640,46871.90184578113
1710999875680,56978.19735805667
1710999875721,34142.51559593715
1710999875760,33754.880512234755
1710999875800,30597.557817107532
1710999875841,32185.747288635
1710999875881,36703.67676098202
1710999875922,38751.09753453126
1710999875961,37374.51192288194
1710999876001,33990.873085223604
1710999876041,30690.516330894316
1710999876082,29013.245362637565
1710999876122,28101.271117531927
1710999876162,27982.48987151729
1710999876202,28378.840545427985
1710999876242,26906.777036275016
1710999876282,25920.720174711198
1710999876323,25540.78580096364
1710999876362,25116.17834404297
1710999876403,25111.31806417415
1710999876443,22711.455137351062
1710999876483,22413.584182416787
1710999876524,22675.560538645834
1710999876563,22121.943777327426
1710999876603,37721.247527538566
1710999876643,38649.545929427724
1710999876684,38062.58865018678
1710999876724,39611.12649062509
1710999876764,39058.7701620115
1710999876804,37391.652007428
1710999876844,39417.29011817416
1710999876884,34713.09292982472
1710999876925,24710.145756172482
1710999876964,15410.847900647204
1710999877004,37384.778073775815
1710999877044,37451.70990151493
1710999877084,38917.88691834081
1710999877125,39787.87859540712
1710999877165,37379.780425702455
1710999877205,34580.754349168856
1710999877245,33617.277011892525
1710999877285,32592.52916828287
1710999877326,31600.296200020937
1710999877365,30810.165759646567
1710999877405,29948.686620107852
1710999877445,28175.630670870887
1710999877485,26911.816123029916
1710999877526,25924.324198602466
1710999877565,24096.08932548249
1710999877606,23344.348020676523
1710999877646,21996.443281212123
1710999877686,21648.136915173847
1710999877727,20849.08881152142
1710999877766,20565.414402102353
1710999877806,20223.083565790905
1710999877846,19513.443759438116
1710999877886,19065.209329559933
1710999877927,18740.58691261965
1710999877966,18118.127139705233
1710999878007,17263.03154851729
1710999878047,16677.679371620296
1710999878087,16292.684786496218
1710999878128,15939.170340148266
1710999878167,15083.417962868232
1710999878207,14916.112858768785
1710999878247,14000.8432232833
1710999878287,13858.031268093502
1710999878328,13740.076138346922
1710999878368,13328.19944412075
1710999878408,13775.896958212834
1710999878448,13515.271105444059
1710999878488,12754.073505186476
1710999878529,11542.131209365092
1710999878568,10779.427544301376
1710999878608,9980.853450822644
1710999878648,9737.805649343412
1710999878689,10092.89285267517
1710999878730,10318.794640537817
1710999878769,10397.03018508479
1710999878809,10261.155260845087
1710999878849,10960.344821250532
1710999878889,10499.482101435307
1710999878930,11284.001124802977
1710999878970,10670.48917369591
1710999879010,10229.963335399516
1710999879050,9643.136098980904
1710999879090,9558.417649515904
1710999879131,9547.110643956345
1710999879170,9723.999246831983
1710999879210,9659.961266917642
1710999879250,9834.059884519782
1710999879290,10622.894538378809
1710999879331,10731.276344363112
1710999879371,10717.103887504432
1710999879411,10357.32145931013
1710999879451,10520.387753513642
1710999879491,10635.100167173892
1710999879532,10751.299419428688
1710999879571,10072.939650165383
1710999879612,9464.979595317971
1710999879652,10200.578551804647
1710999879692,9505.87496850174
1710999879733,9005.132692830637
1710999879772,9009.768220443279
1710999879812,9854.417034743354
1710999879852,9559.767283579335
1710999879893,10419.213814751245
1710999879934,10224.773651281837
1710999879973,9385.48882603366
1710999880013,8590.56769319158
1710999880053,8741.826062983833
1710999880093,8803.7480755914
1710999880134,8508.062118609436
1710999880174,8599.813573735766
1710999880214,7845.828379529063
1710999880254,7625.45714789303
1710999880294,8296.21230990626
1710999880335,8702.547738466412
1710999880374,8235.56492589973
1710999880414,8294.36102903448
1710999880454,8399.236776617356
1710999880495,8218.368563956581
1710999880536,7020.495518400334
1710999880575,6641.436906697229
1710999880615,6746.591957246885
1710999880655,6965.830624515191
1710999880695,6297.244620023295
1710999880736,6142.095524335746
1710999880776,5170.116860971786
1710999880816,5101.627167477272
1710999880856,4813.747452264652
1710999880896,4756.221669528633
1710999880937,4134.501396777574
1710999880976,3938.8754165722057
1710999881017,3916.6944793812
1710999881057,4091.883395003155
1710999881097,3409.977085115388
1710999881138,3156.540522230789
1710999881177,2922.621627920307
1710999881217,2919.14859124925
1710999881258,3267.6673228931613
1710999881298,3837.171764849685
1710999881338,4127.332101756241
1710999881378,4097.438520803582
1710999881418,4205.465953298844
1710999881458,3896.936140751466
1710999881498,3867.783324912656
1710999881539,3555.3137948769145
1710999881579,2504.348628628999
1710999881619,2415.1025605294853
1710999881659,2616.1581404772587
1710999881699,1903.2145116971806
1710999881740,1361.7393861906603
1710999881779,984.5555756473914
1710999881820,1077.467636950314
1710999881860,395.9288824023679
1710999881900,-183.62483602110296
1710999881941,-944.3506226409227
1710999881980,-1361.8001321461052
1710999882020,-2464.1786877410486
1710999882061,-2938.310747837648
1710999882101,-3424.4863886046223
1710999882142,-3874.081600865349
1710999882181,-4331.361062367447
1710999882221,-4957.264931825455
1710999882261,-6035.671987480484
1710999882301,-6001.393776786514
1710999882342,-6109.126678934321
1710999882382,-6194.17021690961
1710999882422,-5696.755069571082
1710999882462,-5448.45426277956
1710999882502,-5188.24581018649
1710999882543,-5222.847169348504
1710999882582,-5517.043796138372
1710999882622,-6444.847944000736
1710999882662,-7691.100688015576
1710999882703,-8782.506655072793
1710999882743,-9181.940193436109
1710999882783,-9716.572273811325
1710999882823,-10230.159000095446
1710999882863,-10211.967586813495
1710999882903,-10127.721985459328
1710999882944,-10753.511048312299
1710999882983,-10577.586293890607
1710999883023,-10229.340293499641
1710999883064,-9832.072647687048
1710999883104,-9451.605751465075
1710999883144,-8761.61254190607
1710999883184,-8555.960125996266
1710999883224,-7774.960635907482
1710999883264,-6595.930782809854
1710999883304,-5737.5579645279795
1710999883345,-5083.3109787558205
1710999883384,-4733.979211223312
1710999883425,-4774.945525570773
1710999883465,-5392.669644485228
1710999883505,-6299.611022152472
1710999883546,-7113.389921686612
1710999883585,-7185.270596506074
1710999883625,-7334.673075266648
1710999883665,-6758.940400032792
1710999883705,-6655.479781417642
1710999883746,-6485.771487140097
1710999883785,-6057.451190587599
1710999883825,-6014.73108306108
1710999883866,-5637.547222300433
1710999883906,-5122.587109982967
1710999883946,-4511.816695082001
1710999883986,-4540.757697036024
1710999884026,-4469.549539693166
1710999884066,-3907.225088432897
1710999884106,-3261.4920643065125
1710999884147,-3080.9831072106026
1710999884186,-3492.4742876635864
1710999884226,-4161.548970619217
1710999884267,-5254.506259503774
1710999884307,-5946.26096564997
1710999884347,-6607.442955783568
1710999884387,-6804.604773031548
1710999884427,-6282.8858578871
1710999884467,-6159.660823895596
1710999884507,-6016.056957646273
1710999884548,-6376.932709285058
1710999884587,-6113.515993291512
1710999884628,-5880.657053887844
1710999884668,-5824.974754942581
1710999884708,-5739.835522898473
1710999884749,-5281.677324009594
1710999884788,-4681.97749287216
1710999884828,-4330.272815006785
1710999884868,-4682.723778397776
1710999884908,-4050.043443658389
1710999884949,-3655.1829942041077
1710999884989,-2926.1445259470493
1710999885029,-4531.404842438176
1710999885069,-7554.928642903455
1710999885109,-9352.389101408888
1710999885150,-11397.080451107584
1710999885189,-12404.60190121457
1710999885229,-12623.129534217529
1710999885270,-12431.01176494686
1710999885310,-11969.715988062322
1710999885351,-11040.27239099145
1710999885390,-10450.606920269318
1710999885430,-9086.286620014347
1710999885470,-7254.423860013485
1710999885510,-4900.747480574064
1710999885551,-1416.5881209950894
1710999885591,1163.2709878804162
1710999885631,3893.112841846887
1710999885671,6044.362245990895
1710999885711,7337.466766539961
1710999885752,9720.450510376133
1710999885791,11717.719988749363
1710999885831,10207.746827235911
1710999885871,8251.96329794731
1710999885911,7425.891257258132
1710999885952,6798.295781061519
1710999885992,6487.210405696183
1710999886032,6697.04492986016
1710999886072,7720.454490389675
1710999886112,8931.256469782442
1710999886153,9277.672654997557
1710999886192,9978.961839268915
1710999886232,10940.270631140098
1710999886273,11361.46762692649
1710999886313,11817.765434780158
1710999886354,12672.044013421051
1710999886393,13221.422657446936
1710999886433,13282.503107105382
1710999886473,13720.777855718508
1710999886513,14055.216208261438
1710999886554,14916.667323483154
1710999886594,15608.403122182935
1710999886634,16017.087050926406
1710999886674,17404.582594140433
1710999886714,16220.448905122466
1710999886755,14388.27393817855
1710999886794,13839.355992889963
1710999886834,12638.810538085178
1710999886875,12272.95637370972
1710999886915,12296.281706321985
1710999886956,12569.77631957829
1710999886995,13034.93547968613
1710999887035,13092.13542911224
1710999887075,12623.587985544465
1710999887115,12741.1190039278
1710999887156,12575.367411065847
1710999887196,12642.93859435711
1710999887236,12762.087422642857
1710999887276,13017.883265499026
1710999887316,12868.400199037045
1710999887357,12094.050074126571
1710999887396,12063.624553276226
1710999887437,12687.433622458018
1710999887477,12279.480398944113
1710999887517,12770.877708592452
1710999887558,12376.536732736975
1710999887597,10597.202937725931
1710999887637,9401.448191617616
1710999887677,8296.23004739033
1710999887717,8413.068087998312
1710999887759,8571.11376143014
1710999887798,8232.830400310457
1710999887838,8077.537564889062
1710999887878,7667.319442362059
1710999887918,7545.106534871273
1710999887959,7359.192933076993
1710999887999,7923.4277550634
1710999888039,8025.775626243558
1710999888079,8411.766219897196
1710999888119,9188.68797256425
1710999888160,9262.649543508887
1710999888199,9729.297591404058
1710999888239,10161.504688616842
1710999888279,10522.31497014407
1710999888320,10835.445218977518
1710999888360,10783.333467749413
1710999888400,10047.251077193767
1710999888440,9369.614361152984
1710999888480,9130.39310236089
1710999888520,9231.734242632985
1710999888561,9136.39470196981
1710999888600,9644.51724548731
1710999888640,9450.762928181328
1710999888680,9362.226514964364
1710999888721,8706.815800915472
1710999888761,8707.53636231646
1710999888801,8996.438026079908
1710999888841,9368.22836167179
1710999888881,9533.022443986032
1710999888921,9640.694941500202
1710999888962,10342.07594528282
1710999889001,10118.614663681015
1710999889041,9960.777019723784
1710999889082,10118.439079432748
1710999889122,10465.7955493615
1710999889162,10224.163341725245
1710999889202,9524.70595525857
1710999889242,8834.9811347723
1710999889282,7842.20935985446
1710999889322,8118.305963818915
1710999889363,7916.101539424621
1710999889402,8018.363185340073
1710999889443,8428.008271837607
1710999889483,7899.443861125968
1710999889523,7948.77235158626
1710999889564,7972.126475375146
1710999889603,8205.08594544651
1710999889643,7652.896924670786
1710999889683,7806.248089119326
1710999889723,8240.894961791113
1710999889764,8130.743918471038
1710999889804,7698.517255274579
1710999889844,7725.215248664841
1710999889884,7968.853220513556
1710999889924,7790.154804259539
1710999889965,7278.037683732808
1710999890004,7420.935087997466
1710999890044,7070.114878056105
1710999890084,6023.038608107716
1710999890124,5323.626883292571
1710999890165,5527.164407589473
1710999890205,4830.335947127081
1710999890245,3870.0249661845155
1710999890285,4011.4080378161743
1710999890325,3100.610083871521
1710999890366,3485.5201823515818
1710999890406,3506.2076286617666
1710999890445,3621.447471716441
1710999890486,4080.7860235762782
1710999890526,4150.43282070756
1710999890567,4261.346843959298
1710999890606,4554.670569423586
1710999890646,4998.1715784184635
1710999890686,3204.852904830128
1710999890726,1323.7214561505243
1710999890767,567.0216914145276
1710999890807,181.29516867082566
1710999890847,-483.5732696726918
1710999890887,-1761.3366552703083
1710999890927,-783.0544986883178
1710999890968,-3051.18872724846
1710999891007,-2968.228926180862
1710999891047,-5787.056605714373
1710999891087,-10529.36788688507
1710999891128,-10442.990705514327
1710999891168,-7663.758670162875
1710999891208,-7186.156023708172
1710999891248,-4072.8391998750158
1710999891288,-1931.2467840365134
1710999891328,2518.1919231321663
1710999891369,7342.172686058562
1710999891408,8993.720614184625
1710999891449,1906.9756640638225
1710999891489,-225.41254202555865
1710999891529,-18009.55055523105
1710999891570,-30950.135511942208
1710999891609,-42776.68576580938
1710999891649,-55781.42552964296
1710999891689,-60592.453511781525
1710999891730,-63436.572359480895
1710999891770,-62102.79976532608
1710999891810,-57069.89587253146
1710999891850,-53948.29136398295
1710999891890,-64386.088619413786
1710999891930,-59526.33085891511
1710999891971,-61088.62997243507
1710999892010,-62126.09901282983
1710999892050,-61205.25349861011
1710999892091,-59029.12920252979
1710999892131,-60755.36275865603
1710999892172,-60987.77031069808
1710999892211,-66102.8325777445
1710999892251,-64841.91863164492
1710999892291,-66955.70957452618
1710999892331,-59862.80399123859
1710999892372,-52224.15539400047
1710999892411,-45991.2507920051
1710999892452,-36008.15297242161
1710999892492,-23944.861069790088
1710999892532,-11969.076969473623
1710999892573,-8885.704322126694
1710999892612,-10276.516426238231
1710999892652,-15123.851590281352
1710999892692,-14009.287666954566
1710999892732,-8458.20685979072
1710999892773,-11540.860352292657
1710999892813,-2741.206016618293
1710999892853,-2472.758590210229
1710999892893,-2084.4782570828684
1710999892933,-4405.621437365189
1710999892974,-6043.132796501741
1710999893013,342.52993944473565
1710999893054,5597.423384220339
1710999893094,-1878.5535607589409
1710999893134,-2471.8941728956997
1710999893175,12905.02003578702
1710999893214,17288.314547312446
1710999893255,22358.64221475087
1710999893295,22956.105954044964
1710999893335,20162.5336999516
1710999893376,13895.335765567608
1710999893415,11446.37401912827
1710999893455,9585.256055117585
1710999893495,11158.232651785947
1710999893536,15227.241845393553
1710999893576,17246.820278126746
1710999893616,18064.02032267116
1710999893656,25924.422258857638
1710999893696,30820.48843226768
1710999893736,37290.29081280809
1710999893777,37288.94977055397
1710999893816,29325.443641609978
1710999893857,24186.38353179302
1710999893897,20354.200059077237
1710999893937,22188.089286278933
1710999893978,25246.0803493415
1710999894017,32377.064181388356
1710999894057,28104.645730342716
1710999894097,31104.67105375603
1710999894138,47203.24783644453
1710999894178,42254.459376498125
1710999894218,52881.43584742816
1710999894258,36179.83930500597
1710999894298,4154.419617379084
1710999894338,-7939.508753924165
1710999894379,-10255.397486879956
1710999894418,-15473.550681021065
1710999894458,-24837.21337946877
1710999894498,-38377.35770518938
1710999894538,-35392.43117712205
1710999894579,-28281.717288295273
1710999894619,-18979.20061070565
1710999894659,-7422.663120432757
1710999894699,-1840.761887579225
1710999894739,2895.9359369026497
1710999894780,6438.790480838623
1710999894819,4019.3579933019355
1710999894859,-4197.618075925391
1710999894899,-17600.76879899297
1710999894939,-32698.42094512889
1710999894980,-44489.257016343996
1710999895020,-54214.08906705072
1710999895060,-57833.801958557684
1710999895100,-64219.5517236013
1710999895140,-74314.96206394956
1710999895181,-69007.99461516086
1710999895220,-62484.348667277955
1710999895260,-74278.8739360515
1710999895300,-77628.72803441342
1710999895340,-61539.90875041997
1710999895381,-52119.12505010376
1710999895421,-61701.04045862472
1710999895461,-49855.217984521296
1710999895501,-65758.60314744618
1710999895541,-45724.88569087908
1710999895582,-18712.09429449844
1710999895621,-2640.5774879937526
1710999895661,11343.207103375578
1710999895701,29708.07769424375
1710999895741,53082.6362693517
1710999895782,65775.45021576062
1710999895822,64509.71834836528
1710999895862,51558.81326998561
1710999895902,48580.077109253965
1710999895942,32361.10199302924
1710999895983,22413.331305462867
1710999896022,21870.599142278545
1710999896062,13906.60405000858
1710999896102,6976.841572294012
1710999896142,11788.87030868046
1710999896183,8319.252369905356
1710999896222,2081.77675984893
1710999896263,-4590.353558296803
1710999896303,-16563.27665152587
1710999896343,-24623.164388388395
1710999896384,-26396.721818489954
1710999896423,-14565.724546929821
1710999896463,-9323.91730125621
1710999896503,-7596.013554462697
1710999896543,9615.740939576179
1710999896584,13732.752312320285
1710999896624,8008.905596331228
1710999896664,12810.409657932585
1710999896704,7952.204589173663
1710999896744,3077.36091594398
1710999896785,33923.58120029094
1710999896824,48086.96673691948
1710999896864,16798.538706031162
1710999896904,-18640.336454005912
1710999896944,-31190.68075929396
1710999896985,-40677.23824041663
1710999897025,-40455.23218068853
1710999897065,-30829.505299418233
1710999897105,-3381.8083357373253
1710999897145,47526.232558402
1710999897186,60152.3950371386
1710999897225,68594.19351778878
1710999897265,78744.54129029298
1710999897305,71761.02859584102
1710999897345,68399.52615858894
1710999897386,71954.1036442956
1710999897426,65339.54375451384
1710999897466,64840.676291022915
1710999897506,41370.89496973902
1710999897546,12423.739977125078
1710999897587,9244.677987809293
1710999897626,7009.552868626546
1710999897666,9058.782973485999
1710999897706,6521.283550933003
1710999897747,193.06705435365438
1710999897787,-6829.596678446513
1710999897827,-11901.597507657483
1710999897867,-11597.008916148916
1710999897907,-6629.9479363095015
1710999897947,-11439.282966809347
1710999897988,-3474.3564101923257
1710999898027,-1258.0949259335175
1710999898067,-27384.491488949396
1710999898108,-44927.2631456363
1710999898148,-18723.405204086564
1710999898189,6293.384611833375
1710999898228,16551.359383559786
1710999898268,23876.82609898597
1710999898308,16901.2933408292
1710999898349,5915.235591206234
1710999898389,-11992.095504682977
1710999898429,-40648.41769352928
1710999898469,-45503.97948163049
1710999898509,-42301.4516347982
1710999898549,-47736.706928722095
1710999898590,-48661.35092498036
1710999898629,-47999.2635009638
1710999898669,-58461.568751117215
1710999898710,-57777.23017422948
1710999898750,-62958.064087507315
1710999898790,-46222.31014631875
1710999898830,-19439.357040731236
1710999898870,-22960.610134422313
1710999898910,-34181.79503448191
1710999898950,-37598.41792100505
1710999898991,-31524.48976921849
1710999899030,-33192.624938065885
1710999899071,-36641.55769745493
1710999899111,-43710.45873068506
1710999899151,-63830.123284318484
1710999899192,-78028.68799297977
1710999899231,-89172.18844229123
1710999899271,-96552.46375165693
1710999899312,-87168.44932970963
1710999899352,-77940.68141263793
1710999899392,-84399.56121982634
1710999899432,-57125.96881269966
1710999899472,-41759.18459925521
1710999899512,-17493.876956196735
1710999899552,-4574.333804658148
1710999899593,13267.522035927279
1710999899633,14180.420987543417
1710999899673,32034.365366078913
1710999899713,39185.81112623634
1710999899753,43802.352941403165
1710999899794,43082.503636297304
1710999899833,43777.25982362311
1710999899874,42659.64488883433
1710999899914,44280.33155980753
1710999899954,43944.17059245799
1710999899995,44824.39215524378
1710999900034,46626.40656797774
1710999900074,46597.9349634652
1710999900114,42362.115791864926
1710999900155,39030.657354755094
1710999900195,37184.063674269244
1710999900235,33026.72575954953
1710999900275,26061.344230648363
1710999900315,21040.36461616354
1710999900355,16952.67581204232
1710999900396,10406.590855384944
1710999900436,9115.917492517736
1710999900476,5004.30778531055
1710999900516,1106.661400287645
1710999900556,-204.98178071854636
1710999900596,-6525.214235138614
1710999900636,-4688.269107418368
1710999900676,7620.996797889937
1710999900716,-4199.143076248933
1710999900756,-2072.9747797637247
1710999900797,-8414.886757232714
1710999900836,-17786.835219162982
1710999900877,-30444.762162058614
1710999900917,-25033.162226498825
1710999900957,-33436.13659945503
1710999900998,-39883.495810812106
1710999901037,-40899.0111643516
1710999901077,-40106.97355114482
1710999901117,-43215.19117157161
1710999901157,-45785.20048272936
1710999901198,-48325.75211737864
1710999901238,-48057.74441593094
1710999901278,-48703.497901530936
1710999901318,-48745.029066289775
1710999901358,-45664.285512647126
1710999901399,-43482.7961054747
1710999901438,-41577.04724130919
1710999901478,-40606.36127920961
1710999901518,-38625.108155260794
1710999901558,-41370.041261265054
1710999901599,-50320.46853807755
1710999901638,-59756.6735491273
1710999901678,-66981.90500431322
1710999901719,-72808.94686063938
1710999901759,-75042.08481897973
1710999901799,-75720.36368257832
1710999901839,-77083.87166488823
1710999901879,-77885.62343535013
1710999901919,-78433.59680340439
1710999901959,-78766.44143559271
1710999902000,-77665.8088008808
1710999902039,-75881.95897621801
1710999902079,-71844.80274085794
1710999902119,-68749.64593700785
1710999902159,-65046.68891629344
1710999902200,-60113.25049469853
1710999902240,-58001.041543538915
1710999902280,-53288.360747591825
1710999902320,-56331.77456774865
1710999902360,-62346.830409766175
1710999902401,-65540.37405298604
1710999902440,-65910.3802918219
1710999902480,-65245.90849216422
1710999902520,-62178.52442095475
1710999902561,-58592.27663580375
1710999902601,-55621.62633760716
1710999902641,-52875.84291860042
1710999902681,-50267.662809095345
1710999902721,-47722.60741636902
1710999902761,-44306.778683234006
1710999902802,-41180.65541893267
1710999902841,-37562.54003586294
1710999902881,-33768.33329203632
1710999902922,-30450.198960326612
1710999902962,-26529.768972217105
1710999903002,-22604.805143387523
1710999903042,-18989.29526969418
1710999903082,-18244.736256729346
1710999903122,-24030.4996673977
1710999903162,-33545.05363234412
1710999903203,-40788.46478173905
1710999903242,-45424.67634132947
1710999903283,-46928.2286250093
1710999903323,-46980.11286723474
1710999903363,-46369.23064568732
1710999903404,-45479.81399016455
1710999903443,-45613.18729605526
1710999903483,-44516.374556712806
1710999903523,-39853.66233552806
1710999903563,-37930.24569249619
1710999903604,-34630.96747097792
1710999903644,-31569.584389824653
1710999903684,-28552.84253000142
1710999903724,-25554.233654707205
1710999903764,-22173.761799555738
1710999903805,-18801.256705541164
1710999903844,-15714.041989248013
1710999903884,-13646.16586429067
1710999903924,-19415.38862371212
1710999903964,-28171.85194486659
1710999904005,-34654.93700305675
1710999904045,-38141.589944383595
1710999904085,-39211.46521819383
1710999904125,-38604.449443025514
1710999904165,-37478.991557966685
1710999904206,-36811.278299899306
1710999904245,-36594.313113476615
1710999904285,-35336.709034895524
1710999904325,-33474.72252695309
1710999904366,-30390.755185552407
1710999904406,-27363.382932933746
1710999904448,-24344.48668548907
1710999904486,-21184.426115465583
1710999904526,-17749.835529312026
1710999904566,-15035.30367586203
1710999904607,-11914.206471021287
1710999904646,-12440.094476133585
1710999904686,-20139.455342914443
1710999904727,-28274.18488198216
1710999904767,-32433.035673004808
1710999904808,-31905.70307127526
1710999904847,-29033.65500257723
1710999904887,-26099.70196907781
1710999904927,-23948.72040840052
1710999904967,-23678.675814552465
1710999905008,-22888.408697085455
1710999905048,-21685.095164013095
1710999905088,-19136.19198394101
1710999905128,-16974.84737849096
1710999905168,-14567.287641903153
1710999905209,-11745.404607433826
1710999905248,-9737.569392384728
1710999905288,-7889.794664757093
1710999905329,-5956.660590395797
1710999905369,-4188.249343561707
1710999905410,-1979.65003329725
1710999905449,-5019.867461101385
1710999905489,-16551.731886832975
1710999905529,-27218.2330805799
1710999905569,-33826.64945854782
1710999905610,-37257.93331807712
1710999905650,-38021.6333072125
1710999905690,-36794.836012966
1710999905730,-35809.36579749477
1710999905770,-35140.76390721835
1710999905811,-34822.0786730703
1710999905850,-33683.52759161615
1710999905890,-31245.20637228107
1710999905930,-28663.902337593492
1710999905971,-25145.2536290884
1710999906011,-21450.94891467644
1710999906051,-17901.509315386415
1710999906091,-14834.253193110228
1710999906131,-11611.864502521697
1710999906171,-8354.520875205752
1710999906212,-5451.286314950325
1710999906252,-1956.1660500313155
1710999906292,1234.432006441988
1710999906332,659.4936411287636
1710999906372,-10695.183738613967
1710999906413,-21969.52330813976
1710999906452,-29071.05706463754
1710999906493,-33221.877293243306
1710999906533,-33949.56333581079
1710999906573,-32470.999218444806
1710999906614,-31315.97592871543
1710999906656,-30455.963562975638
1710999906693,-29880.26499387552
1710999906733,-27440.73853589734
1710999906774,-23881.152452914044
1710999906814,-19905.030491059413
1710999906854,-16205.941041862825
1710999906894,-12615.27173038572
1710999906934,-8833.35788831301
1710999906974,-5285.415418813936
1710999907015,-2341.913181877695
1710999907054,471.59800599329174
1710999907094,3173.77840252663
1710999907134,6156.950788087212
1710999907174,8594.199371904833
1710999907215,11414.017372741364
1710999907255,13553.697329297196
1710999907295,11522.89361045044
1710999907335,-245.4906681200955
1710999907375,-10477.908802542835
1710999907416,-16306.738527842797
1710999907455,-18573.640031351242
1710999907495,-19039.954991377657
1710999907535,-17904.327671927866
1710999907575,-17495.278725004755
1710999907616,-17567.92531213234
1710999907655,-18003.485132754082
1710999907696,-17102.46373616252
1710999907736,-15746.737209573388
1710999907776,-13416.303564886097
1710999907817,-11062.480402939022
1710999907856,-9198.632938943803
1710999907896,-7201.196098252665
1710999907936,-6314.051230398705
1710999907976,-5163.082048877841
1710999908017,-3237.2035744837485
1710999908057,-1287.410061926581
1710999908097,696.1165895629674
1710999908137,3315.8659106753767
1710999908177,5567.286333416356
1710999908218,7715.809208145132
1710999908257,8184.82627191348
1710999908297,252.8851066129282
1710999908338,-10054.578817135654
1710999908378,-16221.51820802223
1710999908419,-18675.264820131008
1710999908459,-18753.12483541132
1710999908499,-17456.397124715615
1710999908539,-15934.386478555854
1710999908579,-15190.855831371155
1710999908620,-14793.44757647533
1710999908659,-13983.333206543
1710999908699,-11627.311919320142
1710999908739,-9320.190576500027
1710999908779,-6344.408984451322
1710999908820,-3563.58560211258
1710999908859,-725.781816850882
1710999908900,1926.3492095272522
1710999908940,4756.523330307566
1710999908980,6616.2239759983495
1710999909021,8964.615232939599
1710999909060,11202.26215773588
1710999909100,13476.59242762602
1710999909140,14397.389974046964
1710999909180,7255.2870116261765
1710999909221,-1039.4964081128128
1710999909260,-6349.60063821543
1710999909301,-7920.548457423691
1710999909341,-7425.402290572412
1710999909381,-6306.0891761519015
1710999909421,-5749.752555787098
1710999909461,-6581.557723560836
1710999909501,-6844.299133219058
1710999909541,-6554.197098094039
1710999909581,-5379.13387037022
1710999909622,-3788.1069253594615
1710999909661,-1931.0504411859438
1710999909701,407.84917986486107
1710999909742,2646.9243779771496
1710999909782,5142.777227664366
1710999909822,7071.812726520235
1710999909862,9042.612940598046
1710999909902,11348.102483391296
1710999909942,13987.045684914803
1710999909982,16316.705067516305
1710999910023,16409.89119781088
1710999910062,7889.213790567126
1710999910102,-1511.84295192454
1710999910143,-7253.352881885599
1710999910183,-9060.527965674642
1710999910223,-9280.44830497657
1710999910263,-7497.018690135563
1710999910303,-5651.387405151967
1710999910343,-5337.913259963505
1710999910383,-5004.630921251373
1710999910424,-4007.200628947001
1710999910463,-2404.4997715339996
1710999910504,29.026121781673282
1710999910544,2764.185749194119
1710999910584,5667.930978343822
1710999910625,8545.496160804294
1710999910664,11897.95376725914
1710999910704,14445.961989076342
1710999910744,16576.420218536397
1710999910784,18185.964344214415
1710999910825,20162.40277952701
1710999910865,22160.047080419958
1710999910905,24236.077930848114
1710999910945,25093.70875797607
1710999910985,17379.03550304752
1710999911026,7529.688880040776
1710999911065,627.2262091764715
1710999911105,-2292.1937849523965
1710999911145,-3275.240114800632
1710999911185,-2843.7219640249386
1710999911226,-2411.1912214695476
1710999911266,-3343.255001796875
1710999911306,-3831.1833410384133
1710999911346,-3402.2083858991973
1710999911386,-2341.3055417570285
1710999911427,-1011.6986206355505
1710999911466,801.5666055888869
1710999911506,2990.647253177827
1710999911546,5395.362645249115
1710999911587,7488.90425696969
1710999911627,9637.98859317624
1710999911667,11517.445324183442
1710999911707,13062.29763398366
1710999911747,14834.988277326338
1710999911787,16284.871055179043
1710999911828,18051.409040756058
1710999911867,19112.767837164458
1710999911908,11244.030732782325
1710999911948,518.3407129382249
1710999911988,-6518.530195908854
1710999912029,-9623.897404187592
1710999912068,-10181.863879244775
1710999912108,-9337.692927354947
1710999912148,-8875.253260226455
1710999912189,-8944.122674232116
1710999912229,-9612.04436415108
1710999912269,-9714.425396104343
1710999912309,-9172.936973018572
1710999912349,-7573.462879409548
1710999912389,-5070.93894983083
1710999912430,-2761.0603859485127
1710999912470,-891.9675059872679
1710999912510,1124.8627536960412
1710999912550,2922.517157091992
1710999912590,4627.868395667989
1710999912631,6529.092678646091
1710999912670,8391.621325160377
1710999912710,10565.032535139471
1710999912750,12794.389766704058
1710999912791,9339.113478621934
1710999912832,83.53305901982822
1710999912871,-7576.62175388867
1710999912911,-11011.552932350896
1710999912951,-11033.92700138921
1710999912991,-9793.837676166324
1710999913032,-8371.712558879051
1710999913072,-8126.4966439967975
1710999913112,-8027.699845006224
1710999913152,-7685.926103878068
1710999913192,-5749.601736955345
1710999913233,-3532.9065095407423
1710999913272,-1113.7674084398896
1710999913312,1973.2207683683373
1710999913352,5199.045184955932
1710999913393,7783.595470867353
1710999913433,11011.57785713952
1710999913472,13755.424628418405
1710999913513,16394.572440968128
1710999913553,19033.42800435843
1710999913593,22057.76271998603
1710999913634,24652.730326219462
1710999913673,23422.518082056893
1710999913713,14389.242729673628
1710999913753,6480.836112039164
1710999913793,1880.916733971564
1710999913834,514.4359201602638
1710999913873,401.9528089375235
1710999913913,1364.4115125804674
1710999913954,2139.7548169177026
1710999913994,2727.0268241637386
1710999914034,3164.134560672799
1710999914074,4176.56461344799
1710999914114,5995.83832771657
1710999914154,8481.129331948003
1710999914194,10677.177165221889
1710999914235,12602.715745410416
1710999914274,14714.220623520669
1710999914314,17118.963151320815
1710999914355,19753.30999315926
1710999914395,21823.22815138707
1710999914435,23253.478446372552
1710999914475,25248.021182550583
1710999914515,26471.10400716425
1710999914555,23698.998083928134
1710999914595,13159.576347104274
1710999914636,4682.875484501012
1710999914675,31.87077484978363
1710999914715,-2164.268608531449
1710999914755,-2504.888014833443
1710999914796,-1849.3071792866103
1710999914836,-2341.420669227373
1710999914876,-3275.360120144207
1710999914916,-3945.054436567705
1710999914956,-3325.092851972906
1710999914996,-1776.2334441230632
1710999915037,-176.8426916487515
1710999915076,1976.3195989695378
1710999915116,3935.869536434533
1710999915157,6423.880682298914
1710999915197,8237.043628357816
1710999915237,10277.627492170315
1710999915277,12054.620697119739
1710999915317,13721.000667913584
1710999915357,15391.738351048669
1710999915397,15938.548138273181
1710999915438,8056.637581487186
1710999915477,-928.3873794695828
1710999915517,-6207.207698014099
1710999915558,-8138.802569435909
1710999915598,-8937.687290390953
1710999915639,-8606.320792383049
1710999915678,-8841.593574275728
1710999915718,-8729.53149696812
1710999915758,-9036.434591408353
1710999915798,-8559.09066393599
1710999915839,-6640.061737708049
1710999915878,-4308.190657865722
1710999915919,-1664.5775326157454
1710999915959,1196.7368819182739
1710999915999,3542.907399499789
1710999916040,5583.4397472264245
1710999916079,7602.088732406031
1710999916119,10096.072253672872
1710999916159,12033.589291254757
1710999916199,14485.770603765268
1710999916240,12651.477619296173
1710999916280,3747.8818892887793
1710999916320,-3611.3208401380107
1710999916360,-6990.283997084247
1710999916400,-8267.38239229424
1710999916441,-7372.723761190893
1710999916480,-6070.628144536633
1710999916520,-5730.70682083955
1710999916560,-5782.954093317967
1710999916601,-5240.157319253776
1710999916642,-4204.148107813671
1710999916681,-2536.524521949701
1710999916721,141.04639369715005
1710999916761,2394.7007337361574
1710999916801,4778.276038589887
1710999916842,6767.968686969485
1710999916882,8068.439124874305
1710999916922,10327.332854808541
1710999916962,12295.090573983965
1710999917002,12145.940224467311
1710999917043,4784.2408238323405
1710999917082,-3548.875185316894
1710999917122,-9070.900487263221
1710999917162,-11267.811087513342
1710999917203,-12123.56873100577
1710999917244,-11245.725614284165
1710999917283,-10656.406508141896
1710999917323,-10663.723493610509
1710999917363,-10733.649441140238
1710999917403,-10344.307995805983
1710999917444,-8660.468901565997
1710999917484,-6747.049026061082
1710999917524,-4333.496423724573
1710999917564,-1786.5926766304765
1710999917604,737.175138273742
1710999917645,3464.6523319024127
1710999917684,5606.873896015342
1710999917725,8052.746462899027
1710999917765,10208.086169844028
1710999917805,10945.885445450898
1710999917846,3861.8005459704436
1710999917885,-6810.071852918249
1710999917925,-13757.691412828397
1710999917965,-17716.293221805943
1710999918005,-20249.069528508466
1710999918046,-20302.79593673884
1710999918086,-19745.364711697912
1710999918126,-19387.090879660565
1710999918166,-19078.85606180248
1710999918206,-18420.775800361997
1710999918247,-16543.7138071449
1710999918286,-14157.310581480153
1710999918327,-11732.37475146656
1710999918367,-9169.189564805012
1710999918407,-6184.026481578359
1710999918448,-3985.2732705511153
1710999918487,-1205.9089313184377
1710999918527,1294.67773742415
1710999918567,3742.466824303614
1710999918607,6391.8030417817645
1710999918648,9174.372748920694
1710999918688,10000.5047475209
1710999918728,1905.9743462256156
1710999918768,-8328.277712769806
1710999918808,-15342.589100139448
1710999918849,-19066.72052681935
1710999918888,-21130.36583040934
1710999918929,-21846.258856372442
1710999918969,-20516.596265348606
1710999919009,-20175.907871875213
1710999919050,-19705.67172482307
1710999919089,-18640.70151130529
1710999919129,-16697.011790605728
1710999919170,-13892.659735690104
1710999919210,-11354.107872521738
1710999919250,-8162.7417449066415
1710999919290,-2429.439424862154
1710999919330,643.6179184834473
1710999919370,3733.788275755942
1710999919410,6207.905956658069
1710999919451,8932.317488940665
1710999919490,11119.67990261456
1710999919530,13743.104792229831
1710999919570,14881.292721105507
1710999919610,7995.294979389757
1710999919651,-1186.3081732299179
1710999919691,-8231.08050929103
1710999919731,-11120.052617377602
1710999919771,-12931.016187331174
1710999919811,-12850.27422001725
1710999919852,-11800.108869423158
1710999919891,-11357.259268845664
1710999919931,-11508.623151281383
1710999919971,-10640.929440787993
1710999920012,-8834.824525930686
1710999920052,-6364.749859959818
1710999920092,-3548.993023581337
1710999920132,-634.5621610472444
1710999920172,2315.276202501729
1710999920212,5625.011750841979
1710999920253,7774.74074978428
1710999920292,10360.544707505498
1710999920332,12841.924252496567
1710999920371,15060.126069343416
1710999920411,17902.433370910585
1710999920452,20940.553058038
1710999920492,23901.538386434317
1710999920532,22979.890795510728
1710999920572,14918.340157349827
1710999920612,6621.70397780044
1710999920653,1965.6568970412482
1710999920692,227.8624061369337
1710999920732,-287.8558321672026
1710999920772,1155.5410544604529
1710999920813,1643.8695838055573
1710999920853,1409.540219150018
1710999920893,1871.3410231699236
1710999920933,2403.6711729690433
1710999920973,3703.7731571311597
1710999921013,5496.975233858218
1710999921054,7214.875577617204
1710999921093,9441.524810286704
1710999921133,11504.487408442423
1710999921174,13611.092636973597
1710999921214,16099.545325065032
1710999921254,17914.033882999327
1710999921294,20496.183769976487
1710999921334,22125.296459828503
1710999921374,23833.76981455437
1710999921414,22036.40445956262
1710999921455,13883.356297138147
1710999921494,6644.084834547713
1710999921535,3106.454982408555
1710999921575,1395.9578821402974
1710999921615,1557.8154389464762
1710999921655,2886.098091769498
1710999921695,3505.854468959151
1710999921735,3414.6715625575744
1710999921775,3105.9239311106503
1710999921815,3868.7949101263657
1710999921856,5318.436332782265
1710999921895,7250.715914242435
1710999921936,9150.690007902915
1710999921976,11352.07871155464
1710999922016,14190.193942605983
1710999922057,15915.724781920202
1710999922096,17894.597701599356
1710999922136,19883.984556547366
1710999922176,21567.376608693972
1710999922216,23396.99581354647
1710999922257,25414.086446191417
1710999922297,26437.58957607881
1710999922337,20592.068090905203
1710999922377,11944.732354943408
1710999922417,6635.000683003804
1710999922458,3977.436383349821
1710999922497,2724.333739503054
1710999922537,2960.3168023172766
1710999922577,3536.984946585726
1710999922617,3899.324270356912
1710999922658,4180.446460123872
1710999922698,4585.692331007682
1710999922738,5527.824367147405
1710999922778,7331.515421749558
1710999922818,9059.698096647626
1710999922859,10962.779162579915
1710999922898,13066.003136799904
1710999922938,14427.452546474757
1710999922979,16094.726875819499
1710999923019,17801.83134210063
1710999923059,19428.766062875045
1710999923099,21390.575879230397
1710999923139,23156.42515693186
1710999923179,25394.141171060735
1710999923219,26374.78747885162
1710999923260,20659.908116104547
1710999923299,11797.632473714417
1710999923340,5771.188302305294
1710999923380,2725.38497224031
1710999923420,1364.675036211731
1710999923461,1267.3453344202135
1710999923500,2080.759674305562
1710999923540,3131.8547436236404
1710999923580,3728.6739563420415
1710999923621,3933.4523381367326
1710999923661,4582.692789635155
1710999923701,5852.392871298362
1710999923741,7939.5276302213315
1710999923781,9944.365418031113
1710999923821,11717.49987650849
1710999923862,13198.08062672359
1710999923901,15340.238162223483
1710999923941,17064.88078252296
1710999923982,18681.36410124949
1710999924022,21217.089466057252
1710999924063,22605.54627872072
1710999924102,24600.801446316997
1710999924142,26087.711983437883
1710999924182,23078.81571945548
1710999924222,14425.353255689144
1710999924263,7911.6283783395775
1710999924302,5140.207300775917
1710999924343,4625.126568288077
1710999924383,4307.974781701341
1710999924423,6034.533966970863
1710999924464,6995.882417156594
1710999924503,7838.011933409143
1710999924543,8054.463006051257
1710999924584,8893.03173027467
1710999924624,10661.137376570608
1710999924664,12427.155772579368
1710999924704,14603.03768964624
1710999924744,16842.31843177043
1710999924784,18708.417879099958
1710999924825,20126.083877183497
1710999924865,20868.17341437284
1710999924905,22204.047857018188
1710999924945,23833.920409553684
1710999924985,24846.763565957313
1710999925025,20867.512136951787
1710999925066,11692.514834706206
1710999925105,5430.828644521302
1710999925146,3071.5025795958936
1710999925186,1877.0192155377008
1710999925226,2436.533947110176
1710999925267,3519.725672839675
1710999925306,3110.046594233252
1710999925346,3502.5972650889307
1710999925387,3312.860771126114
1710999925427,3851.456195749808
1710999925467,5146.7018454473
1710999925507,6889.696939216694
1710999925547,8851.559617273975
1710999925587,10402.923489228822
1710999925627,11997.443213752471
1710999925668,13692.642105623148
1710999925707,15404.473745357478
1710999925747,16890.554779470665
1710999925787,14342.382758400403
1710999925827,5357.159833644982
1710999925868,-2478.5590566264
1710999925908,-6760.72850218392
1710999925948,-9327.836303024087
1710999925988,-10225.67036373727
1710999926028,-10059.70750891394
1710999926069,-10158.373535770224
1710999926108,-10085.978593004402
1710999926148,-10378.15043525491
1710999926188,-9674.716795475688
1710999926228,-8150.501302434597
1710999926269,-6011.645092834253
1710999926308,-3927.0673793554306
1710999926348,-1535.1001101965085
1710999926389,677.1647478372324
1710999926429,2878.877757195849
1710999926469,5224.88760472741
1710999926509,7549.817696270533
1710999926549,8477.444500585552
1710999926589,2138.0965780396946
1710999926629,-7368.380302314181
1710999926670,-14200.997640980175
1710999926709,-17994.159992570058
1710999926749,-19898.94308658922
1710999926789,-19997.7149059847
1710999926829,-19051.04874419002
1710999926870,-18672.888574058656
1710999926910,-18783.486916536698
1710999926950,-18141.633904017974
1710999926990,-16920.53532794956
1710999927030,-15289.39278204972
1710999927071,-12492.713207677472
1710999927110,-10181.176483587362
1710999927150,-7488.342737848172
1710999927191,-5580.3549684812315
1710999927231,-3340.3508260902017
1710999927271,-1249.4869461166672
1710999927311,828.3686950982083
1710999927351,3218.660850709304
1710999927391,5528.764673881931
1710999927431,4190.077706585871
1710999927472,-4670.183471844997
1710999927511,-12854.159271936398
1710999927551,-17944.81628477527
1710999927592,-20062.62655849522
1710999927632,-20138.876039223047
1710999927673,-18935.832502632402
1710999927712,-18516.15420073131
1710999927752,-17830.727324357023
1710999927792,-16831.80862464942
1710999927832,-15792.461762511171
1710999927873,-13815.74338488956
1710999927912,-11598.945653480478
1710999927953,-9014.95643517957
1710999927993,-6285.589375512209
1710999928033,-3689.419518963434
1710999928074,-1053.9895200897008
1710999928113,1737.7867163694464
1710999928153,4359.807749942178
1710999928193,6530.836027219426
1710999928233,8755.865870538633
1710999928274,10722.274927033577
1710999928314,8868.359730753582
1710999928354,277.0809733825736
1710999928394,-6610.20676016924
1710999928434,-10824.562454505358
1710999928475,-12980.568856263068
1710999928514,-13646.43102081446
1710999928554,-12549.38009320083
1710999928594,-11432.045417845715
1710999928634,-11233.965195669327
1710999928675,-11617.815919248154
1710999928715,-11162.72795023024
1710999928755,-9553.944317091722
1710999928795,-7478.565144125838
1710999928835,-4221.945457329508
1710999928876,-1604.3278270335868
1710999928915,1139.2581075674389
1710999928956,2910.9590853271075
1710999928996,4900.2243545281235
1710999929036,6271.204915521434
1710999929077,7704.194651077734
1710999929116,6880.65022730967
1710999929156,533.7871146562975
1710999929196,-6569.5177809041925
1710999929236,-11091.541994339554
1710999929277,-12817.781094455626
1710999929317,-12675.142525529489
1710999929357,-11482.526830750052
1710999929397,-10853.832328731194
1710999929437,-11165.717414885527
1710999929478,-11080.074448026251
1710999929517,-10325.236153492704
1710999929557,-9084.774328000844
1710999929598,-7260.285230758134
1710999929638,-4912.15763079701
1710999929678,-2118.7132067591883
1710999929718,-93.86267289076932
1710999929758,2329.531911288621
1710999929798,4021.241276304703
1710999929838,6428.451404933352
1710999929879,8642.705133743351
1710999929918,8024.100618092809
1710999929959,624.354055239819
1710999929999,-7591.324803494848
1710999930039,-12822.52191921277
1710999930080,-15725.786490540486
1710999930119,-17081.131309528137
1710999930159,-16329.745962820482
1710999930199,-15905.181162164547
1710999930240,-14973.872473425698
1710999930280,-14160.259936490562
1710999930320,-12896.017683652695
1710999930360,-10852.000494630076
1710999930400,-8052.902056034189
1710999930440,-5277.927649918944
1710999930481,-1896.164909280371
1710999930521,1017.2485274965875
1710999930561,3671.598534774501
1710999930601,6839.138828324154
1710999930641,9820.808812323958
1710999930682,13124.736584269442
1710999930721,16359.083427946083
1710999930761,15819.170191014418
1710999930801,7736.379384337692
1710999930842,-142.53565691504627
1710999930883,-5240.638595809229
1710999930922,-8560.237789652776
1710999930962,-11025.873597961385
1710999931002,-11146.309978928883
1710999931042,-10462.220982508734
1710999931083,-9603.89012792753
1710999931123,-9429.511431422317
1710999931163,-8260.299447859172
1710999931203,-6521.882004492683
1710999931243,-4961.413267799187
1710999931284,-2650.7837751773186
1710999931323,-524.4663907540962
1710999931363,1589.0960213853978
1710999931404,4330.652117281221
1710999931444,7129.454034396447
1710999931485,9098.87993763201
1710999931524,10154.911673425231
1710999931564,10958.311993078794
1710999931604,-1802.402222536737
1710999931644,-7730.2646116458345
1710999931685,-10166.313559565227
1710999931725,-11954.409525041468
1710999931765,-12416.90575313475
1710999931805,-12117.992802014109
1710999931845,-11979.152702663094
1710999931886,-12107.159199169138
1710999931925,-11336.570627056994
1710999931965,-9840.266509489855
1710999932005,-8221.776823732303
1710999932045,-6026.427553013433
1710999932086,-3380.784680784913
1710999932125,-414.6601871144958
1710999932166,1968.557456461247
1710999932206,4508.450574631337
1710999932246,7327.299496918917
1710999932287,10357.21329318313
1710999932326,12907.826984221116
1710999932366,13871.42722619418
1710999932407,7438.733230915386
1710999932447,-219.05921380454674
1710999932488,-4939.390182973584
1710999932528,-7120.978803546634
1710999932568,-7933.035483128857
1710999932608,-6539.500612015603
1710999932648,-5344.039720264496
1710999932689,-4702.256866630632
1710999932728,-3899.7523680557497
1710999932768,-3354.06878128089
1710999932808,-1561.1896137155127
1710999932848,50.757837342098355
1710999932889,2380.2639940236695
1710999932929,4865.759027073858
1710999932969,6630.753830072237
1710999933009,8902.760911654448
1710999933049,11410.511166685726
1710999933090,13618.153560778592
1710999933129,11829.492341388948
1710999933169,4993.453758900287
1710999933209,-308.2672010087408
1710999933250,-3154.3562093623914
1710999933290,-3659.5547956449445
1710999933330,-2122.525320940651
1710999933370,-826.2049683765508
1710999933410,253.3950332030654
1710999933450,506.7738744537346
1710999933491,765.0209673731588
1710999933530,2151.9381972707342
1710999933570,3747.208627415588
1710999933611,5756.716749612009
1710999933651,8083.684955225559
1710999933691,10847.616378149949
1710999933731,13276.762207446853
1710999933771,15404.914493094664
1710999933811,17461.72509240918
1710999933851,17536.99490769091
1710999933892,10434.33780459431
1710999933931,985.9707704586908
1710999933972,-5502.088917889399
1710999934012,-8663.86988874944
1710999934052,-9955.489756773692
1710999934093,-10024.463155848905
1710999934132,-9440.786321235588
1710999934172,-9974.373336437391
1710999934212,-10767.486936619971
1710999934252,-10038.071660758927
1710999934293,-8795.723805775633
1710999934333,-7211.023347182665
1710999934373,-4904.222742279526
1710999934413,-2543.9961354837287
1710999934453,-272.8297732518986
1710999934494,1724.4960956336
1710999934533,3895.2295653533656
1710999934573,6011.717926013749
1710999934613,8054.341904690955
1710999934653,10050.85832981579
1710999934694,6322.952186639886
1710999934734,-2143.9908936365973
1710999934774,-8923.604481535032
1710999934814,-12480.381625218084
1710999934854,-14385.047751121689
1710999934895,-14122.410322487587
1710999934934,-13242.887205636362
1710999934974,-12645.918932634871
1710999935015,-12438.05573819112
1710999935055,-11720.65487823775
1710999935095,-10296.929193729535
1710999935135,-8407.640876532532
1710999935175,-6299.799948900472
1710999935215,-3154.9993100217544
1710999935255,-52.898252768907696
1710999935296,3005.5206296369433
1710999935336,6764.578306362964
1710999935376,10648.317581622396
1710999935416,14082.84665287286
1710999935456,16623.623974890914
1710999935497,19076.695473711006
1710999935536,19073.703387954272
1710999935576,9277.856160179945
1710999935616,-1171.4208655403927
1710999935657,-7657.911123513477
1710999935697,-11768.1341060712
1710999935737,-13640.663579926826
1710999935777,-14037.221889417619
1710999935817,-13852.63818411855
1710999935857,-14146.263247900177
1710999935898,-14295.109171140939
1710999935937,-13497.071502727224
1710999935977,-12033.039365330245
1710999936018,-9984.008927861461
1710999936058,-7856.7386145922355
1710999936099,-4955.668573541101
1710999936138,-2307.933650504565
1710999936178,177.977506023366
1710999936218,2554.701789936982
1710999936259,4265.989848586731
1710999936299,5762.944216827862
1710999936339,7113.488106019795
1710999936379,8166.862126534339
1710999936419,4856.7291782586835
1710999936459,-4707.156500355806
1710999936500,-12949.616911382647
1710999936539,-17342.112359797116
1710999936579,-18149.50451742625
1710999936620,-17829.29092775844
1710999936660,-16751.65798412962
1710999936701,-16216.051369604189
1710999936740,-16242.284237553133
1710999936780,-15589.539095922373
1710999936820,-14075.364826357923
1710999936860,-10905.444088070188
1710999936901,-7254.874678532127
1710999936941,-3360.5180361734238
1710999936981,5534.316407167586
1710999937021,6418.701817089925
1710999937061,12442.011641055811
1710999937102,16919.171856642235
1710999937141,21164.19716831157
1710999937182,21683.8178802724
1710999937222,13789.48161454848
1710999937262,6637.600032552844
1710999937303,2959.734060982708
1710999937342,2348.176794300787
1710999937382,3263.0818977933377
1710999937423,4461.851831502048
1710999937463,5145.916850947309
1710999937504,4896.874672735808
1710999937543,5232.949315547012
1710999937583,6824.990247097798
1710999937623,9046.248087136075
1710999937663,11077.003313049674
1710999937704,13287.917795901187
1710999937743,15415.750667637214
1710999937783,17797.16736475099
1710999937824,20014.280770812882
1710999937863,21571.778556573205
1710999937904,23791.51939166989
1710999937944,24727.27052067709
1710999937984,18620.806505919667
1710999938024,9394.814412195701
1710999938064,3468.598023902159
1710999938105,968.8511626387481
1710999938144,25.20820939913392
1710999938184,1083.2071907762438
1710999938224,2588.403730359394
1710999938264,-1446.4036964024417
1710999938305,3762.8061321377754
1710999938345,3945.19271987956
1710999938385,4909.606195984408
1710999938425,6675.439957478549
1710999938465,8651.45338875195
1710999938506,10821.48950470658
1710999938545,13426.1486392417
1710999938585,15917.307947491994
1710999938625,17657.558497020975
1710999938665,18826.327186954208
1710999938706,20956.586561264936
1710999938746,22451.375744415913
1710999938786,23037.29424163769
1710999938826,16776.420837451704
1710999938866,5598.365135477157
1710999938907,-2047.8802837659605
1710999938946,-5161.1054816050455
1710999938986,-6175.545884901658
1710999939026,-5196.6859750631265
1710999939066,-4159.928326830268
1710999939107,-3745.4730070135556
1710999939146,-3614.001889469102
1710999939186,-2674.411252991762
1710999939226,-1372.2474167388864
1710999939267,-3.9470900127198547
1710999939307,1467.775101829553
1710999939347,4239.047073538881
1710999939387,6560.541187089402
1710999939427,8967.312174079707
1710999939467,11443.828960548155
1710999939508,13678.65510206041
1710999939547,15746.057913238648
1710999939587,17657.466037826613
1710999939628,19435.47900212067
1710999939668,19056.132273938507
1710999939708,10398.944494981319
1710999939748,2437.3899980518036
1710999939788,-1454.1468059192412
1710999939828,-2992.2641810141504
1710999939868,-2331.025219371775
1710999939909,-865.2595381026622
1710999939948,713.8150908709504
1710999939989,1611.8296089936048
1710999940028,2434.85238587996
1710999940069,3864.652704541106
1710999940110,5311.290949712507
1710999940149,7512.230243643746
1710999940189,10064.643006852828
1710999940229,12266.323427673895
1710999940269,14155.897969992599
1710999940310,16296.243593664374
1710999940349,17673.905326903798
1710999940389,19727.527528260835
1710999940429,21625.85444354848
1710999940470,20547.0787196788
1710999940510,12847.360471118242
1710999940550,4945.32773482264
1710999940590,403.2985780467279
1710999940630,-1581.2615532935597
1710999940670,-1031.695869937539
1710999940711,200.7224961305037
1710999940750,-569.783082190901
1710999940790,-2278.883451386355
1710999940831,-1960.8915655196179
1710999940871,-538.083728724625
1710999940911,611.4658679061104
1710999940951,3510.0857320744544
1710999940991,7067.246635727817
1710999941031,11092.717160587432
1710999941071,14823.373704571277
1710999941112,18095.809953695163
1710999941151,20080.4030479528
1710999941192,20761.23551249411
1710999941232,16769.139977615792
1710999941272,8352.705374667421
1710999941313,2531.8316413415596
1710999941352,-378.10013636644
1710999941392,139.46300364728086
1710999941432,1817.4072523410432
1710999941472,3369.352045161184
1710999941513,3708.8436977872625
1710999941553,6938.133923750836
1710999941593,11870.858938492835
1710999941633,8732.617797022685
1710999941673,3638.414278084878
1710999941714,1066.7365211402066
1710999941753,777.9396790717728
1710999941793,1940.2396675730124
1710999941833,2868.5125962325837
1710999941874,3676.063168848632
1710999941914,4323.386287959758
1710999941954,-2581.610982174054
1710999941994,-14662.524016560055
1710999942034,-23194.73650898272
1710999942074,-27021.505009241868
1710999942115,-28377.930672178278
1710999942154,-28046.623018045444
1710999942195,-26086.593016202096
1710999942235,-24781.94552199403
1710999942275,-23402.614646272268
1710999942316,-21218.560380036244
1710999942355,-18511.869969875086
1710999942395,-14995.060840566643
1710999942435,-10544.76390559366
1710999942475,-6377.628633189946
1710999942516,-2331.106652722461
1710999942556,1532.6329742495436
1710999942596,5279.313097718405
1710999942636,8812.026027589105
1710999942676,10777.043722800678
1710999942717,11691.524931960274
1710999942756,5852.2496280903
1710999942796,-579.8127548568882
1710999942837,-6256.460749027552
1710999942877,-12306.413591959514
1710999942917,-11844.107857870404
1710999942957,-10094.61086754431
1710999942997,-9937.169468704145
1710999943037,-10262.03250078857
1710999943077,-10795.27531483979
1710999943118,-11770.251619923161
1710999943158,-11417.489496439463
1710999943198,-9518.373101586942
1710999943238,-6415.7907462657895
1710999943278,-7004.548844151199
1710999943319,-5093.722126772162
1710999943358,1015.7807753016241
1710999943398,7311.549026262015
1710999943438,10122.90761720715
1710999943479,13985.802116340492
1710999943519,18653.386493962258
1710999943559,23063.11004630709
1710999943599,28463.3953775384
1710999943639,26872.15780013078
1710999943679,28256.272036232054
1710999943720,29112.15815375722
1710999943759,33178.11708657048
1710999943799,44533.8359136018
1710999943840,52597.26347802533
1710999943880,60960.091091593495
1710999943921,72883.10803033947
1710999943960,78907.99233857263
1710999944000,80833.98352239048
1710999944040,85254.53625619435
1710999944081,81822.71916825813
1710999944121,79370.77395715099
1710999944161,79973.45617790241
1710999944201,93699.38693025522
1710999944241,96549.7032563726
1710999944281,105334.27132451534
1710999944322,110022.23773762863
1710999944361,100339.97797325673
1710999944401,103337.17794944253
1710999944436,108095.48374836938
1710999944476,116317.37372665899
1710999944517,113678.56996351341
1710999944557,111630.79336788412
1710999944597,105259.75454562949
1710999944637,106975.34081180138
1710999944677,107582.06233386183
1710999944718,105361.98245653464
1710999944757,99535.74829492415
1710999944797,94284.48583033541
1710999944837,88831.76792484359
1710999944877,85633.36911563575
1710999944918,84457.51286559762
1710999944957,73167.01750778616
1710999944997,69323.72935846727
1710999945038,63142.65845375182
1710999945078,59801.88171308767
1710999945118,59929.48573885509
1710999945158,60775.12953600404
1710999945198,54135.61412906484
1710999945238,56044.63265313674
1710999945278,60876.21069688839
1710999945319,62934.13341464102
1710999945358,66804.66454516165
1710999945398,66390.00060409051
1710999945438,63823.751980882604
1710999945479,57309.34077419154
1710999945519,53578.52489675046
1710999945559,42678.37291414291
1710999945599,37085.412822977174
1710999945639,46938.671072423225
1710999945679,44343.14665325917
1710999945720,39054.72082661395
1710999945759,31227.705687833484
1710999945799,33011.0589719743
1710999945840,37211.85327240196
1710999945880,41593.84989213571
1710999945920,37555.32017116924
1710999945960,34566.4682455319
1710999946000,35142.99276856356
1710999946040,36395.77528521279
1710999946080,38556.38229208393
1710999946121,38793.611912037246
1710999946160,30907.70074085961
1710999946200,27656.499839253724
1710999946241,34932.61663408717
1710999946281,36010.12544960156
1710999946321,36336.77057908545
1710999946361,29915.128171720775
1710999946401,28170.382398296613
1710999946441,25938.992006849498
1710999946481,25944.08828719938
1710999946522,21316.612975901924
1710999946561,16113.6879206046
1710999946602,11928.858385485131
1710999946641,13024.500866073184
1710999946682,16000.527163468767
1710999946722,16614.89843472466
1710999946762,18268.509275704622
1710999946802,17400.47187813744
1710999946842,18010.54507281771
1710999946882,22861.405854742974
1710999946923,25723.81647257274
1710999946963,21678.826366051566
1710999947002,15787.06288614124
1710999947043,11583.412981066853
1710999947083,10164.031321003102
1710999947123,7173.335349632427
1710999947163,7151.092850666959
1710999947203,5437.710752690211
1710999947243,1675.860432391055
1710999947283,4147.965392380953
1710999947324,4541.544259931892
1710999947363,3586.931307866238
1710999947404,5859.802465716843
1710999947444,6855.149117917754
1710999947484,8665.618696679361
1710999947525,9142.947399424855
1710999947564,8131.066825333051
1710999947604,10957.203232490458
1710999947644,8571.656999134459
1710999947684,4716.964633792639
1710999947725,5097.037675430067
1710999947765,119.26637353282422
1710999947805,-199.44892000220716
1710999947845,3843.2271095858887
1710999947885,2098.416157964617
1710999947926,901.8668360263109
1710999947965,3487.9493703469634
1710999948005,5734.461753819138
1710999948045,7033.367885214277
1710999948085,12869.22805195162
1710999948126,13241.336977702565
1710999948166,8796.42597608734
1710999948206,5828.819068382494
1710999948246,8168.35596398823
1710999948286,13036.90978405578
1710999948327,15189.410341512877
1710999948366,11721.144619010389
1710999948406,9025.04801562056
1710999948446,3419.3003360256553
1710999948487,1873.5603155423887
1710999948528,2899.1999436756596
1710999948567,-1866.0534715396352
1710999948607,-3353.2156601957977
1710999948647,-3390.0160942282528
1710999948687,-6194.858026301488
1710999948728,-5411.405520728324
1710999948767,-5373.035736850463
1710999948808,-5237.376425487921
1710999948848,-3434.405330615118
1710999948888,-6410.9512222111225
1710999948929,-3680.9146915031597
1710999948968,-924.2324610194191
1710999949008,-1589.71485460829
1710999949048,4588.634444788098
1710999949088,5068.287438972853
1710999949129,3107.0059708468616
1710999949169,8149.164424875751
1710999949209,11338.041286084335
1710999949249,9756.920280037913
1710999949289,10153.208289134316
1710999949330,9881.301598576363
1710999949369,8039.379816316068
1710999949409,9510.449216125067
1710999949449,6635.909819451161
1710999949490,5789.846620998345
1710999949531,5226.21490386175
1710999949570,3571.627962823026
1710999949610,3952.903777469881
1710999949650,4988.562149718404
1710999949690,4139.595180192962
1710999949731,4953.14244738128
1710999949771,4023.9359667566605
1710999949811,4202.798056277446
1710999949851,3745.136597772129
1710999949891,3647.9861036697403
1710999949932,3500.0466434089467
1710999949971,3875.0843470953405
1710999950011,3653.8677072534338
1710999950051,4258.839788619429
1710999950092,3838.809129110072
1710999950132,4352.239903556183
1710999950172,4702.741292595863
1710999950212,5208.013088887557
1710999950252,4889.571199485101
1710999950292,4978.1546942456625
1710999950333,4705.896687041037
1710999950372,4964.629856440704
1710999950412,5724.709493778646
1710999950453,4966.448288541287
1710999950493,3903.0867049745284
1710999950534,3596.142789559439
1710999950573,2221.0457810317166
1710999950613,2753.1053171670064
1710999950653,2647.1019692057744
1710999950693,2748.826720373705
1710999950734,3413.8367040203884
1710999950773,3637.5669988393784
1710999950814,4247.357057555113
1710999950854,5027.950077853631
1710999950894,4105.338228861801
1710999950935,5166.385760321282
1710999950974,5155.1098187742755
1710999951014,5817.0083839008585
1710999951054,6512.3169554891065
1710999951094,6359.575814099051
1710999951135,6907.730077001732
1710999951174,8265.540537008084
1710999951215,7738.555511614308
1710999951255,7487.651247235946
1710999951295,9213.23047639709
1710999951336,8367.209301121533
1710999951375,7524.5541982529685
1710999951415,9940.778241139837
1710999951455,5911.92546248436
1710999951495,7124.249931021128
1710999951536,7710.0112848468125
1710999951575,3372.8179413042963
1710999951615,776.2835459550843
1710999951656,1700.4181589935906
1710999951696,-2143.04316812288
1710999951736,-3492.640043065883
1710999951776,-4585.282052507624
1710999951816,-5305.25169948861
1710999951856,-7976.46711726021
1710999951896,-5452.502697392367
1710999951937,-7465.486227546819
1710999951976,-8750.068460250739
1710999952017,-6916.543358406052
1710999952057,-7690.937615078874
1710999952097,-8235.282320111059
1710999952138,-6478.177878882736
1710999952177,-5961.3030171412975
1710999952217,-6345.367097350769
1710999952257,-5282.520926026627
1710999952297,-4195.61133354716
1710999952338,-6069.167743478902
1710999952377,-4402.428259084001
1710999952417,-3273.8332826299593
1710999952458,-6238.635612399317
1710999952498,-5016.345137720462
1710999952538,-7715.187031446956
1710999952578,-12908.078653907869
1710999952618,-12472.446874848101
1710999952658,-12650.454731751233
1710999952698,-14796.523131196387
1710999952739,-11044.599640293978
1710999952778,-14191.264447193593
1710999952818,-16644.071245323867
1710999952859,-14204.37511529494
1710999952899,-12361.787240081001
1710999952939,-14415.33665849967
1710999952979,-11839.020160466433
1710999953019,-11896.119514164515
1710999953059,-12579.357720111962
1710999953099,-11420.36537318211
1710999953140,-9099.349074229598
1710999953179,-10757.285340995062
1710999953220,-7841.042691654991
1710999953260,-5287.33233347768
1710999953300,-5545.043882778846
1710999953341,-4196.972636869643
1710999953380,-1177.8414334850386
1710999953420,-2811.6341213006526
1710999953460,-4339.675848122686
1710999953500,-4986.330217618961
1710999953541,-7479.934228882194
1710999953581,-8660.154967697337
1710999953621,-7105.848253797274
1710999953661,-7354.804836334661
1710999953701,-5797.014733982272
1710999953742,-4420.566506471485
1710999953781,-6567.933963959105
1710999953821,-4048.4648611992598
1710999953861,-1087.2428958239034
1710999953901,560.0129320286214
1710999953942,2889.1339248437434
1710999953982,3653.052226779051
1710999954022,5276.928376009222
1710999954062,6125.767389249988
1710999954102,6552.69571100641
1710999954143,6217.511178017128
1710999954182,4974.835208738223
1710999954222,4381.140924488194
1710999954262,3820.5500697558746
1710999954303,4410.962177908048
1710999954343,2428.841390190646
1710999954383,-2417.828826013487
1710999954423,-4302.794609488919
1710999954463,-6710.721856550779
1710999954503,-6733.6511578965
1710999954544,-6506.561357285827
1710999954583,-8000.118036207743
1710999954624,-8380.222295056097
1710999954664,-9283.83381399978
1710999954704,-10327.176643486135
1710999954745,-9907.969548675232
1710999954784,-11250.910365565214
1710999954824,-9998.318371841218
1710999954864,-9663.580860554706
1710999954904,-9617.263349821791
1710999954945,-8969.497815238312
1710999954984,-10142.19370798301
1710999955025,-7588.199958689511
1710999955065,-5252.096989079844
1710999955105,-5961.879270208068
1710999955146,-7621.125468713231
1710999955185,-8587.938974722289
1710999955225,-9462.593802493066
1710999955265,-9134.18896554038
1710999955305,-8265.571470022202
1710999955346,-7549.024623510428
1710999955386,-6570.265999672003
1710999955426,-3900.6305120582692
1710999955466,-1734.6752119828016
1710999955506,217.66270439280197
1710999955547,1480.137174605159
1710999955586,1537.6869257716462
1710999955627,2893.151771438308
1710999955667,2576.276851996314
1710999955707,4227.485665007494
1710999955748,5998.730204490479
1710999955787,4579.448049674742
1710999955827,5976.068748200312
1710999955867,3433.973001223523
1710999955907,2896.0117462426424
1710999955948,1220.887111224234
1710999955988,1322.0387969091535
1710999956028,793.5815265541896
1710999956068,2667.154578797519
1710999956108,4470.575365672354
1710999956149,6284.781159765087
1710999956188,9643.241842601448
1710999956228,11257.547134578694
1710999956268,13282.91208791593
1710999956308,13633.846425805707
1710999956349,14283.386902444996
1710999956389,13481.867955565918
1710999956429,14099.504046346992
1710999956474,12908.881380850915
1710999956514,14966.93711703876
1710999956555,15861.246737147681
1710999956594,14972.2851225161
1710999956634,12862.587077847682
1710999956674,6591.441375573631
1710999956715,1260.5323787843809
1710999956755,-3860.3288739775307
1710999956795,-8408.969214069191
1710999956835,-14886.828209423926
1710999956875,-14173.640165487304
1710999956915,-18297.872126791626
1710999956956,-12344.344199428335
1710999956996,-22701.333609718364
1710999957036,-23127.143955897074
1710999957076,-22529.00982754957
1710999957116,-29866.015776803717
1710999957157,-22353.59296062123
1710999957196,-19292.36348399194
1710999957236,-3668.246688697487
1710999957276,7454.832554720109
1710999957316,12074.283027558587
1710999957357,28681.858337981626
1710999957396,20429.202977174893
1710999957437,1114.3994228951633
1710999957477,-23972.85415893467
1710999957517,-23383.654361527646
1710999957557,-28494.90290849749
1710999957597,-24384.185638007708
1710999957637,-17026.734273989685
1710999957677,-12002.035256011412
1710999957717,-8628.51503534196
1710999957758,-2210.599281567149
1710999957797,6424.939456851687
1710999957837,13581.51308933366
1710999957877,21493.693175259512
1710999957918,22539.879187849816
1710999957958,22408.144121387042
1710999957998,25074.575115572196
1710999958038,27880.155248535797
1710999958078,31592.981306278612
1710999958118,34907.3644070765
1710999958159,31884.622202505358
1710999958198,30588.28167531127
1710999958238,25733.610293279402
1710999958278,35710.81930727232
1710999958318,36295.86620684713
1710999958359,39655.53842977667
1710999958399,44302.2667846838
1710999958439,34956.679151504766
1710999958479,22954.797105704434
1710999958519,218.66547457920387
1710999958560,-17468.213213728275
1710999958599,-21993.757825180423
1710999958639,-52448.296068618074
1710999958679,-52701.89809678728
1710999958719,-55850.61020565778
1710999958760,-33325.02680579852
1710999958800,-24085.22232552804
1710999958840,-8257.98298111977
1710999958880,-12612.335886189714
1710999958920,-13869.065732034855
1710999958961,-16659.735003613867
1710999959000,-21345.374757239595
1710999959040,-13850.337989826687
1710999959080,-11434.501308382489
1710999959121,-9516.535258704796
1710999959161,-10920.652115997858
1710999959201,-817.1952774766833
1710999959241,11336.6908097337
1710999959281,15544.282087265048
1710999959321,15647.214395103045
1710999959362,15122.995159985498
1710999959401,11180.595283632167
1710999959441,2545.6812126552686
1710999959481,6588.91824700078
1710999959521,3832.1235038926825
1710999959562,9391.279372176621
1710999959602,3930.7638087905943
1710999959642,4724.048442735337
1710999959682,-10109.430772187188
1710999959722,-22762.995154908393
1710999959763,-33341.22735808138
1710999959802,-26245.1254941253
1710999959842,-27779.254399991594
1710999959882,-28843.073141109664
1710999959922,-19053.240347079
1710999959963,-15460.136033829767
1710999960003,-16435.885966082104
1710999960043,-24660.233701710124
1710999960083,-32696.111259705387
1710999960123,-35164.41929967422
1710999960164,-41121.5018693367
1710999960203,-56848.003949813545
1710999960243,-66555.70139801363
1710999960283,-55982.464018342085
1710999960324,-39992.55459850188
1710999960364,-27201.245368808042
1710999960404,-16633.939159873873
1710999960444,-6496.780375703238
1710999960484,-4717.17880866304
1710999960524,-12053.521972106304
1710999960565,-26909.025019790046
1710999960604,-28106.838009947445
1710999960644,-36160.13187841652
1710999960684,-54746.243449206
1710999960724,-49419.80661999178
1710999960765,-69585.76870438107
1710999960805,-72297.49285150017
1710999960845,-68440.95976677048
1710999960885,-55171.47016860964
1710999960925,-66048.11701685796
1710999960966,-50672.112930533476
1710999961005,-51800.80670403829
1710999961045,-46088.05987654161
1710999961085,-45480.740955756046
1710999961125,-40862.68736954732
1710999961166,-41747.33570303675
1710999961206,-44303.14266284369
1710999961246,-47077.97723063594
1710999961286,-35963.337016396224
1710999961326,-23851.344280385878
1710999961367,-13339.819757865742
1710999961406,-5666.574073730968
1710999961446,3888.918771661818
1710999961486,20592.549748082878
1710999961527,41429.29835877381
1710999961567,46810.975100315874
1710999961607,34451.3514267311
1710999961647,20929.678389567882
1710999961687,7576.995431519579
1710999961727,-4451.849985545501
1710999961768,-19533.671367787756
1710999961807,-42653.390255740844
1710999961847,-53973.61051507713
1710999961888,-60382.595833701314
1710999961928,-59259.57914721919
1710999961969,-44087.68872932135
1710999962008,-52336.655794961844
1710999962048,-50829.253086798824
1710999962088,-57617.503535483265
1710999962128,-75988.85872937832
1710999962169,-85641.13053030893
1710999962209,-74843.73942535114
1710999962249,-77624.72960097808
1710999962289,-76279.12856026134
1710999962329,-77357.95702016447
1710999962370,-78243.95374832395
1710999962409,-72392.14882746851
1710999962449,-68741.87858152995
1710999962489,-66303.27283108654
1710999962529,-63476.93211726518
1710999962570,-64291.942800891586
1710999962610,-65579.77063035453
1710999962650,-65029.95311592892
1710999962690,-64531.37111892388
1710999962730,-67016.50433707284
1710999962771,-78745.67486864701
1710999962810,-88456.9925251184
1710999962851,-94995.40859208419
1710999962891,-97648.13696651603
1710999962931,-98119.339973934
1710999962972,-98373.64775066427
1710999963011,-96739.21876818757
1710999963051,-96476.49534462206
1710999963091,-95840.10943574412
1710999963131,-93479.39281742182
1710999963172,-91284.81164905056
1710999963212,-88334.34974151012
1710999963252,-84868.74261666718
1710999963292,-81570.45595330186
1710999963332,-78067.36396129243
1710999963373,-74384.23322828999
1710999963412,-71322.51761550643
1710999963452,-68046.58897120832
1710999963492,-65669.81791058136
1710999963533,-69845.19011657499
1710999963574,-78825.36391950143
1710999963613,-86481.68110533734
1710999963653,-89756.80184258777
1710999963693,-90452.07966845529
1710999963733,-89047.47222513938
1710999963774,-87201.19729300682
1710999963814,-85194.22510663373
1710999963854,-83809.38011962455
1710999963894,-82254.96889312332
1710999963934,-79729.5121576977
1710999963974,-76434.90880376683
1710999964014,-72606.9150925458
1710999964054,-68014.16298821662
1710999964094,-64208.744863999775
1710999964134,-60248.45618861448
1710999964175,-56481.706075182185
1710999964214,-52393.874670671765
1710999964254,-48760.44182809396
1710999964295,-47078.747969276505
1710999964334,-52332.150885399664
1710999964375,-60655.275068382034
1710999964415,-66480.87485936005
1710999964455,-68600.9836534122
1710999964495,-67548.27177955443
1710999964535,-65422.73901545489
1710999964576,-62675.64564946317
1710999964618,-60619.13257808774
1710999964655,-58954.21291524521
1710999964695,-57072.2974507187
1710999964735,-54364.110802962445
1710999964776,-51286.34562105383
1710999964816,-47992.89507923834
1710999964856,-43979.121449769475
1710999964896,-39983.61637941771
1710999964936,-36122.39124732651
1710999964977,-32061.46197444806
1710999965016,-28757.70530466456
1710999965056,-25193.30513560865
1710999965096,-22799.340636823326
1710999965136,-24807.288485219702
1710999965177,-31870.30450976547
1710999965216,-37649.424314075615
1710999965257,-40209.82101385179
1710999965297,-39783.50782510592
1710999965337,-37819.65350261959
1710999965378,-35798.70865040505
1710999965417,-33684.436084787594
1710999965457,-32715.864754611393
1710999965497,-30908.934740297496
1710999965537,-28422.39761566231
1710999965578,-26061.62456500996
1710999965618,-22749.385703699198
1710999965657,-18519.02430604631
1710999965698,-14541.24358026823
1710999965738,-10725.819808995118
1710999965778,-7271.23833252443
1710999965818,-2972.998477838002
1710999965858,250.13160473806784
1710999965898,944.9171277824789
1710999965938,-2467.492585137021
1710999965979,-5575.063329020049
1710999966018,-6862.320375584997
1710999966059,-6721.379841168411
1710999966099,-6184.926644451683
1710999966139,-4612.565051979851
1710999966179,-3925.007944891695
1710999966219,-3675.1730847414583
1710999966259,-3675.1787741831504
1710999966299,-2950.444304153323
1710999966339,-2170.471432420891
1710999966380,-1133.6352593891788
1710999966419,-41.84073279774748
1710999966460,1020.643782349769
1710999966500,2383.1378367920406
1710999966540,3541.064101527212
1710999966581,4978.315059899818
1710999966620,5226.330780219054
1710999966660,-746.4935409671161
1710999966700,-10557.780379837379
1710999966740,-18855.337859551655
1710999966781,-23978.57570988685
1710999966824,-25935.60051010223
1710999966861,-25503.657619036734
1710999966901,-24901.535719707143
1710999966941,-25675.545913356356
1710999966982,-26305.673608127283
1710999967021,-26243.125693643
1710999967061,-25087.886711141095
1710999967101,-23077.348000977654
1710999967141,-20952.511482227128
1710999967182,-18288.538449486718
1710999967222,-16012.632892987225
1710999967262,-13852.253928748425
1710999967302,-12140.194399888394
1710999967342,-9657.443826117553
1710999967383,-9609.741023577983
1710999967422,-17675.682096983073
1710999967462,-27177.649334546877
1710999967502,-33174.97673094319
1710999967543,-34964.37047528429
1710999967583,-34425.19710233668
1710999967623,-32449.663925413042
1710999967663,-31007.003280230798
1710999967703,-30352.505104964832
1710999967743,-29710.260561216623
1710999967784,-28234.220605582697
1710999967823,-25966.80321264267
1710999967863,-23337.435647321865
1710999967904,-20416.208099573385
1710999967944,-17313.761474696454
1710999967985,-15051.754247004166
1710999968024,-12321.08616606961
1710999968064,-9621.186290220125
1710999968104,-7065.544466903433
1710999968144,-4988.5767661854625
1710999968185,-8621.9853061873
1710999968225,-17246.375398163917
1710999968265,-24012.656699758954
1710999968305,-27165.580540195107
1710999968345,-27044.52086627623
1710999968386,-25569.663542038994
1710999968425,-23876.278076020535
1710999968465,-23196.404274663422
1710999968502,-22563.290770467836
1710999968542,-21221.5108470954
1710999968583,-18833.450321656885
1710999968623,-16125.323998396518
1710999968663,-12971.481059694663
1710999968703,-9964.440124137793
1710999968743,-7017.247765683569
1710999968784,-4660.797676518327
1710999968823,-2526.436239646282
1710999968863,-181.03975533531047
1710999968903,1570.243041608017
1710999968943,2081.382723262068
1710999968984,-3522.727764852578
1710999969024,-13017.625764170196
1710999969064,-19642.136774984654
1710999969104,-21932.434395916294
1710999969144,-21636.590867578052
1710999969185,-20180.341362054925
1710999969224,-18766.437069179025
1710999969264,-18012.872279921314
1710999969305,-18473.67139030667
1710999969345,-17601.785480221733
1710999969385,-15770.423840962816
1710999969425,-13672.941582742613
1710999969465,-10844.898071828764
1710999969505,-8043.350321541773
1710999969545,-5339.170220755041
1710999969586,-2505.0205865220632
1710999969625,366.9311348698102
1710999969666,3154.8189826207235
1710999969706,5829.5206988193095
1710999969746,7809.377903832588
1710999969787,3952.2143784915097
1710999969826,-4882.745157019468
1710999969866,-10959.297417061869
1710999969907,-13275.205972305266
1710999969947,-13081.933295716997
1710999969987,-12040.9699862306
1710999970027,-10535.481621554587
1710999970067,-10118.191584364977
1710999970107,-10396.223095461726
1710999970147,-10493.860764320707
1710999970188,-9875.262444338994
1710999970228,-8754.578184291022
1710999970268,-7015.213386389427
1710999970308,-4481.696273655631
1710999970348,-2035.6857350058854
1710999970389,-329.02359093213454
1710999970428,3179.657364246901
1710999970468,4856.984511377988
1710999970508,5543.674118821509
1710999970549,-1251.621767688077
1710999970589,-10939.450893347384
1710999970629,-16903.216238052584
1710999970669,-19283.66461007623
1710999970709,-19027.798079578206
1710999970749,-17895.46089943312
1710999970790,-16830.939447429497
1710999970829,-16790.649761633482
1710999970869,-16917.497557996307
1710999970910,-16300.143949090503
1710999970949,-14537.629734475398
1710999970990,-11984.751570109045
1710999971030,-9580.19949517399
1710999971070,-6880.064635278191
1710999971110,-4317.854922204511
1710999971150,-1889.5147939929739
1710999971191,414.1723632104695
1710999971230,2803.794380164705
1710999971270,5076.899919438409
1710999971310,2088.269286341034
1710999971350,-6261.94616844086
1710999971391,-13606.63597668428
1710999971431,-17123.86269413447
1710999971471,-17953.521161295008
1710999971511,-16507.07768854685
1710999971551,-15304.09143212717
1710999971592,-15645.858180925483
1710999971631,-17465.162840292323
1710999971671,-17675.892639653524
1710999971711,-16477.338698824402
1710999971751,-13789.361156587722
1710999971792,-11150.880645136815
1710999971832,-8549.91486452194
1710999971872,-5442.642571469303
1710999971912,-2735.7501154921483
1710999971952,280.04117033141665
1710999971993,3985.8764857561328
1710999972032,8088.77521029138
1710999972072,10953.906111106277
1710999972112,9941.715085168835
1710999972152,1504.6128521396313
1710999972193,-6704.536415422335
1710999972233,-11202.952288450208
1710999972273,-13680.036770003848
1710999972313,-13390.19310177816
1710999972353,-12326.18104182044
1710999972394,-11061.384333644062
1710999972433,-10381.383482869482
1710999972473,-9192.642007467803
1710999972513,-6957.132649300387
1710999972553,-4028.1588951987214
1710999972594,-664.122205602238
1710999972634,2833.925511186477
1710999972674,5776.927599898074
1710999972714,8744.559024963994
1710999972754,11567.668980987975
1710999972795,13910.419294012943
1710999972834,16400.298597716726
1710999972874,19147.664546011947
1710999972914,20793.831811056938
1710999972954,16153.884065858554
1710999972995,9553.437749851495
1710999973034,5706.756042673951
1710999973075,4494.613691490376
1710999973115,5678.518654364627
1710999973155,7073.117952870671
1710999973196,9897.573808382964
1710999973235,12604.57485022908
1710999973275,15677.153545308858
1710999973315,18621.31697479682
1710999973355,21670.556061991956
1710999973396,24235.203473381698
1710999973436,26457.193768521305
1710999973476,28131.75886933878
1710999973516,28763.1089505048
1710999973556,29864.360680625075
1710999973596,30486.166169533506
1710999973636,30957.601887937635
1710999973676,31212.079663092736
1710999973716,31347.48863571766
1710999973756,30667.225750267273
1710999973797,24963.098928722786
1710999973836,16336.355465075001
1710999973876,10190.794642511522
1710999973917,7057.283580123447
1710999973957,6368.113335771952
1710999973997,6465.614036875777
1710999974037,6127.553319700994
1710999974077,6020.985828070436
1710999974117,5162.332791294437
1710999974157,5478.595238905167
1710999974198,6761.255519856466
1710999974237,8630.28676259704
1710999974278,9800.26504062349
1710999974318,11445.58523677988
1710999974358,12702.448463089298
1710999974399,13858.59714503726
1710999974438,16107.74583056895
1710999974478,17322.598000008613
1710999974518,17515.717304870253
1710999974558,12022.134588494664
1710999974599,4204.213155852864
1710999974639,-1386.3218446080573
1710999974679,-4551.27926625777
1710999974719,-6262.039314093068
1710999974759,-5595.364348658128
1710999974800,-4680.993109886069
1710999974839,-4528.062887876993
1710999974879,-4612.088365848176
1710999974919,-4394.140913452487
1710999974959,-3403.362862651702
1710999975000,-1274.7227937700227
1710999975040,762.3288862402551
1710999975080,2328.092010203749
1710999975120,4292.449057958322
1710999975160,6371.587511091493
1710999975201,7827.523108238587
1710999975240,9965.916146619711
1710999975280,12053.880796633428
1710999975320,9276.435141351772
1710999975360,1622.9231814965606
1710999975401,-4061.808254881995
1710999975441,-6800.951773198787
1710999975481,-8699.443118492607
1710999975521,-8576.210170158418
1710999975561,-7597.7753657349385
1710999975602,-7186.667912574951
1710999975641,-6492.431915906025
1710999975681,-5670.404626245145
1710999975722,-4176.313111834694
1710999975762,-2308.4646668510977
1710999975803,537.2742626969703
1710999975842,3110.2267988699023
1710999975882,5807.496283192653
1710999975922,8479.225513589103
1710999975962,11011.177476886194
1710999976003,14013.286466299789
1710999976042,15700.19002496684
1710999976083,16119.177622864489
1710999976123,9811.468418220058
1710999976163,1632.932107171975
1710999976204,-4052.9601089926437
1710999976243,-7310.8622129906435
1710999976283,-9693.552375122206
1710999976323,-9975.40824676212
1710999976363,-10177.732339840382
1710999976404,-10321.06101885112
1710999976444,-11082.83535784902
1710999976484,-10672.97499835072
1710999976524,-9764.596011957154
1710999976564,-8435.286965594161
1710999976605,-6574.640456509311
1710999976644,-4627.440004196949
1710999976684,-2840.7414953096304
1710999976725,-1254.4451236107852
1710999976765,769.0956453382969
1710999976806,2529.525672799442
1710999976845,4366.227215674007
1710999976885,6582.98160907859
1710999976925,8298.359300616663
1710999976965,10115.584858574439
1710999977006,10745.76938575157
1710999977046,4427.136374924798
1710999977085,-5355.887442623498
1710999977126,-13288.530412524706
1710999977166,-18566.156861708732
1710999977206,-21870.799270983553
1710999977246,-23019.626319773728
1710999977286,-23939.722190028755
1710999977326,-25119.91965932073
1710999977366,-26062.8451919253
1710999977407,-25778.71037697303
1710999977446,-24215.47817536979
1710999977486,-22203.229698852403
1710999977526,-19742.574563716073
1710999977566,-17435.25261634821
1710999977607,-14819.166304316837
1710999977647,-12447.236787403934
1710999977687,-10167.259726855904
1710999977727,-7699.7990298355
1710999977767,-5229.051980054006
1710999977808,-2799.900471483823
1710999977847,-104.41160159814171
1710999977887,2171.1992707746103
1710999977927,4723.783437786158
1710999977967,3650.86671957816
1710999978008,-4325.104133800371
1710999978047,-12574.50519780768
1710999978087,-17032.186487265164
1710999978128,-19282.708798523992
1710999978168,-19721.38110783673
1710999978208,-18793.408942777198
1710999978248,-18613.382010526955
1710999978288,-19065.4415835985
1710999978328,-19185.457281541545
1710999978368,-18212.089232754894
1710999978409,-15865.149982081959
1710999978448,-13118.461108259857
1710999978488,-10095.071392079117
1710999978528,-7301.297062280588
1710999978568,-4553.879104384687
1710999978609,-2123.123888860224
1710999978649,838.5287525430322
1710999978689,2767.8198156943545
1710999978729,4952.176462617237
1710999978769,7049.214930799091
1710999978810,9304.484329421772
1710999978849,10321.407489513978
1710999978889,4515.791550225578
1710999978929,-4641.4241482801735
1710999978969,-10907.795618792996
1710999979010,-13957.709412601776
1710999979050,-15643.329999673646
1710999979090,-14918.169975191355
1710999979130,-14248.358868043404
1710999979170,-13863.407636611024
1710999979211,-14027.427315740846
1710999979250,-12512.147377089132
1710999979290,-11155.093026198912
1710999979330,-8471.623210546793
1710999979370,-5617.628741396591
1710999979411,-2866.4605499852914
1710999979450,61.713249754626304
1710999979490,2600.42595938826
1710999979531,5332.4542839080095
1710999979571,7756.271004365757
1710999979611,9876.247954820283
1710999979651,11991.774017172866
1710999979691,13839.102087041363
1710999979731,15558.229792027036
1710999979771,16781.770469475072
1710999979812,12461.410066579934
1710999979851,2952.9616419824306
1710999979891,-4450.110583163565
1710999979932,-8461.96869816538
1710999979972,-10193.02475181548
1710999980012,-10144.952531692106
1710999980052,-10097.362472425215
1710999980092,-10198.034249863587
1710999980132,-10801.194385108305
1710999980172,-10506.021246888908
1710999980213,-9071.25951304892
1710999980252,-7016.776157059707
1710999980293,-4314.958535311045
1710999980333,-1651.85392447724
1710999980373,499.9134445474483
1710999980414,2824.5985963945277
1710999980453,5030.8363873164635
1710999980493,6738.924214193597
1710999980535,8273.292035799474
1710999980575,10560.925246152095
1710999980616,12371.982148964424
1710999980655,14496.328990419861
1710999980695,16316.37211101735
1710999980736,12048.174860129599
1710999980776,3723.193399307085
1710999980816,-2285.666411774233
1710999980856,-5514.745472208131
1710999980896,-6770.298195697833
1710999980936,-6380.22928102361
1710999980976,-5588.263000629377
1710999981017,-5209.251746792812
1710999981056,-5485.014567681355
1710999981097,-4439.639961921843
1710999981137,-2807.326976976823
1710999981177,-410.1048147776164
1710999981218,1652.0337733500637
1710999981257,3920.2604408285115
1710999981297,6151.146631057374
1710999981337,8971.606391250854
1710999981377,11253.16175069986
1710999981418,13603.176157636568
1710999981458,15709.827931947075
1710999981498,18074.911855095997
1710999981538,19811.34568319982
1710999981578,21767.77949424321
1710999981619,20259.870255023474
1710999981658,14593.465268882457
1710999981698,9781.204015574884
1710999981739,7465.450529326918
1710999981779,7033.143927765079
1710999981820,8167.983846238349
1710999981859,9209.823983516544
1710999981899,9533.911390630528
1710999981939,8995.805626422865
1710999981979,8949.15149242687
1710999982020,9751.43411217304
1710999982060,11299.586789678317
1710999982100,12993.414390193764
1710999982140,14772.33547530789
1710999982180,16018.570731586311
1710999982221,17557.03470139997
1710999982260,18803.175992803648
1710999982300,19966.248433700763
1710999982340,21466.10924486327
1710999982380,21465.86155281728
1710999982421,17904.272181284847
1710999982461,12292.844244669657
1710999982501,8894.978594667744
1710999982541,7290.792641662527
1710999982581,6989.736193566583
1710999982622,7834.897295182804
1710999982661,8446.415279957466
1710999982702,8107.108193450607
1710999982741,7858.518751147902
1710999982781,7895.203596269246
1710999982822,9167.705485251267
1710999982862,10214.267041808926
1710999982902,11773.83394554304
1710999982942,13044.94531347882
1710999982982,14779.670213783626
1710999983023,16347.073681290494
1710999983062,17750.905383784324
1710999983103,17889.933630883927
1710999983143,13415.9063921622
1710999983183,8170.43692077836
1710999983224,4643.533477311721
1710999983263,3243.5262734268326
1710999983303,2420.158946036827
1710999983343,2296.6125530314166
1710999983383,1265.4532979009673
1710999983424,-565.5878509047907
1710999983463,-2452.8632126208395
1710999983504,-3756.379997694632
1710999983544,-4138.895478395047
1710999983584,-3994.0919405519962
1710999983625,-3500.4047106236685
1710999983664,-1643.3393237362616
1710999983704,165.40023158024997
1710999983744,1939.3473829464056
1710999983785,3599.3733883905225
1710999983825,5085.556685978081
1710999983865,3739.203320060158
1710999983905,-2552.8480319199152
1710999983945,-8561.731179305352
1710999983985,-11772.70791708259
1710999984026,-15006.86033019796
1710999984065,-14062.575431009289
1710999984105,-13533.516292716376
1710999984146,-13360.263215871062
1710999984186,-12845.299889612477
1710999984226,-11214.035386897624
1710999984266,-9487.560482455883
1710999984306,-7486.689341861289
1710999984346,-5384.232999643777
1710999984386,-3422.9226120668463
1710999984427,-1578.323454588186
1710999984466,715.0908003689256
1710999984506,2669.852094310336
1710999984546,4211.7231303495355
1710999984586,6422.108545549912
1710999984627,8203.415961042047
1710999984666,8535.618681325577
1710999984707,3277.1524780201726
1710999984747,-2666.984992043115
1710999984787,-6675.433173875324
1710999984828,-8906.032816865947
1710999984867,-9833.09443895705
1710999984907,-9317.104844346642
1710999984947,-9219.340673277155
1710999984987,-9528.111884715036
1710999985028,-9789.877227295656
1710999985067,-9285.097154762829
1710999985108,-7829.345918345731
1710999985148,-6265.856257560663
1710999985188,-4402.9429937428795
1710999985229,-2323.347651197808
1710999985268,-774.258813822642
1710999985308,805.2931529968046
1710999985348,2534.4260477004573
1710999985388,4351.730517625343
1710999985429,6714.216571028577
1710999985469,8519.576315483311
1710999985509,10056.156784877181
1710999985549,10897.908284734236
1710999985589,6374.151180825196
1710999985629,167.3162773763761
1710999985669,-4508.227726249956
1710999985709,-7307.475501121022
1710999985749,-8747.669981904794
1710999985789,-9738.862286821473
1710999985830,-11343.963096797
1710999985869,-13864.633004450705
1710999985909,-15564.628210234689
1710999985950,-16174.789673329098
1710999985990,-16153.528462915681
1710999986030,-15355.073749436531
1710999986070,-14356.893880629446
1710999986110,-12555.548153567128
1710999986150,-11413.148149280343
1710999986190,-10303.305907257833
1710999986231,-9092.257700446527
1710999986270,-7769.9951987178065
1710999986310,-6848.113943293691
1710999986350,-10969.708798714215
1710999986391,-19101.947098306846
1710999986431,-25986.327668935293
1710999986471,-29673.928599525243
1710999986511,-32074.91876427876
1710999986551,-31988.8524035553
1710999986591,-31335.565184240462
1710999986632,-31875.726564299082
1710999986672,-31977.52790599456
1710999986711,-31738.69713846175
1710999986752,-30250.76169456262
1710999986792,-27809.782821587054
1710999986833,-24922.45182833774
1710999986872,-21788.294418348465
1710999986912,-18693.147105386015
1710999986952,-16019.556604500161
1710999986992,-12529.649914239068
1710999987033,-8372.975790823344
1710999987072,-3604.487799695693
1710999987113,564.4905788814649
1710999987153,131.5405892105773
1710999987193,-2940.0460359533317
1710999987234,-4106.415770986583
1710999987273,-2828.114625492599
1710999987313,-432.9226865370292
1710999987353,3090.719574027229
1710999987394,5877.077723490307
1710999987434,9121.770135290455
1710999987474,12831.074745113961
1710999987514,16474.760223951656
1710999987554,20138.15914188698
1710999987594,25491.715714515653
1710999987635,31044.546893873485
1710999987674,34646.69463559729
1710999987715,38692.93709389772
1710999987755,42654.30695611192
1710999987795,45815.8294874439
1710999987836,47924.25464061438
1710999987875,50392.99166016304
1710999987915,52112.36933081504
1710999987955,49468.503128168406
1710999987996,45121.17954856716
1710999988036,41913.35098761367
1710999988076,40621.817221696954
1710999988116,40358.10909013124
1710999988156,41309.70993570238
1710999988196,42959.266994711244
1710999988237,44834.181653402746
1710999988276,46867.34536390286
1710999988317,48162.31905918731
1710999988357,50400.12578635197
1710999988397,54316.75248116162
1710999988438,64055.98575755302
1710999988477,71283.39183259057
1710999988517,81640.24662908074
1710999988557,91091.96263416391
1710999988598,99919.39122991031
1710999988638,108199.52815031237
1710999988678,111813.96407808969
1710999988718,115663.42544043297
1710999988758,113570.61962204613
1710999988798,112472.84845553199
1710999988839,111989.70082560158
1710999988879,108634.17224036064
1710999988919,106983.27520113811
1710999988959,110233.15877136262
1710999988999,112544.30419561989
1710999989040,116057.48437682725
1710999989079,122126.10304802097
1710999989119,127008.6514727869
1710999989159,132626.55930324085
1710999989200,135847.91788854217
1710999989240,140735.55109957443
1710999989280,138539.84514246136
1710999989320,138758.8985567952
1710999989360,138853.59305275045
1710999989400,138998.41633077152
1710999989441,138938.58129848447
1710999989481,137218.58743661968
1710999989521,135063.27382369665
1710999989561,132487.30067916866
1710999989601,127827.81960418541
1710999989642,123760.34139090404
1710999989681,119919.76651996817
1710999989722,111080.20948852831
1710999989762,108073.55554276775
1710999989802,102151.39084720379
1710999989843,97050.37376352632
1710999989882,92597.04749306524
1710999989922,85406.19448265177
1710999989962,82167.60443155817
1710999990002,76129.76326165465
1710999990043,71904.1415181628
1710999990083,67283.60699712136
1710999990123,62407.41836202401
1710999990163,58711.90935212723
1710999990203,54539.63445399329
1710999990244,50253.19200039981
1710999990283,48100.51974132634
1710999990323,45835.012693319935
1710999990363,42237.133432418574
1710999990404,41326.37791218469
1710999990444,37051.34512744914
1710999990484,33231.2652186146
1710999990524,24577.889531775378
1710999990564,18465.012760113925
1710999990604,9635.395057365298
1710999990645,5744.44619400613
1710999990684,1646.3279207320884
1710999990724,-2899.2592419981956
1710999990764,-6357.085001487751
1710999990804,-9775.288190740626
1710999990845,-10964.329531485448
1710999990885,-11345.911102016224
1710999990925,-12895.902285908116
1710999990965,-14618.540262659546
1710999991005,-14543.351779356366
1710999991046,-15067.62452887441
1710999991085,-14966.523006325355
1710999991125,-15458.127558798995
1710999991165,-15307.174303342588
1710999991205,-14088.743054130115
1710999991246,-13986.952941946918
1710999991285,-13428.005438941997
1710999991325,-16081.686151128728
1710999991366,-25461.524168943986
1710999991406,-35003.268278458156
1710999991446,-39983.71777370456
1710999991486,-43088.05269950279
1710999991526,-45316.01450913213
1710999991566,-45717.27574528009
1710999991606,-45783.77614252409
1710999991647,-46084.518465307076
1710999991686,-46268.5936393654
1710999991727,-45875.29894364672
1710999991767,-43900.25055849389
1710999991807,-41944.41895761667
1710999991848,-39582.34473872464
1710999991887,-37072.31243313383
1710999991927,-35061.05441752402
1710999991967,-32122.058091411833
1710999992007,-29493.14148017671
1710999992048,-26708.27535521472
1710999992088,-24087.139079832472
1710999992128,-22040.193047143286
1710999992168,-20053.48743781075
1710999992208,-21646.034219154622
1710999992249,-29202.49472651002
1710999992288,-36062.99576584296
1710999992328,-40018.17978178547
1710999992368,-41797.34900149703
1710999992408,-41823.96296104533
1710999992449,-40579.50579874357
1710999992488,-40526.65851535881
1710999992528,-40928.32975849626
1710999992567,-39907.77515070094
1710999992607,-38812.46168582421
1710999992647,-37237.61140547274
1710999992687,-34265.700118270004
1710999992727,-32330.245890108636
1710999992767,-29827.065597064793
1710999992807,-28063.254862266826
1710999992848,-26144.07917676284
1710999992887,-23988.075350037776
1710999992928,-22142.726422741078
1710999992968,-23197.29875106248
1710999993008,-28678.05152987037
1710999993049,-32778.843110604445
1710999993088,-34942.06884730607
1710999993128,-32877.038992937654
1710999993168,-29457.41966643324
1710999993208,-24403.15397705091
1710999993249,-21368.707253499422
1710999993289,-19014.884347778745
1710999993328,-16498.109454371035
1710999993369,-13136.888798338361
1710999993409,-9100.16610924527
1710999993449,-5925.6621831143275
1710999993489,-2492.1054976568557
1710999993529,1919.5670273234136
1710999993569,5009.820428282255
1710999993609,8158.804273063783
1710999993650,9390.395122692455
1710999993689,6511.313661417924
1710999993729,676.9383461989928
1710999993770,-1362.0449433112517
1710999993810,-2357.979475772474
1710999993851,-1979.1499366608914
1710999993890,-92.62263206765056
1710999993930,1081.9088350359816
1710999993970,1869.264280100353
1710999994010,2877.715281812474
1710999994051,3312.7882284908555
1710999994091,5166.374125072034
1710999994131,5822.540880872868
1710999994171,6137.79724398884
1710999994211,8321.32606846653
1710999994252,10106.623205215205
1710999994291,12163.389856279362
1710999994331,12430.915898100007
1710999994371,9105.464427013882
1710999994411,397.078315126244
1710999994452,-4303.927757416852
1710999994492,-6855.2122386610135
1710999994532,-7957.789677774999
1710999994572,-6142.445155891124
1710999994612,-4954.7466933079995
1710999994653,-4720.796254565939
1710999994692,-5912.967943471856
1710999994733,-5597.479667638894
1710999994773,-4104.296161758015
1710999994813,-3094.852846710477
1710999994854,-449.43564111506566
1710999994893,1368.0600331057794
1710999994933,2550.2491179483477
1710999994973,3794.1579725504853
1710999995013,6340.634473974584
1710999995054,9582.215554801747
1710999995094,8669.194968737662
1710999995134,4838.704292792361
1710999995174,2323.609322990058
1710999995214,2454.554115207866
1710999995255,-1309.8055537589826
1710999995294,-5562.878504219465
1710999995335,-7795.828975531273
