dataReceived,timestamp,ppg,status
1710999860379,1710999848152,2097152,0
1710999860379,1710999848192,2338343,0
1710999860379,1710999848233,2338457,0
1710999860379,1710999848273,2338561,0
1710999860379,1710999848313,2338664,0
1710999860379,1710999848353,2338681,0
1710999860379,1710999848393,2338760,0
1710999860379,1710999848434,2339073,0
1710999860379,1710999848473,2339080,0
1710999860379,1710999848514,2339117,0
1710999860379,1710999848554,2208215,0
1710999860379,1710999848594,2208357,0
1710999860379,1710999848635,2208240,0
1710999860379,1710999848674,2208097,0
1710999860379,1710999848714,2208037,0
1710999860379,1710999848754,2131794,0
1710999860379,1710999848794,2131856,0
1710999860379,1710999848835,2132097,0
1710999860379,1710999848875,2132299,0
1710999860379,1710999848915,2132414,0
1710999860379,1710999848955,2106898,0
1710999860379,1710999848995,2107506,0
1710999860379,1710999849036,2108131,0
1710999860379,1710999849075,2109078,0
1710999860379,1710999849115,2109760,0
1710999860379,1710999849155,2110485,0
1710999860379,1710999849195,2110946,0
1710999860379,1710999849237,2111457,0
1710999860379,1710999849278,2112196,0
1710999860379,1710999849316,2112697,0
1710999860379,1710999849356,2113317,0
1710999860379,1710999849396,2114007,0
1710999860379,1710999849437,2114549,0
1710999860379,1710999849476,2115005,0
1710999860379,1710999849516,2114862,0
1710999860379,1710999849556,2114686,0
1710999860379,1710999849597,2114669,0
1710999860379,1710999849638,2114797,0
1710999860379,1710999849677,2115422,0
1710999860379,1710999849717,2116222,0
1710999860379,1710999849757,2116671,0
1710999860379,1710999849797,2117465,0
1710999860379,1710999849838,2118006,0
1710999860379,1710999849877,2118517,0
1710999860379,1710999849918,2118956,0
1710999860379,1710999849958,2119563,0
1710999860379,1710999849998,2120125,0
1710999860379,1710999850039,2120422,0
1710999860379,1710999850078,2120920,0
1710999860379,1710999850118,2121131,0
1710999860379,1710999850158,2121813,0
1710999860379,1710999850199,2122123,0
1710999860379,1710999850239,2122670,0
1710999860379,1710999850279,2123191,0
1710999860379,1710999850319,2123487,0
1710999860379,1710999850359,2123742,0
1710999860379,1710999850399,2123486,0
1710999860379,1710999850440,2123190,0
1710999860379,1710999850479,2123134,0
1710999860379,1710999850520,2123383,0
1710999860379,1710999850560,2123829,0
1710999860379,1710999850600,2124116,0
1710999860379,1710999850641,2124431,0
1710999860379,1710999850680,2124685,0
1710999860379,1710999850720,2125135,0
1710999860379,1710999850760,2125755,0
1710999860379,1710999850801,2126496,0
1710999860379,1710999850842,2127021,0
1710999860379,1710999850881,2127368,0
1710999860379,1710999850921,2127740,0
1710999860379,1710999850961,2128099,0
1710999860379,1710999851001,2128442,0
1710999860379,1710999851042,2128880,0
1710999860379,1710999851081,2129095,0
1710999860379,1710999851122,2129691,0
1710999860379,1710999851162,2129891,0
1710999860379,1710999851202,2129651,0
1710999860379,1710999851243,2129103,0
1710999860379,1710999851282,2128965,0
1710999860379,1710999851322,2129370,0
1710999860379,1710999851362,2129967,0
1710999860379,1710999851403,2130227,0
1710999860379,1710999851443,2130749,0
1710999860379,1710999851485,2131140,0
1710999860379,1710999851523,2131512,0
1710999860379,1710999851563,2131795,0
1710999860379,1710999851603,2132202,0
1710999860379,1710999851644,2132456,0
1710999860379,1710999851683,2133044,0
1710999860379,1710999851724,2133563,0
1710999860379,1710999851764,2133899,0
1710999860379,1710999851804,2134377,0
1710999860379,1710999851845,2134724,0
1710999860379,1710999851884,2135022,0
1710999860379,1710999851924,2135280,0
1710999860379,1710999851964,2135497,0
1710999860379,1710999852005,2136117,0
1710999860379,1710999852046,2136343,0
1710999860379,1710999852085,2136133,0
1710999860379,1710999852125,2135612,0
1710999860379,1710999852165,2135545,0
1710999860379,1710999852205,2135570,0
1710999860379,1710999852246,2135958,0
1710999860379,1710999852285,2136336,0
1710999860379,1710999852326,2136763,0
1710999860379,1710999852366,2137217,0
1710999860379,1710999852406,2137404,0
1710999860379,1710999852447,2137659,0
1710999860379,1710999852486,2138101,0
1710999860379,1710999852526,2138534,0
1710999860379,1710999852566,2138937,0
1710999860379,1710999852607,2139234,0
1710999860379,1710999852648,2139520,0
1710999860379,1710999852687,2139870,0
1710999860379,1710999852727,2140255,0
1710999860379,1710999852767,2140730,0
1710999860379,1710999852807,2141157,0
1710999860379,1710999852848,2141453,0
1710999860379,1710999852887,2141754,0
1710999860379,1710999852927,2142172,0
1710999860379,1710999852967,2142294,0
1710999860379,1710999853007,2141908,0
1710999860379,1710999853048,2141676,0
1710999860379,1710999853088,2141835,0
1710999860379,1710999853128,2142055,0
1710999860379,1710999853168,2142471,0
1710999860379,1710999853208,2143018,0
1710999860379,1710999853249,2143252,0
1710999860379,1710999853288,2143480,0
1710999860379,1710999853328,2143916,0
1710999860379,1710999853368,2144367,0
1710999860379,1710999853408,2144850,0
1710999860379,1710999853450,2145342,0
1710999860379,1710999853489,2145807,0
1710999860379,1710999853529,2146191,0
1710999860379,1710999853569,2146691,0
1710999860379,1710999853609,2147084,0
1710999860379,1710999853650,2147537,0
1710999860379,1710999853689,2147947,0
1710999860379,1710999853729,2148340,0
1710999860379,1710999853769,2148532,0
1710999860379,1710999853809,2148740,0
1710999860379,1710999853850,2148443,0
1710999860379,1710999853889,2148310,0
1710999860379,1710999853930,2148283,0
1710999860379,1710999853970,2148791,0
1710999860379,1710999854010,2149424,0
1710999860379,1710999854051,2149959,0
1710999860379,1710999854090,2150565,0
1710999860379,1710999854130,2150730,0
1710999860379,1710999854170,2151115,0
1710999860379,1710999854210,2151656,0
1710999860379,1710999854251,2150869,0
1710999860379,1710999854291,2149622,0
1710999860379,1710999854331,2147428,0
1710999860379,1710999854371,2144117,0
1710999860379,1710999854411,2141525,0
1710999860379,1710999854452,2139223,0
1710999860379,1710999854491,2137382,0
1710999860379,1710999854531,2135500,0
1710999860379,1710999854571,2133807,0
1710999860379,1710999854611,2132155,0
1710999860379,1710999854653,2129898,0
1710999860379,1710999854691,2127830,0
1710999860379,1710999854732,2127153,0
1710999860379,1710999854772,2127164,0
1710999860379,1710999854812,2127493,0
1710999860379,1710999854853,2127913,0
1710999860379,1710999854892,2128480,0
1710999860379,1710999854932,2128679,0
1710999860379,1710999854972,2128647,0
1710999860379,1710999855012,2128674,0
1710999860379,1710999855053,2129252,0
1710999860379,1710999855093,2129725,0
1710999860379,1710999855133,2130536,0
1710999860379,1710999855173,2131374,0
1710999860379,1710999855213,2132074,0
1710999860379,1710999855254,2132778,0
1710999860379,1710999855293,2133313,0
1710999860379,1710999855333,2134262,0
1710999860379,1710999855374,2135014,0
1710999860379,1710999855414,2135672,0
1710999860379,1710999855454,2136244,0
1710999860379,1710999855494,2136775,0
1710999860379,1710999855534,2137103,0
1710999860379,1710999855574,2137672,0
1710999860379,1710999855614,2137704,0
1710999860379,1710999855655,2138052,0
1710999860379,1710999855694,2137874,0
1710999860379,1710999855735,2138123,0
1710999860379,1710999855775,2138190,0
1710999860379,1710999855815,2138107,0
1710999860379,1710999855856,2138306,0
1710999860379,1710999855895,2138452,0
1710999860379,1710999855935,2138788,0
1710999860379,1710999855976,2139000,0
1710999860379,1710999856016,2139373,0
1710999860379,1710999856056,2139524,0
1710999860379,1710999856096,2138897,0
1710999860379,1710999856136,2138442,0
1710999860379,1710999856176,2138210,0
1710999860379,1710999856216,2137441,0
1710999860379,1710999856257,2137863,0
1710999860379,1710999856296,2138315,0
1710999860379,1710999856337,2138292,0
1710999860379,1710999856377,2138743,0
1710999860379,1710999856417,2138793,0
1710999860379,1710999856458,2139371,0
1710999860379,1710999856497,2139412,0
1710999860379,1710999856537,2139752,0
1710999860379,1710999856578,2140055,0
1710999860379,1710999856617,2140102,0
1710999860379,1710999856658,2138956,0
1710999860379,1710999856698,2138601,0
1710999860379,1710999856738,2137789,0
1710999860379,1710999856778,2137330,0
1710999860379,1710999856818,2137299,0
1710999860379,1710999856859,2137808,0
1710999860379,1710999856898,2137936,0
1710999860379,1710999856939,2138333,0
1710999860379,1710999856979,2138400,0
1710999860379,1710999857019,2137788,0
1710999860379,1710999857060,2136317,0
1710999860379,1710999857099,2135536,0
1710999860379,1710999857139,2135629,0
1710999860379,1710999857180,2134968,0
1710999860379,1710999857220,2133844,0
1710999860379,1710999857260,2132615,0
1710999860379,1710999857300,2131408,0
1710999860379,1710999857340,2130739,0
1710999860379,1710999857380,2129564,0
1710999860379,1710999857420,2129062,0
1710999860379,1710999857461,2126811,0
1710999860379,1710999857501,2122712,0
1710999860379,1710999857541,2117800,0
1710999860379,1710999857581,2114378,0
1710999860379,1710999857621,2111895,0
1710999860379,1710999857662,2109721,0
1710999860379,1710999857701,2108101,0
1710999860379,1710999857741,2106784,0
1710999860379,1710999857782,2105155,0
1710999860379,1710999857822,2102844,0
1710999860379,1710999857863,2100180,0
1710999860379,1710999857902,2098355,0
1710999860379,1710999857942,2097477,0
1710999860379,1710999857982,2096860,0
1710999860379,1710999858023,2096009,0
1710999860379,1710999858063,2095483,0
1710999860379,1710999858103,2095098,0
1710999860379,1710999858143,2095007,0
1710999860379,1710999858183,2095309,0
1710999860379,1710999858223,2095209,0
1710999860379,1710999858264,2094994,0
1710999860379,1710999858304,2094160,0
1710999860379,1710999858344,2093910,0
1710999860379,1710999858384,2094541,0
1710999860379,1710999858424,2095406,0
1710999860379,1710999858465,2097131,0
1710999860379,1710999858505,2098309,0
1710999860379,1710999858545,2099424,0
1710999860379,1710999858585,2099848,0
1710999860379,1710999858625,2100794,0
1710999860379,1710999858666,2102017,0
1710999860379,1710999858705,2103422,0
1710999860379,1710999858745,2104428,0
1710999860379,1710999858785,2105730,0
1710999860379,1710999858825,2107255,0
1710999860379,1710999858866,2108037,0
1710999860379,1710999858906,2109244,0
1710999860379,1710999858946,2110037,0
1710999860379,1710999858986,2110416,0
1710999860379,1710999859026,2109362,0
1710999860379,1710999859067,2108575,0
1710999860379,1710999859106,2110346,0
1710999860379,1710999859146,2114264,0
1710999860379,1710999859186,2119961,0
1710999860379,1710999859227,2124318,0
1710999860379,1710999859267,2127799,0
1710999860379,1710999859307,2130355,0
1710999860379,1710999859347,2132221,0
1710999860379,1710999859387,2134443,0
1710999860379,1710999859427,2136289,0
1710999860379,1710999859468,2137873,0
1710999860379,1710999859507,2139176,0
1710999860379,1710999859547,2138024,0
1710999860379,1710999859588,2137001,0
1710999860379,1710999859628,2134253,0
1710999860379,1710999859669,2130630,0
1710999860379,1710999859708,2126603,0
1710999860379,1710999859748,2122114,0
1710999860379,1710999859788,2118315,0
1710999860379,1710999859828,2114428,0
1710999860379,1710999859869,2106921,0
1710999860379,1710999859908,2094159,0
1710999860379,1710999859949,2081397,0
1710999860379,1710999859989,2073479,0
1710999860379,1710999860029,2068455,0
1710999860379,1710999860070,2064394,0
1710999860379,1710999860109,2059519,0
1710999860379,1710999860149,2054594,0
1710999872303,1710999860193,2049717,0
1710999872303,1710999860233,2046551,0
1710999872303,1710999860274,2044529,0
1710999872303,1710999860314,2043080,0
1710999872303,1710999860354,2041909,0
1710999872303,1710999860394,2041144,0
1710999872303,1710999860434,2040554,0
1710999872303,1710999860475,2039682,0
1710999872303,1710999860514,2038835,0
1710999872303,1710999860554,2037723,0
1710999872303,1710999860594,2032418,0
1710999872303,1710999860634,2023722,0
1710999872303,1710999860675,2014384,0
1710999872303,1710999860714,2005916,0
1710999872303,1710999860755,1998358,0
1710999872303,1710999860795,1993222,0
1710999872303,1710999860835,1988210,0
1710999872303,1710999860876,1982746,0
1710999872303,1710999860915,1977660,0
1710999872303,1710999860955,1974444,0
1710999872303,1710999860995,1972799,0
1710999872303,1710999861036,1970911,0
1710999872303,1710999861076,1970144,0
1710999872303,1710999861116,1968930,0
1710999872303,1710999861156,1967311,0
1710999872303,1710999861196,1966775,0
1710999872303,1710999861236,1966975,0
1710999872303,1710999861277,1966996,0
1710999872303,1710999861316,1966406,0
1710999872303,1710999861356,1962676,0
1710999872303,1710999861397,1956703,0
1710999872303,1710999861437,1950045,0
1710999872303,1710999861478,1945127,0
1710999872303,1710999861517,1942550,0
1710999872303,1710999861557,1941306,0
1710999872303,1710999861597,1938064,0
1710999872303,1710999861637,1931166,0
1710999872303,1710999861678,1922548,0
1710999872303,1710999861717,1914532,0
1710999872303,1710999861758,1907739,0
1710999872303,1710999861798,1900824,0
1710999872303,1710999861838,1892685,0
1710999872303,1710999861879,1883161,0
1710999872303,1710999861918,1872635,0
1710999872303,1710999861958,1861974,0
1710999872303,1710999861998,1852022,0
1710999872303,1710999862038,1843666,0
1710999872303,1710999862079,1832953,0
1710999872303,1710999862119,1814781,0
1710999872303,1710999862159,1796251,0
1710999872303,1710999862199,1780628,0
1710999872303,1710999862239,1768224,0
1710999872303,1710999862280,1758494,0
1710999872303,1710999862319,1750315,0
1710999872303,1710999862359,1741626,0
1710999872303,1710999862400,1732473,0
1710999872303,1710999862440,1723412,0
1710999872303,1710999862481,1715291,0
1710999872303,1710999862520,1708791,0
1710999872303,1710999862560,1703770,0
1710999872303,1710999862600,1699731,0
1710999872303,1710999862640,1696623,0
1710999872303,1710999862681,1693396,0
1710999872303,1710999862721,1689636,0
1710999872303,1710999862761,1685503,0
1710999872303,1710999862801,1679788,0
1710999872303,1710999862841,1666344,0
1710999872303,1710999862882,1648753,0
1710999872303,1710999862921,1634471,0
1710999872303,1710999862961,1625157,0
1710999872303,1710999863001,1618698,0
1710999872303,1710999863042,1614106,0
1710999872303,1710999863082,1609220,0
1710999872303,1710999863122,1603535,0
1710999872303,1710999863162,1598002,0
1710999872303,1710999863202,1593603,0
1710999872303,1710999863242,1590226,0
1710999872303,1710999863283,1587519,0
1710999872303,1710999863323,1585630,0
1710999872303,1710999863363,1585049,0
1710999872303,1710999863403,1585073,0
1710999872303,1710999863443,1585562,0
1710999872303,1710999863484,1585892,0
1710999872303,1710999863523,1581213,0
1710999872303,1710999863563,1569237,0
1710999872303,1710999863604,1556497,0
1710999872303,1710999863644,1547443,0
1710999872303,1710999863685,1542371,0
1710999872303,1710999863724,1540024,0
1710999872303,1710999863764,1538969,0
1710999872303,1710999863804,1537149,0
1710999872303,1710999863844,1534499,0
1710999872303,1710999863885,1531963,0
1710999872303,1710999863925,1530674,0
1710999872303,1710999863965,1530280,0
1710999872303,1710999864005,1530693,0
1710999872303,1710999864045,1531538,0
1710999872303,1710999864086,1532678,0
1710999872303,1710999864125,1533942,0
1710999872303,1710999864166,1532796,0
1710999872303,1710999864206,1524242,0
1710999872303,1710999864246,1513166,0
1710999872303,1710999864287,1504788,0
1710999872303,1710999864326,1500539,0
1710999872303,1710999864366,1499501,0
1710999872303,1710999864407,1499946,0
1710999872303,1710999864447,1499882,0
1710999872303,1710999864487,1498313,0
1710999872303,1710999864527,1496647,0
1710999872303,1710999864567,1495920,0
1710999872303,1710999864607,1495999,0
1710999872303,1710999864647,1496692,0
1710999872303,1710999864688,1497803,0
1710999872303,1710999864727,1499476,0
1710999872303,1710999864768,1500446,0
1710999872303,1710999864807,1494693,0
1710999872303,1710999864848,1483709,0
1710999872303,1710999864888,1474456,0
1710999872303,1710999864928,1469979,0
1710999872303,1710999864968,1469394,0
1710999872303,1710999865008,1471370,0
1710999872303,1710999865048,1472943,0
1710999872303,1710999865089,1473309,0
1710999872303,1710999865128,1473186,0
1710999872303,1710999865168,1473502,0
1710999872303,1710999865209,1474864,0
1710999872303,1710999865249,1477004,0
1710999872303,1710999865289,1479879,0
1710999872303,1710999865329,1482879,0
1710999872303,1710999865369,1486187,0
1710999872303,1710999865409,1485617,0
1710999872303,1710999865449,1474417,0
1710999872303,1710999865490,1460633,0
1710999872303,1710999865529,1450396,0
1710999872303,1710999865569,1444957,0
1710999872303,1710999865610,1443445,0
1710999872303,1710999865649,1444298,0
1710999872303,1710999865690,1445119,0
1710999872303,1710999865730,1444802,0
1710999872303,1710999865770,1444206,0
1710999872303,1710999865810,1444692,0
1710999872303,1710999865850,1446311,0
1710999872303,1710999865891,1449713,0
1710999872303,1710999865930,1458079,0
1710999872303,1710999865970,1466610,0
1710999872303,1710999866010,1476198,0
1710999872303,1710999866051,1486809,0
1710999872303,1710999866092,1494203,0
1710999872303,1710999866131,1493974,0
1710999872303,1710999866171,1490777,0
1710999872303,1710999866211,1489624,0
1710999872303,1710999866251,1490372,0
1710999872303,1710999866292,1494507,0
1710999872303,1710999866331,1499893,0
1710999872303,1710999866371,1505585,0
1710999872303,1710999866411,1510102,0
1710999872303,1710999866452,1514472,0
1710999872303,1710999866492,1519683,0
1710999872303,1710999866532,1524602,0
1710999872303,1710999866572,1529004,0
1710999872303,1710999866612,1533288,0
1710999872303,1710999866652,1536897,0
1710999872303,1710999866693,1539510,0
1710999872303,1710999866732,1540192,0
1710999872303,1710999866773,1535761,0
1710999872303,1710999866813,1531392,0
1710999872303,1710999866853,1531102,0
1710999872303,1710999866894,1532461,0
1710999872303,1710999866933,1522779,0
1710999872303,1710999866973,1509097,0
1710999872303,1710999867013,1500363,0
1710999872303,1710999867053,1496488,0
1710999872303,1710999867094,1495279,0
1710999872303,1710999867133,1497214,0
1710999872303,1710999867174,1499016,0
1710999872303,1710999867214,1500347,0
1710999872303,1710999867254,1501070,0
1710999872303,1710999867295,1503875,0
1710999872303,1710999867334,1511308,0
1710999872303,1710999867374,1521558,0
1710999872303,1710999867414,1533325,0
1710999872303,1710999867454,1545684,0
1710999872303,1710999867495,1557084,0
1710999872303,1710999867535,1566424,0
1710999872303,1710999867575,1575417,0
1710999872303,1710999867615,1584501,0
1710999872303,1710999867655,1593857,0
1710999872303,1710999867696,1604078,0
1710999872303,1710999867735,1614485,0
1710999872303,1710999867775,1624155,0
1710999872303,1710999867815,1631170,0
1710999872303,1710999867855,1635951,0
1710999872303,1710999867896,1637928,0
1710999872303,1710999867936,1639835,0
1710999872303,1710999867976,1642412,0
1710999872303,1710999868016,1646521,0
1710999872303,1710999868056,1652427,0
1710999872303,1710999868097,1657654,0
1710999872303,1710999868137,1658417,0
1710999872303,1710999868176,1659717,0
1710999872303,1710999868217,1663664,0
1710999872303,1710999868257,1668391,0
1710999872303,1710999868298,1670790,0
1710999872303,1710999868337,1673171,0
1710999872303,1710999868377,1677448,0
1710999872303,1710999868417,1682894,0
1710999872303,1710999868457,1687534,0
1710999872303,1710999868498,1691923,0
1710999872303,1710999868538,1697284,0
1710999872303,1710999868578,1703951,0
1710999872303,1710999868618,1712446,0
1710999872303,1710999868658,1720907,0
1710999872303,1710999868699,1726629,0
1710999872303,1710999868738,1732056,0
1710999872303,1710999868778,1737457,0
1710999872303,1710999868818,1743350,0
1710999872303,1710999868859,1749425,0
1710999872303,1710999868900,1753787,0
1710999872303,1710999868939,1756268,0
1710999872303,1710999868979,1755626,0
1710999872303,1710999869019,1753327,0
1710999872303,1710999869059,1752256,0
1710999872303,1710999869100,1751946,0
1710999872303,1710999869140,1752090,0
1710999872303,1710999869180,1754609,0
1710999872303,1710999869220,1757833,0
1710999872303,1710999869260,1762190,0
1710999872303,1710999869301,1766430,0
1710999872303,1710999869341,1772249,0
1710999872303,1710999869381,1779294,0
1710999872303,1710999869421,1786144,0
1710999872303,1710999869461,1789251,0
1710999872303,1710999869502,1787170,0
1710999872303,1710999869541,1783986,0
1710999872303,1710999869581,1781415,0
1710999872303,1710999869621,1780443,0
1710999872303,1710999869662,1781371,0
1710999872303,1710999869703,1784234,0
1710999872303,1710999869742,1787784,0
1710999872303,1710999869782,1790986,0
1710999872303,1710999869822,1793635,0
1710999872303,1710999869862,1796922,0
1710999872303,1710999869903,1801608,0
1710999872303,1710999869943,1807349,0
1710999872303,1710999869983,1814745,0
1710999872303,1710999870023,1820513,0
1710999872303,1710999870063,1823927,0
1710999872303,1710999870104,1826339,0
1710999872303,1710999870143,1827511,0
1710999872303,1710999870184,1826933,0
1710999872303,1710999870224,1824952,0
1710999872303,1710999870264,1819937,0
1710999872303,1710999870305,1810691,0
1710999872303,1710999870344,1804491,0
1710999872303,1710999870384,1800415,0
1710999872303,1710999870425,1797744,0
1710999872303,1710999870465,1796294,0
1710999872303,1710999870506,1794949,0
1710999872303,1710999870545,1793507,0
1710999872303,1710999870585,1791639,0
1710999872303,1710999870625,1790102,0
1710999872303,1710999870665,1788994,0
1710999872303,1710999870706,1788358,0
1710999872303,1710999870746,1788364,0
1710999872303,1710999870786,1788591,0
1710999872303,1710999870826,1789240,0
1710999872303,1710999870866,1790045,0
1710999872303,1710999870907,1790793,0
1710999872303,1710999870946,1791650,0
1710999872303,1710999870986,1791567,0
1710999872303,1710999871026,1787698,0
1710999872303,1710999871066,1781635,0
1710999872303,1710999871107,1775439,0
1710999872303,1710999871147,1770715,0
1710999872303,1710999871187,1767606,0
1710999872303,1710999871227,1766415,0
1710999872303,1710999871267,1765770,0
1710999872303,1710999871308,1764854,0
1710999872303,1710999871347,1763809,0
1710999872303,1710999871387,1762730,0
1710999872303,1710999871427,1762106,0
1710999872303,1710999871467,1762068,0
1710999872303,1710999871508,1762473,0
1710999872303,1710999871548,1763301,0
1710999872303,1710999871588,1764221,0
1710999872303,1710999871628,1765157,0
1710999872303,1710999871668,1766281,0
1710999872303,1710999871709,1765309,0
1710999872303,1710999871748,1758614,0
1710999872303,1710999871788,1750764,0
1710999872303,1710999871828,1745334,0
1710999872303,1710999871868,1742442,0
1710999872303,1710999871909,1741024,0
1710999872303,1710999871948,1740885,0
1710999872303,1710999871989,1741077,0
1710999872303,1710999872029,1741192,0
1710999872303,1710999872069,1741486,0
1710999872303,1710999872110,1741989,0
1710999872303,1710999872149,1743072,0
1710999872303,1710999872189,1744400,0
1710999884302,1710999872229,1745787,0
1710999884302,1710999872269,1747390,0
1710999884302,1710999872310,1749078,0
1710999884302,1710999872350,1750955,0
1710999884302,1710999872390,1752600,0
1710999884302,1710999872430,1753028,0
1710999884302,1710999872470,1749458,0
1710999884302,1710999872511,1744884,0
1710999884302,1710999872550,1741994,0
1710999884302,1710999872590,1741082,0
1710999884302,1710999872630,1741372,0
1710999884302,1710999872670,1742629,0
1710999884302,1710999872711,1743865,0
1710999884302,1710999872751,1744859,0
1710999884302,1710999872791,1745773,0
1710999884302,1710999872831,1747026,0
1710999884302,1710999872871,1748919,0
1710999884302,1710999872912,1751811,0
1710999884302,1710999872951,1758179,0
1710999884302,1710999872992,1767945,0
1710999884302,1710999873032,1780069,0
1710999884302,1710999873072,1794994,0
1710999884302,1710999873112,1810204,0
1710999884302,1710999873152,1821547,0
1710999884302,1710999873192,1822751,0
1710999884302,1710999873232,1835594,0
1710999884302,1710999873272,1842189,0
1710999884302,1710999873313,1851666,0
1710999884302,1710999873353,1857844,0
1710999884302,1710999873393,1862646,0
1710999884302,1710999873433,1866681,0
1710999884302,1710999873473,1870690,0
1710999884302,1710999873514,1874715,0
1710999884302,1710999873553,1878955,0
1710999884302,1710999873593,1883546,0
1710999884302,1710999873633,1888317,0
1710999884302,1710999873674,1893109,0
1710999884302,1710999873714,1897613,0
1710999884302,1710999873754,1901659,0
1710999884302,1710999873794,1905083,0
1710999884302,1710999873834,1908903,0
1710999884302,1710999873874,1912543,0
1710999884302,1710999873915,1913780,0
1710999884302,1710999873954,1914234,0
1710999884302,1710999873994,1914987,0
1710999884302,1710999874035,1921902,0
1710999884302,1710999874075,1932429,0
1710999884302,1710999874115,1942752,0
1710999884302,1710999874155,1950488,0
1710999884302,1710999874195,1956343,0
1710999884302,1710999874235,1959464,0
1710999884302,1710999874275,1963296,0
1710999884302,1710999874316,1967018,0
1710999884302,1710999874355,1971712,0
1710999884302,1710999874396,1977041,0
1710999884302,1710999874436,1981424,0
1710999884302,1710999874476,1986036,0
1710999884302,1710999874517,1989848,0
1710999884302,1710999874556,1995008,0
1710999884302,1710999874596,2000951,0
1710999884302,1710999874637,2006480,0
1710999884302,1710999874677,2010904,0
1710999884302,1710999874717,2013640,0
1710999884302,1710999874757,2015891,0
1710999884302,1710999874797,2017749,0
1710999884302,1710999874837,2019659,0
1710999884302,1710999874877,2021226,0
1710999884302,1710999874918,2023029,0
1710999884302,1710999874957,2024508,0
1710999884302,1710999874998,2025934,0
1710999884302,1710999875038,2027458,0
1710999884302,1710999875078,2028594,0
1710999884302,1710999875119,2029552,0
1710999884302,1710999875158,2030320,0
1710999884302,1710999875198,2030074,0
1710999884302,1710999875239,2028771,0
1710999884302,1710999875279,2027913,0
1710999884302,1710999875319,2028098,0
1710999884302,1710999875359,2030009,0
1710999884302,1710999875399,2033438,0
1710999884302,1710999875439,2037711,0
1710999884302,1710999875479,2040771,0
1710999884302,1710999875520,2043281,0
1710999884302,1710999875560,2045872,0
1710999884302,1710999875600,2047749,0
1710999884302,1710999875640,2049350,0
1710999884302,1710999875680,2051305,0
1710999884302,1710999875721,2053191,0
1710999884302,1710999875760,2054495,0
1710999884302,1710999875800,2058508,0
1710999884302,1710999875841,2064462,0
1710999884302,1710999875881,2069119,0
1710999884302,1710999875922,2071077,0
1710999884302,1710999875961,2071083,0
1710999884302,1710999876001,2070556,0
1710999884302,1710999876041,2070116,0
1710999884302,1710999876082,2070619,0
1710999884302,1710999876122,2071798,0
1710999884302,1710999876162,2073334,0
1710999884302,1710999876202,2074869,0
1710999884302,1710999876242,2075837,0
1710999884302,1710999876282,2076914,0
1710999884302,1710999876323,2078318,0
1710999884302,1710999876362,2079815,0
1710999884302,1710999876403,2081349,0
1710999884302,1710999876443,2082816,0
1710999884302,1710999876483,2083895,0
1710999884302,1710999876524,2084604,0
1710999884302,1710999876563,2085017,0
1710999884302,1710999876603,2085194,0
1710999884302,1710999876643,2086131,0
1710999884302,1710999876684,2087231,0
1710999884302,1710999876724,2088099,0
1710999884302,1710999876764,2088890,0
1710999884302,1710999876804,2089619,0
1710999884302,1710999876844,2090200,0
1710999884302,1710999876884,2090867,0
1710999884302,1710999876925,2091361,0
1710999884302,1710999876964,2092075,0
1710999884302,1710999877004,2092840,0
1710999884302,1710999877044,2093441,0
1710999884302,1710999877084,2093959,0
1710999884302,1710999877125,2094576,0
1710999884302,1710999877165,2095159,0
1710999884302,1710999877205,2095752,0
1710999884302,1710999877245,2096529,0
1710999884302,1710999877285,2097002,0
1710999884302,1710999877326,2097673,0
1710999884302,1710999877365,2098528,0
1710999884302,1710999877405,2099182,0
1710999884302,1710999877445,2099646,0
1710999884302,1710999877485,2100116,0
1710999884302,1710999877526,2100376,0
1710999884302,1710999877565,2100522,0
1710999884302,1710999877606,2100886,0
1710999884302,1710999877646,2101008,0
1710999884302,1710999877686,2101311,0
1710999884302,1710999877727,2101726,0
1710999884302,1710999877766,2102200,0
1710999884302,1710999877806,2102582,0
1710999884302,1710999877846,2103229,0
1710999884302,1710999877886,2103680,0
1710999884302,1710999877927,2104156,0
1710999884302,1710999877966,2104402,0
1710999884302,1710999878007,2104911,0
1710999884302,1710999878047,2105851,0
1710999884302,1710999878087,2106480,0
1710999884302,1710999878128,2107153,0
1710999884302,1710999878167,2107674,0
1710999884302,1710999878207,2108084,0
1710999884302,1710999878247,2108526,0
1710999884302,1710999878287,2109040,0
1710999884302,1710999878328,2109609,0
1710999884302,1710999878368,2110312,0
1710999884302,1710999878408,2111135,0
1710999884302,1710999878448,2111563,0
1710999884302,1710999878488,2112052,0
1710999884302,1710999878529,2112454,0
1710999884302,1710999878568,2112888,0
1710999884302,1710999878608,2113386,0
1710999884302,1710999878648,2114014,0
1710999884302,1710999878689,2114799,0
1710999884302,1710999878730,2115245,0
1710999884302,1710999878769,2116201,0
1710999884302,1710999878809,2116985,0
1710999884302,1710999878849,2117917,0
1710999884302,1710999878889,2118623,0
1710999884302,1710999878930,2119215,0
1710999884302,1710999878970,2119509,0
1710999884302,1710999879010,2119717,0
1710999884302,1710999879050,2120253,0
1710999884302,1710999879090,2120744,0
1710999884302,1710999879131,2121414,0
1710999884302,1710999879170,2122070,0
1710999884302,1710999879210,2122637,0
1710999884302,1710999879250,2123258,0
1710999884302,1710999879290,2123989,0
1710999884302,1710999879331,2124635,0
1710999884302,1710999879371,2125059,0
1710999884302,1710999879411,2125763,0
1710999884302,1710999879451,2126249,0
1710999884302,1710999879491,2126578,0
1710999884302,1710999879532,2127052,0
1710999884302,1710999879571,2127453,0
1710999884302,1710999879612,2127606,0
1710999884302,1710999879652,2127971,0
1710999884302,1710999879692,2128216,0
1710999884302,1710999879733,2128634,0
1710999884302,1710999879772,2129005,0
1710999884302,1710999879812,2129454,0
1710999884302,1710999879852,2129987,0
1710999884302,1710999879893,2130379,0
1710999884302,1710999879934,2130708,0
1710999884302,1710999879973,2130937,0
1710999884302,1710999880013,2131360,0
1710999884302,1710999880053,2131727,0
1710999884302,1710999880093,2132086,0
1710999884302,1710999880134,2132512,0
1710999884302,1710999880174,2132819,0
1710999884302,1710999880214,2133227,0
1710999884302,1710999880254,2133590,0
1710999884302,1710999880294,2134257,0
1710999884302,1710999880335,2134894,0
1710999884302,1710999880374,2135257,0
1710999884302,1710999880414,2135522,0
1710999884302,1710999880454,2135763,0
1710999884302,1710999880495,2136120,0
1710999884302,1710999880536,2136303,0
1710999884302,1710999880575,2136759,0
1710999884302,1710999880615,2137163,0
1710999884302,1710999880655,2137555,0
1710999884302,1710999880695,2137730,0
1710999884302,1710999880736,2137776,0
1710999884302,1710999880776,2137814,0
1710999884302,1710999880816,2137956,0
1710999884302,1710999880856,2138044,0
1710999884302,1710999880896,2138077,0
1710999884302,1710999880937,2138161,0
1710999884302,1710999880976,2138301,0
1710999884302,1710999881017,2138419,0
1710999884302,1710999881057,2138425,0
1710999884302,1710999881097,2138461,0
1710999884302,1710999881138,2138515,0
1710999884302,1710999881177,2138472,0
1710999884302,1710999881217,2138383,0
1710999884302,1710999881258,2138434,0
1710999884302,1710999881298,2138610,0
1710999884302,1710999881338,2138844,0
1710999884302,1710999881378,2139040,0
1710999884302,1710999881418,2139208,0
1710999884302,1710999881458,2139334,0
1710999884302,1710999881498,2139438,0
1710999884302,1710999881539,2139381,0
1710999884302,1710999881579,2139338,0
1710999884302,1710999881619,2139249,0
1710999884302,1710999881659,2139117,0
1710999884302,1710999881699,2139021,0
1710999884302,1710999881740,2138997,0
1710999884302,1710999881779,2138676,0
1710999884302,1710999881820,2138331,0
1710999884302,1710999881860,2137788,0
1710999884302,1710999881900,2137123,0
1710999884302,1710999881941,2136170,0
1710999884302,1710999881980,2135321,0
1710999884302,1710999882020,2134474,0
1710999884302,1710999882061,2133704,0
1710999884302,1710999882101,2132928,0
1710999884302,1710999882142,2132303,0
1710999884302,1710999882181,2131607,0
1710999884302,1710999882221,2131105,0
1710999884302,1710999882261,2129593,0
1710999884302,1710999882301,2129063,0
1710999884302,1710999882342,2128631,0
1710999884302,1710999882382,2128335,0
1710999884302,1710999882422,2128197,0
1710999884302,1710999882462,2127887,0
1710999884302,1710999882502,2127886,0
1710999884302,1710999882543,2127632,0
1710999884302,1710999882582,2127115,0
1710999884302,1710999882622,2126136,0
1710999884302,1710999882662,2124702,0
1710999884302,1710999882703,2123019,0
1710999884302,1710999882743,2121662,0
1710999884302,1710999882783,2120679,0
1710999884302,1710999882823,2119756,0
1710999884302,1710999882863,2118897,0
1710999884302,1710999882903,2118169,0
1710999884302,1710999882944,2117519,0
1710999884302,1710999882983,2117017,0
1710999884302,1710999883023,2116678,0
1710999884302,1710999883064,2116454,0
1710999884302,1710999883104,2116239,0
1710999884302,1710999883144,2116267,0
1710999884302,1710999883184,2116249,0
1710999884302,1710999883224,2116439,0
1710999884302,1710999883264,2116637,0
1710999884302,1710999883304,2116805,0
1710999884302,1710999883345,2116957,0
1710999884302,1710999883384,2116954,0
1710999884302,1710999883425,2116301,0
1710999884302,1710999883465,2115181,0
1710999884302,1710999883505,2113896,0
1710999884302,1710999883546,2113071,0
1710999884302,1710999883585,2112490,0
1710999884302,1710999883625,2112178,0
1710999884302,1710999883665,2112058,0
1710999884302,1710999883705,2111972,0
1710999884302,1710999883746,2112055,0
1710999884302,1710999883785,2112185,0
1710999884302,1710999883825,2112203,0
1710999884302,1710999883866,2112365,0
1710999884302,1710999883906,2112405,0
1710999884302,1710999883946,2112596,0
1710999884302,1710999883986,2112692,0
1710999884302,1710999884026,2112926,0
1710999884302,1710999884066,2113026,0
1710999884302,1710999884106,2113106,0
1710999884302,1710999884147,2113254,0
1710999884302,1710999884186,2113010,0
1710999884302,1710999884226,2112212,0
1710999896355,1710999884267,2111115,0
1710999896355,1710999884307,2109938,0
1710999896355,1710999884347,2109076,0
1710999896355,1710999884387,2108525,0
1710999896355,1710999884427,2108215,0
1710999896355,1710999884467,2107856,0
1710999896355,1710999884507,2107685,0
1710999896355,1710999884548,2107426,0
1710999896355,1710999884587,2107503,0
1710999896355,1710999884628,2107502,0
1710999896355,1710999884668,2107392,0
1710999896355,1710999884708,2107121,0
1710999896355,1710999884749,2107267,0
1710999896355,1710999884788,2107297,0
1710999896355,1710999884828,2107493,0
1710999896355,1710999884868,2107522,0
1710999896355,1710999884908,2107781,0
1710999896355,1710999884949,2108225,0
1710999896355,1710999884989,2108242,0
1710999896355,1710999885029,2106499,0
1710999896355,1710999885069,2103387,0
1710999896355,1710999885109,2100480,0
1710999896355,1710999885150,2097826,0
1710999896355,1710999885189,2096121,0
1710999896355,1710999885229,2095130,0
1710999896355,1710999885270,2094409,0
1710999896355,1710999885310,2094005,0
1710999896355,1710999885351,2093847,0
1710999896355,1710999885390,2094209,0
1710999896355,1710999885430,2094971,0
1710999896355,1710999885470,2096246,0
1710999896355,1710999885510,2098129,0
1710999896355,1710999885551,2100347,0
1710999896355,1710999885591,2102697,0
1710999896355,1710999885631,2105139,0
1710999896355,1710999885671,2107604,0
1710999896355,1710999885711,2109797,0
1710999896355,1710999885752,2111994,0
1710999896355,1710999885791,2114219,0
1710999896355,1710999885831,2113287,0
1710999896355,1710999885871,2111767,0
1710999896355,1710999885911,2111278,0
1710999896355,1710999885952,2111392,0
1710999896355,1710999885992,2111762,0
1710999896355,1710999886032,2112625,0
1710999896355,1710999886072,2113640,0
1710999896355,1710999886112,2114620,0
1710999896355,1710999886153,2115451,0
1710999896355,1710999886192,2116460,0
1710999896355,1710999886232,2117683,0
1710999896355,1710999886273,2119022,0
1710999896355,1710999886313,2120416,0
1710999896355,1710999886354,2121719,0
1710999896355,1710999886393,2123074,0
1710999896355,1710999886433,2124438,0
1710999896355,1710999886473,2125728,0
1710999896355,1710999886513,2127105,0
1710999896355,1710999886554,2128438,0
1710999896355,1710999886594,2129717,0
1710999896355,1710999886634,2131224,0
1710999896355,1710999886674,2133038,0
1710999896355,1710999886714,2132999,0
1710999896355,1710999886755,2132498,0
1710999896355,1710999886794,2132755,0
1710999896355,1710999886834,2133174,0
1710999896355,1710999886875,2133943,0
1710999896355,1710999886915,2135023,0
1710999896355,1710999886956,2136233,0
1710999896355,1710999886995,2137316,0
1710999896355,1710999887035,2138371,0
1710999896355,1710999887075,2139318,0
1710999896355,1710999887115,2140170,0
1710999896355,1710999887156,2141264,0
1710999896355,1710999887196,2142168,0
1710999896355,1710999887236,2143056,0
1710999896355,1710999887276,2143850,0
1710999896355,1710999887316,2144758,0
1710999896355,1710999887357,2145267,0
1710999896355,1710999887396,2145986,0
1710999896355,1710999887437,2146673,0
1710999896355,1710999887477,2147285,0
1710999896355,1710999887517,2148578,0
1710999896355,1710999887558,2148869,0
1710999896355,1710999887597,2148030,0
1710999896355,1710999887637,2147624,0
1710999896355,1710999887677,2147661,0
1710999896355,1710999887717,2147702,0
1710999896355,1710999887759,2148156,0
1710999896355,1710999887798,2148638,0
1710999896355,1710999887838,2149283,0
1710999896355,1710999887878,2149781,0
1710999896355,1710999887918,2150315,0
1710999896355,1710999887959,2150758,0
1710999896355,1710999887999,2151281,0
1710999896355,1710999888039,2151815,0
1710999896355,1710999888079,2152546,0
1710999896355,1710999888119,2153240,0
1710999896355,1710999888160,2153931,0
1710999896355,1710999888199,2154666,0
1710999896355,1710999888239,2155372,0
1710999896355,1710999888279,2156316,0
1710999896355,1710999888320,2157465,0
1710999896355,1710999888360,2157957,0
1710999896355,1710999888400,2158019,0
1710999896355,1710999888440,2158129,0
1710999896355,1710999888480,2158354,0
1710999896355,1710999888520,2158674,0
1710999896355,1710999888561,2159186,0
1710999896355,1710999888600,2159975,0
1710999896355,1710999888640,2160544,0
1710999896355,1710999888680,2161343,0
1710999896355,1710999888721,2161822,0
1710999896355,1710999888761,2162449,0
1710999896355,1710999888801,2162977,0
1710999896355,1710999888841,2163769,0
1710999896355,1710999888881,2164354,0
1710999896355,1710999888921,2164796,0
1710999896355,1710999888962,2165323,0
1710999896355,1710999889001,2165933,0
1710999896355,1710999889041,2166449,0
1710999896355,1710999889082,2167103,0
1710999896355,1710999889122,2168212,0
1710999896355,1710999889162,2168578,0
1710999896355,1710999889202,2168612,0
1710999896355,1710999889242,2168638,0
1710999896355,1710999889282,2168717,0
1710999896355,1710999889322,2169019,0
1710999896355,1710999889363,2169443,0
1710999896355,1710999889402,2170032,0
1710999896355,1710999889443,2170546,0
1710999896355,1710999889483,2171049,0
1710999896355,1710999889523,2171664,0
1710999896355,1710999889564,2172010,0
1710999896355,1710999889603,2172625,0
1710999896355,1710999889643,2173135,0
1710999896355,1710999889683,2173606,0
1710999896355,1710999889723,2174134,0
1710999896355,1710999889764,2174579,0
1710999896355,1710999889804,2174898,0
1710999896355,1710999889844,2175010,0
1710999896355,1710999889884,2175878,0
1710999896355,1710999889924,2176476,0
1710999896355,1710999889965,2176641,0
1710999896355,1710999890004,2176326,0
1710999896355,1710999890044,2176096,0
1710999896355,1710999890084,2175813,0
1710999896355,1710999890124,2175857,0
1710999896355,1710999890165,2176145,0
1710999896355,1710999890205,2176346,0
1710999896355,1710999890245,2176562,0
1710999896355,1710999890285,2176692,0
1710999896355,1710999890325,2176912,0
1710999896355,1710999890366,2176962,0
1710999896355,1710999890406,2177131,0
1710999896355,1710999890445,2177264,0
1710999896355,1710999890486,2177590,0
1710999896355,1710999890526,2177786,0
1710999896355,1710999890567,2177943,0
1710999896355,1710999890606,2178528,0
1710999896355,1710999890646,2178849,0
1710999896355,1710999890686,2177744,0
1710999896355,1710999890726,2176203,0
1710999896355,1710999890767,2175495,0
1710999896355,1710999890807,2175313,0
1710999896355,1710999890847,2175507,0
1710999896355,1710999890887,2176291,0
1710999896355,1710999890927,2177427,0
1710999896355,1710999890968,2179481,0
1710999896355,1710999891007,2181341,0
1710999896355,1710999891047,2183022,0
1710999896355,1710999891087,2185172,0
1710999896355,1710999891128,2187729,0
1710999896355,1710999891168,2192307,0
1710999896355,1710999891208,2196118,0
1710999896355,1710999891248,2199146,0
1710999896355,1710999891288,2200554,0
1710999896355,1710999891328,2200105,0
1710999896355,1710999891369,2200182,0
1710999896355,1710999891408,2198705,0
1710999896355,1710999891449,2195708,0
1710999896355,1710999891489,2190800,0
1710999896355,1710999891529,2184155,0
1710999896355,1710999891570,2176300,0
1710999896355,1710999891609,2166974,0
1710999896355,1710999891649,2154771,0
1710999896355,1710999891689,2145476,0
1710999896355,1710999891730,2138635,0
1710999896355,1710999891770,2133292,0
1710999896355,1710999891810,2128889,0
1710999896355,1710999891850,2124914,0
1710999896355,1710999891890,2121763,0
1710999896355,1710999891930,2118519,0
1710999896355,1710999891971,2115429,0
1710999896355,1710999892010,2112417,0
1710999896355,1710999892050,2111828,0
1710999896355,1710999892091,2108070,0
1710999896355,1710999892131,2103738,0
1710999896355,1710999892172,2099407,0
1710999896355,1710999892211,2095694,0
1710999896355,1710999892251,2092672,0
1710999896355,1710999892291,2090077,0
1710999896355,1710999892331,2087660,0
1710999896355,1710999892372,2084760,0
1710999896355,1710999892411,2082663,0
1710999896355,1710999892452,2082426,0
1710999896355,1710999892492,2083273,0
1710999896355,1710999892532,2085684,0
1710999896355,1710999892573,2088534,0
1710999896355,1710999892612,2091444,0
1710999896355,1710999892652,2095108,0
1710999896355,1710999892692,2099491,0
1710999896355,1710999892732,2104215,0
1710999896355,1710999892773,2107556,0
1710999896355,1710999892813,2109855,0
1710999896355,1710999892853,2110318,0
1710999896355,1710999892893,2109741,0
1710999896355,1710999892933,2108101,0
1710999896355,1710999892974,2107733,0
1710999896355,1710999893013,2107305,0
1710999896355,1710999893054,2108359,0
1710999896355,1710999893094,2110006,0
1710999896355,1710999893134,2113468,0
1710999896355,1710999893175,2117781,0
1710999896355,1710999893214,2121475,0
1710999896355,1710999893255,2128638,0
1710999896355,1710999893295,2136120,0
1710999896355,1710999893335,2141745,0
1710999896355,1710999893376,2144808,0
1710999896355,1710999893415,2145665,0
1710999896355,1710999893455,2145499,0
1710999896355,1710999893495,2145312,0
1710999896355,1710999893536,2145075,0
1710999896355,1710999893576,2143752,0
1710999896355,1710999893616,2142353,0
1710999896355,1710999893656,2141599,0
1710999896355,1710999893696,2141991,0
1710999896355,1710999893736,2143106,0
1710999896355,1710999893777,2144507,0
1710999896355,1710999893816,2145515,0
1710999896355,1710999893857,2147107,0
1710999896355,1710999893897,2148959,0
1710999896355,1710999893937,2150771,0
1710999896355,1710999893978,2151598,0
1710999896355,1710999894017,2152078,0
1710999896355,1710999894057,2152703,0
1710999896355,1710999894097,2152429,0
1710999896355,1710999894138,2149878,0
1710999896355,1710999894178,2147938,0
1710999896355,1710999894218,2143758,0
1710999896355,1710999894258,2138937,0
1710999896355,1710999894298,2135838,0
1710999896355,1710999894338,2132777,0
1710999896355,1710999894379,2130654,0
1710999896355,1710999894418,2128681,0
1710999896355,1710999894458,2126864,0
1710999896355,1710999894498,2125660,0
1710999896355,1710999894538,2124325,0
1710999896355,1710999894579,2123276,0
1710999896355,1710999894619,2122238,0
1710999896355,1710999894659,2120215,0
1710999896355,1710999894699,2115973,0
1710999896355,1710999894739,2110380,0
1710999896355,1710999894780,2105330,0
1710999896355,1710999894819,2100959,0
1710999896355,1710999894859,2094547,0
1710999896355,1710999894899,2086928,0
1710999896355,1710999894939,2079241,0
1710999896355,1710999894980,2071212,0
1710999896355,1710999895020,2064001,0
1710999896355,1710999895060,2058884,0
1710999896355,1710999895100,2054204,0
1710999896355,1710999895140,2049861,0
1710999896355,1710999895181,2046414,0
1710999896355,1710999895220,2043077,0
1710999896355,1710999895260,2042046,0
1710999896355,1710999895300,2041630,0
1710999896355,1710999895340,2041429,0
1710999896355,1710999895381,2041850,0
1710999896355,1710999895421,2042169,0
1710999896355,1710999895461,2042292,0
1710999896355,1710999895501,2042809,0
1710999896355,1710999895541,2046768,0
1710999896355,1710999895582,2048780,0
1710999896355,1710999895621,2052942,0
1710999896355,1710999895661,2062174,0
1710999896355,1710999895701,2075132,0
1710999896355,1710999895741,2088166,0
1710999896355,1710999895782,2099676,0
1710999896355,1710999895822,2108785,0
1710999896355,1710999895862,2114881,0
1710999896355,1710999895902,2119694,0
1710999896355,1710999895942,2123396,0
1710999896355,1710999895983,2126678,0
1710999896355,1710999896022,2130137,0
1710999896355,1710999896062,2132317,0
1710999896355,1710999896102,2132545,0
1710999896355,1710999896142,2136660,0
1710999896355,1710999896183,2136605,0
1710999896355,1710999896222,2134211,0
1710999896355,1710999896263,2131982,0
1710999908382,1710999896303,2123796,0
1710999908382,1710999896343,2115193,0
1710999908382,1710999896384,2109863,0
1710999908382,1710999896423,2106237,0
1710999908382,1710999896463,2104776,0
1710999908382,1710999896503,2104166,0
1710999908382,1710999896543,2104648,0
1710999908382,1710999896584,2105880,0
1710999908382,1710999896624,2107406,0
1710999908382,1710999896664,2109538,0
1710999908382,1710999896704,2111530,0
1710999908382,1710999896744,2113345,0
1710999908382,1710999896785,2114532,0
1710999908382,1710999896824,2115047,0
1710999908382,1710999896864,2114062,0
1710999908382,1710999896904,2109614,0
1710999908382,1710999896944,2106457,0
1710999908382,1710999896985,2105976,0
1710999908382,1710999897025,2107195,0
1710999908382,1710999897065,2108694,0
1710999908382,1710999897105,2115732,0
1710999908382,1710999897145,2125264,0
1710999908382,1710999897186,2130907,0
1710999908382,1710999897225,2135138,0
1710999908382,1710999897265,2138103,0
1710999908382,1710999897305,2141089,0
1710999908382,1710999897345,2143793,0
1710999908382,1710999897386,2145950,0
1710999908382,1710999897426,2146653,0
1710999908382,1710999897466,2142788,0
1710999908382,1710999897506,2139093,0
1710999908382,1710999897546,2136430,0
1710999908382,1710999897587,2136456,0
1710999908382,1710999897626,2132686,0
1710999908382,1710999897666,2132661,0
1710999908382,1710999897706,2134725,0
1710999908382,1710999897747,2134475,0
1710999908382,1710999897787,2133281,0
1710999908382,1710999897827,2131308,0
1710999908382,1710999897867,2130834,0
1710999908382,1710999897907,2133199,0
1710999908382,1710999897947,2136213,0
1710999908382,1710999897988,2137681,0
1710999908382,1710999898027,2137752,0
1710999908382,1710999898067,2136643,0
1710999908382,1710999898108,2135602,0
1710999908382,1710999898148,2135230,0
1710999908382,1710999898189,2136164,0
1710999908382,1710999898228,2137267,0
1710999908382,1710999898268,2135975,0
1710999908382,1710999898308,2130898,0
1710999908382,1710999898349,2123083,0
1710999908382,1710999898389,2116544,0
1710999908382,1710999898429,2111612,0
1710999908382,1710999898469,2108396,0
1710999908382,1710999898509,2105948,0
1710999908382,1710999898549,2103255,0
1710999908382,1710999898590,2098833,0
1710999908382,1710999898629,2091267,0
1710999908382,1710999898669,2080612,0
1710999908382,1710999898710,2072328,0
1710999908382,1710999898750,2066617,0
1710999908382,1710999898790,2062908,0
1710999908382,1710999898830,2060249,0
1710999908382,1710999898870,2056599,0
1710999908382,1710999898910,2052248,0
1710999908382,1710999898950,2047262,0
1710999908382,1710999898991,2043412,0
1710999908382,1710999899030,2039557,0
1710999908382,1710999899071,2033778,0
1710999908382,1710999899111,2023118,0
1710999908382,1710999899151,2003004,0
1710999908382,1710999899192,1983676,0
1710999908382,1710999899231,1966563,0
1710999908382,1710999899271,1955822,0
1710999908382,1710999899312,1955398,0
1710999908382,1710999899352,1961992,0
1710999908382,1710999899392,1965116,0
1710999908382,1710999899432,1975739,0
1710999908382,1710999899472,1993985,0
1710999908382,1710999899512,2014142,0
1710999908382,1710999899552,2023688,0
1710999908382,1710999899593,2035007,0
1710999908382,1710999899633,2046903,0
1710999908382,1710999899673,2062337,0
1710999908382,1710999899713,2070369,0
1710999908382,1710999899753,2078640,0
1710999908382,1710999899794,2082830,0
1710999908382,1710999899833,2085523,0
1710999908382,1710999899874,2087071,0
1710999908382,1710999899914,2089556,0
1710999908382,1710999899954,2092594,0
1710999908382,1710999899995,2095675,0
1710999908382,1710999900034,2098737,0
1710999908382,1710999900074,2101399,0
1710999908382,1710999900114,2102103,0
1710999908382,1710999900155,2101078,0
1710999908382,1710999900195,2099145,0
1710999908382,1710999900235,2097719,0
1710999908382,1710999900275,2095802,0
1710999908382,1710999900315,2093039,0
1710999908382,1710999900355,2089447,0
1710999908382,1710999900396,2086013,0
1710999908382,1710999900436,2082819,0
1710999908382,1710999900476,2079935,0
1710999908382,1710999900516,2076834,0
1710999908382,1710999900556,2073830,0
1710999908382,1710999900596,2071009,0
1710999908382,1710999900636,2068813,0
1710999908382,1710999900676,2066884,0
1710999908382,1710999900716,2065277,0
1710999908382,1710999900756,2062801,0
1710999908382,1710999900797,2056853,0
1710999908382,1710999900836,2049023,0
1710999908382,1710999900877,2041566,0
1710999908382,1710999900917,2034684,0
1710999908382,1710999900957,2027802,0
1710999908382,1710999900998,2021494,0
1710999908382,1710999901037,2016825,0
1710999908382,1710999901077,2012341,0
1710999908382,1710999901117,2007713,0
1710999908382,1710999901157,2003265,0
1710999908382,1710999901198,1999461,0
1710999908382,1710999901238,1995907,0
1710999908382,1710999901278,1993139,0
1710999908382,1710999901318,1991129,0
1710999908382,1710999901358,1989767,0
1710999908382,1710999901399,1988719,0
1710999908382,1710999901438,1987997,0
1710999908382,1710999901478,1986884,0
1710999908382,1710999901518,1985646,0
1710999908382,1710999901558,1980982,0
1710999908382,1710999901599,1969712,0
1710999908382,1710999901638,1956976,0
1710999908382,1710999901678,1946645,0
1710999908382,1710999901719,1937496,0
1710999908382,1710999901759,1930484,0
1710999908382,1710999901799,1924443,0
1710999908382,1710999901839,1918691,0
1710999908382,1710999901879,1912797,0
1710999908382,1710999901919,1907130,0
1710999908382,1710999901959,1902371,0
1710999908382,1710999902000,1898501,0
1710999908382,1710999902039,1895326,0
1710999908382,1710999902079,1894374,0
1710999908382,1710999902119,1893848,0
1710999908382,1710999902159,1893811,0
1710999908382,1710999902200,1894911,0
1710999908382,1710999902240,1896236,0
1710999908382,1710999902280,1896507,0
1710999908382,1710999902320,1890202,0
1710999908382,1710999902360,1880490,0
1710999908382,1710999902401,1872983,0
1710999908382,1710999902440,1868298,0
1710999908382,1710999902480,1865214,0
1710999908382,1710999902520,1864298,0
1710999908382,1710999902561,1864048,0
1710999908382,1710999902601,1863597,0
1710999908382,1710999902641,1862728,0
1710999908382,1710999902681,1861889,0
1710999908382,1710999902721,1861575,0
1710999908382,1710999902761,1861804,0
1710999908382,1710999902802,1862273,0
1710999908382,1710999902841,1863061,0
1710999908382,1710999902881,1864404,0
1710999908382,1710999902922,1865781,0
1710999908382,1710999902962,1867286,0
1710999908382,1710999903002,1869037,0
1710999908382,1710999903042,1870757,0
1710999908382,1710999903082,1871446,0
1710999908382,1710999903122,1864384,0
1710999908382,1710999903162,1853011,0
1710999908382,1710999903203,1844076,0
1710999908382,1710999903242,1837279,0
1710999908382,1710999903283,1833082,0
1710999908382,1710999903323,1830518,0
1710999908382,1710999903363,1828470,0
1710999908382,1710999903404,1825981,0
1710999908382,1710999903443,1823637,0
1710999908382,1710999903483,1821810,0
1710999908382,1710999903523,1821105,0
1710999908382,1710999903563,1821318,0
1710999908382,1710999903604,1822106,0
1710999908382,1710999903644,1823161,0
1710999908382,1710999903684,1824387,0
1710999908382,1710999903724,1825709,0
1710999908382,1710999903764,1827224,0
1710999908382,1710999903805,1828934,0
1710999908382,1710999903844,1830729,0
1710999908382,1710999903884,1831473,0
1710999908382,1710999903924,1824906,0
1710999908382,1710999903964,1814937,0
1710999908382,1710999904005,1806517,0
1710999908382,1710999904045,1801016,0
1710999908382,1710999904085,1797571,0
1710999908382,1710999904125,1795893,0
1710999908382,1710999904165,1794593,0
1710999908382,1710999904206,1792602,0
1710999908382,1710999904245,1790355,0
1710999908382,1710999904285,1789324,0
1710999908382,1710999904325,1789423,0
1710999908382,1710999904366,1790269,0
1710999908382,1710999904406,1791642,0
1710999908382,1710999904448,1793304,0
1710999908382,1710999904486,1794998,0
1710999908382,1710999904526,1796383,0
1710999908382,1710999904566,1798006,0
1710999908382,1710999904607,1799510,0
1710999908382,1710999904646,1798218,0
1710999908382,1710999904686,1789224,0
1710999908382,1710999904727,1779054,0
1710999908382,1710999904767,1772665,0
1710999908382,1710999904808,1770629,0
1710999908382,1710999904847,1771053,0
1710999908382,1710999904887,1772162,0
1710999908382,1710999904927,1772386,0
1710999908382,1710999904967,1771468,0
1710999908382,1710999905008,1770448,0
1710999908382,1710999905048,1770192,0
1710999908382,1710999905088,1771056,0
1710999908382,1710999905128,1772305,0
1710999908382,1710999905168,1773919,0
1710999908382,1710999905209,1775607,0
1710999908382,1710999905248,1776977,0
1710999908382,1710999905288,1778170,0
1710999908382,1710999905329,1779519,0
1710999908382,1710999905369,1781061,0
1710999908382,1710999905410,1782721,0
1710999908382,1710999905449,1779417,0
1710999908382,1710999905489,1767782,0
1710999908382,1710999905529,1756216,0
1710999908382,1710999905569,1747798,0
1710999908382,1710999905610,1742166,0
1710999908382,1710999905650,1739300,0
1710999908382,1710999905690,1737979,0
1710999908382,1710999905730,1736624,0
1710999908382,1710999905770,1734600,0
1710999908382,1710999905811,1732902,0
1710999908382,1710999905850,1732157,0
1710999908382,1710999905890,1732501,0
1710999908382,1710999905930,1733548,0
1710999908382,1710999905971,1735366,0
1710999908382,1710999906011,1737599,0
1710999908382,1710999906051,1739590,0
1710999908382,1710999906091,1741892,0
1710999908382,1710999906131,1744374,0
1710999908382,1710999906171,1746996,0
1710999908382,1710999906212,1749509,0
1710999908382,1710999906252,1752241,0
1710999908382,1710999906292,1755322,0
1710999908382,1710999906332,1754666,0
1710999908382,1710999906372,1743774,0
1710999908382,1710999906413,1731810,0
1710999908382,1710999906452,1723233,0
1710999908382,1710999906493,1717485,0
1710999908382,1710999906533,1714742,0
1710999908382,1710999906573,1713942,0
1710999908382,1710999906614,1713117,0
1710999908382,1710999906656,1711737,0
1710999908382,1710999906693,1710486,0
1710999908382,1710999906733,1711368,0
1710999908382,1710999906774,1713249,0
1710999908382,1710999906814,1715749,0
1710999908382,1710999906854,1718443,0
1710999908382,1710999906894,1720991,0
1710999908382,1710999906934,1723942,0
1710999908382,1710999906974,1726733,0
1710999908382,1710999907015,1729533,0
1710999908382,1710999907054,1732351,0
1710999908382,1710999907094,1735086,0
1710999908382,1710999907134,1738030,0
1710999908382,1710999907174,1740780,0
1710999908382,1710999907215,1743713,0
1710999908382,1710999907255,1746670,0
1710999908382,1710999907295,1745241,0
1710999908382,1710999907335,1734406,0
1710999908382,1710999907375,1724004,0
1710999908382,1710999907416,1717571,0
1710999908382,1710999907455,1713913,0
1710999908382,1710999907495,1712488,0
1710999908382,1710999907535,1712415,0
1710999908382,1710999907575,1711764,0
1710999908382,1710999907616,1710625,0
1710999908382,1710999907655,1709459,0
1710999908382,1710999907696,1709000,0
1710999908382,1710999907736,1709460,0
1710999908382,1710999907776,1710607,0
1710999908382,1710999907817,1711961,0
1710999908382,1710999907856,1713443,0
1710999908382,1710999907896,1714697,0
1710999908382,1710999907936,1715641,0
1710999908382,1710999907976,1716751,0
1710999908382,1710999908017,1718177,0
1710999908382,1710999908057,1719942,0
1710999908382,1710999908097,1721787,0
1710999908382,1710999908137,1724284,0
1710999908382,1710999908177,1726766,0
1710999908382,1710999908218,1729446,0
1710999908382,1710999908257,1730436,0
1710999908382,1710999908297,1722787,0
1710999920429,1710999908338,1712358,0
1710999920429,1710999908378,1705060,0
1710999920429,1710999908419,1701641,0
1710999920429,1710999908459,1700525,0
1710999920429,1710999908499,1701150,0
1710999920429,1710999908539,1701746,0
1710999920429,1710999908579,1701487,0
1710999920429,1710999908620,1701148,0
1710999920429,1710999908659,1701137,0
1710999920429,1710999908699,1702386,0
1710999920429,1710999908739,1704106,0
1710999920429,1710999908779,1706290,0
1710999920429,1710999908820,1708669,0
1710999920429,1710999908859,1711247,0
1710999920429,1710999908900,1713611,0
1710999920429,1710999908940,1716073,0
1710999920429,1710999908980,1718464,0
1710999920429,1710999909021,1721283,0
1710999920429,1710999909060,1724282,0
1710999920429,1710999909100,1727345,0
1710999920429,1710999909140,1728897,0
1710999920429,1710999909180,1722508,0
1710999920429,1710999909221,1714362,0
1710999920429,1710999909260,1709012,0
1710999920429,1710999909301,1707083,0
1710999920429,1710999909341,1707145,0
1710999920429,1710999909381,1708228,0
1710999920429,1710999909421,1708442,0
1710999920429,1710999909461,1707355,0
1710999920429,1710999909501,1706479,0
1710999920429,1710999909541,1706360,0
1710999920429,1710999909581,1707255,0
1710999920429,1710999909622,1708870,0
1710999920429,1710999909661,1710845,0
1710999920429,1710999909701,1713029,0
1710999920429,1710999909742,1715411,0
1710999920429,1710999909782,1717620,0
1710999920429,1710999909822,1719950,0
1710999920429,1710999909862,1722669,0
1710999920429,1710999909902,1725531,0
1710999920429,1710999909942,1728708,0
1710999920429,1710999909982,1731579,0
1710999920429,1710999910023,1733048,0
1710999920429,1710999910062,1725776,0
1710999920429,1710999910102,1716828,0
1710999920429,1710999910143,1711027,0
1710999920429,1710999910183,1708775,0
1710999920429,1710999910223,1708236,0
1710999920429,1710999910263,1709224,0
1710999920429,1710999910303,1710156,0
1710999920429,1710999910343,1710187,0
1710999920429,1710999910383,1710265,0
1710999920429,1710999910424,1710884,0
1710999920429,1710999910463,1712551,0
1710999920429,1710999910504,1714972,0
1710999920429,1710999910544,1717751,0
1710999920429,1710999910584,1720865,0
1710999920429,1710999910625,1723989,0
1710999920429,1710999910664,1727138,0
1710999920429,1710999910704,1730221,0
1710999920429,1710999910744,1733456,0
1710999920429,1710999910784,1736400,0
1710999920429,1710999910825,1739458,0
1710999920429,1710999910865,1742499,0
1710999920429,1710999910905,1745656,0
1710999920429,1710999910945,1747686,0
1710999920429,1710999910985,1741474,0
1710999920429,1710999911026,1732318,0
1710999920429,1710999911065,1725846,0
1710999920429,1710999911105,1722746,0
1710999920429,1710999911145,1721478,0
1710999920429,1710999911185,1721543,0
1710999920429,1710999911226,1721871,0
1710999920429,1710999911266,1721364,0
1710999920429,1710999911306,1720615,0
1710999920429,1710999911346,1720677,0
1710999920429,1710999911386,1721563,0
1710999920429,1710999911427,1723252,0
1710999920429,1710999911466,1725652,0
1710999920429,1710999911506,1728090,0
1710999920429,1710999911546,1730841,0
1710999920429,1710999911587,1733454,0
1710999920429,1710999911627,1735887,0
1710999920429,1710999911667,1738371,0
1710999920429,1710999911707,1740895,0
1710999920429,1710999911747,1743482,0
1710999920429,1710999911787,1746102,0
1710999920429,1710999911828,1748847,0
1710999920429,1710999911867,1750656,0
1710999920429,1710999911908,1744373,0
1710999920429,1710999911948,1734657,0
1710999920429,1710999911988,1727731,0
1710999920429,1710999912029,1723954,0
1710999920429,1710999912068,1722617,0
1710999920429,1710999912108,1722714,0
1710999920429,1710999912148,1722886,0
1710999920429,1710999912189,1722172,0
1710999920429,1710999912229,1721122,0
1710999920429,1710999912269,1720578,0
1710999920429,1710999912309,1720977,0
1710999920429,1710999912349,1722296,0
1710999920429,1710999912389,1724137,0
1710999920429,1710999912430,1725931,0
1710999920429,1710999912470,1727858,0
1710999920429,1710999912510,1729746,0
1710999920429,1710999912550,1731530,0
1710999920429,1710999912590,1733399,0
1710999920429,1710999912631,1735615,0
1710999920429,1710999912670,1737851,0
1710999920429,1710999912710,1740288,0
1710999920429,1710999912750,1742742,0
1710999920429,1710999912791,1739640,0
1710999920429,1710999912832,1730926,0
1710999920429,1710999912871,1723676,0
1710999920429,1710999912911,1719875,0
1710999920429,1710999912951,1718554,0
1710999920429,1710999912991,1718873,0
1710999920429,1710999913032,1719620,0
1710999920429,1710999913072,1719611,0
1710999920429,1710999913112,1718982,0
1710999920429,1710999913152,1719377,0
1710999920429,1710999913192,1720641,0
1710999920429,1710999913233,1722439,0
1710999920429,1710999913272,1724871,0
1710999920429,1710999913312,1727754,0
1710999920429,1710999913352,1730850,0
1710999920429,1710999913393,1734103,0
1710999920429,1710999913433,1737756,0
1710999920429,1710999913472,1741350,0
1710999920429,1710999913513,1744937,0
1710999920429,1710999913553,1748580,0
1710999920429,1710999913593,1752365,0
1710999920429,1710999913634,1756129,0
1710999920429,1710999913673,1756761,0
1710999920429,1710999913713,1749356,0
1710999920429,1710999913753,1742192,0
1710999920429,1710999913793,1738395,0
1710999920429,1710999913834,1736838,0
1710999920429,1710999913873,1737002,0
1710999920429,1710999913913,1738061,0
1710999920429,1710999913954,1739095,0
1710999920429,1710999913994,1739547,0
1710999920429,1710999914034,1740179,0
1710999920429,1710999914074,1741398,0
1710999920429,1710999914114,1743496,0
1710999920429,1710999914154,1746045,0
1710999920429,1710999914194,1748956,0
1710999920429,1710999914235,1751930,0
1710999920429,1710999914274,1755262,0
1710999920429,1710999914314,1758592,0
1710999920429,1710999914355,1761671,0
1710999920429,1710999914395,1764874,0
1710999920429,1710999914435,1767856,0
1710999920429,1710999914475,1770994,0
1710999920429,1710999914515,1773944,0
1710999920429,1710999914555,1773014,0
1710999920429,1710999914595,1764303,0
1710999920429,1710999914636,1756828,0
1710999920429,1710999914675,1752406,0
1710999920429,1710999914715,1750268,0
1710999920429,1710999914755,1749675,0
1710999920429,1710999914796,1750001,0
1710999920429,1710999914836,1749722,0
1710999920429,1710999914876,1748999,0
1710999920429,1710999914916,1748515,0
1710999920429,1710999914956,1748873,0
1710999920429,1710999914996,1750104,0
1710999920429,1710999915037,1751962,0
1710999920429,1710999915076,1754048,0
1710999920429,1710999915116,1756517,0
1710999920429,1710999915157,1759036,0
1710999920429,1710999915197,1761448,0
1710999920429,1710999915237,1763889,0
1710999920429,1710999915277,1766478,0
1710999920429,1710999915317,1769078,0
1710999920429,1710999915357,1771868,0
1710999920429,1710999915397,1773246,0
1710999920429,1710999915438,1766734,0
1710999920429,1710999915477,1758195,0
1710999920429,1710999915517,1752738,0
1710999920429,1710999915558,1749768,0
1710999920429,1710999915598,1748150,0
1710999920429,1710999915639,1748265,0
1710999920429,1710999915678,1747956,0
1710999920429,1710999915718,1747307,0
1710999920429,1710999915758,1746583,0
1710999920429,1710999915798,1746489,0
1710999920429,1710999915839,1747373,0
1710999920429,1710999915878,1748973,0
1710999920429,1710999915919,1751103,0
1710999920429,1710999915959,1753468,0
1710999920429,1710999915999,1755888,0
1710999920429,1710999916040,1758389,0
1710999920429,1710999916079,1760759,0
1710999920429,1710999916119,1763128,0
1710999920429,1710999916159,1765738,0
1710999920429,1710999916199,1768269,0
1710999920429,1710999916240,1767154,0
1710999920429,1710999916280,1759205,0
1710999920429,1710999916320,1751893,0
1710999920429,1710999916360,1748036,0
1710999920429,1710999916400,1746213,0
1710999920429,1710999916441,1746271,0
1710999920429,1710999916480,1746955,0
1710999920429,1710999916520,1746895,0
1710999920429,1710999916560,1746144,0
1710999920429,1710999916601,1745772,0
1710999920429,1710999916642,1746378,0
1710999920429,1710999916681,1748001,0
1710999920429,1710999916721,1750036,0
1710999920429,1710999916761,1752346,0
1710999920429,1710999916801,1754883,0
1710999920429,1710999916842,1757404,0
1710999920429,1710999916882,1759764,0
1710999920429,1710999916922,1762140,0
1710999920429,1710999916962,1764629,0
1710999920429,1710999917002,1765225,0
1710999920429,1710999917043,1758492,0
1710999920429,1710999917082,1750278,0
1710999920429,1710999917122,1744782,0
1710999920429,1710999917162,1741818,0
1710999920429,1710999917203,1740456,0
1710999920429,1710999917244,1740628,0
1710999920429,1710999917283,1740538,0
1710999920429,1710999917323,1739951,0
1710999920429,1710999917363,1739299,0
1710999920429,1710999917403,1739256,0
1710999920429,1710999917444,1740085,0
1710999920429,1710999917484,1741619,0
1710999920429,1710999917524,1743569,0
1710999920429,1710999917564,1745787,0
1710999920429,1710999917604,1748100,0
1710999920429,1710999917645,1750305,0
1710999920429,1710999917684,1752719,0
1710999920429,1710999917725,1755267,0
1710999920429,1710999917765,1758014,0
1710999920429,1710999917805,1759510,0
1710999920429,1710999917846,1753376,0
1710999920429,1710999917885,1743654,0
1710999920429,1710999917925,1736084,0
1710999920429,1710999917965,1731129,0
1710999920429,1710999918005,1727689,0
1710999920429,1710999918046,1726302,0
1710999920429,1710999918086,1725610,0
1710999920429,1710999918126,1724830,0
1710999920429,1710999918166,1723877,0
1710999920429,1710999918206,1723307,0
1710999920429,1710999918247,1723812,0
1710999920429,1710999918286,1724954,0
1710999920429,1710999918327,1726612,0
1710999920429,1710999918367,1728769,0
1710999920429,1710999918407,1730977,0
1710999920429,1710999918448,1733302,0
1710999920429,1710999918487,1735652,0
1710999920429,1710999918527,1738071,0
1710999920429,1710999918567,1740653,0
1710999920429,1710999918607,1743393,0
1710999920429,1710999918648,1746312,0
1710999920429,1710999918688,1747497,0
1710999920429,1710999918728,1740109,0
1710999920429,1710999918768,1730081,0
1710999920429,1710999918808,1722573,0
1710999920429,1710999918849,1717572,0
1710999920429,1710999918888,1714194,0
1710999920429,1710999918929,1712935,0
1710999920429,1710999918969,1712478,0
1710999920429,1710999919009,1711618,0
1710999920429,1710999919050,1710488,0
1710999920429,1710999919089,1710241,0
1710999920429,1710999919129,1710883,0
1710999920429,1710999919170,1712511,0
1710999920429,1710999919210,1714498,0
1710999920429,1710999919250,1716885,0
1710999920429,1710999919290,1722094,0
1710999920429,1710999919330,1724699,0
1710999920429,1710999919370,1727617,0
1710999920429,1710999919410,1730372,0
1710999920429,1710999919451,1733377,0
1710999920429,1710999919490,1736654,0
1710999920429,1710999919530,1739994,0
1710999920429,1710999919570,1741963,0
1710999920429,1710999919610,1736175,0
1710999920429,1710999919651,1727262,0
1710999920429,1710999919691,1720435,0
1710999920429,1710999919731,1716492,0
1710999920429,1710999919771,1713838,0
1710999920429,1710999919811,1713295,0
1710999920429,1710999919852,1713431,0
1710999920429,1710999919891,1713243,0
1710999920429,1710999919931,1712876,0
1710999920429,1710999919971,1713169,0
1710999920429,1710999920012,1714456,0
1710999920429,1710999920052,1716405,0
1710999920429,1710999920092,1718794,0
1710999920429,1710999920132,1721559,0
1710999920429,1710999920172,1724477,0
1710999920429,1710999920212,1727703,0
1710999920429,1710999920253,1730750,0
1710999920429,1710999920292,1734100,0
1710999920429,1710999920332,1737353,0
1710999932462,1710999920371,1740758,0
1710999932462,1710999920411,1744419,0
1710999932462,1710999920452,1748175,0
1710999932462,1710999920492,1751849,0
1710999932462,1710999920532,1752588,0
1710999932462,1710999920572,1745970,0
1710999932462,1710999920612,1738971,0
1710999932462,1710999920653,1734864,0
1710999932462,1710999920692,1733071,0
1710999932462,1710999920732,1732783,0
1710999932462,1710999920772,1733523,0
1710999932462,1710999920813,1734257,0
1710999932462,1710999920853,1734139,0
1710999932462,1710999920893,1734102,0
1710999932462,1710999920933,1734809,0
1710999932462,1710999920973,1736301,0
1710999932462,1710999921013,1738430,0
1710999932462,1710999921054,1740890,0
1710999932462,1710999921093,1743457,0
1710999932462,1710999921133,1746255,0
1710999932462,1710999921174,1749054,0
1710999932462,1710999921214,1752086,0
1710999932462,1710999921254,1754863,0
1710999932462,1710999921294,1758158,0
1710999932462,1710999921334,1761241,0
1710999932462,1710999921374,1764516,0
1710999932462,1710999921414,1764480,0
1710999932462,1710999921455,1757893,0
1710999932462,1710999921494,1751745,0
1710999932462,1710999921535,1748277,0
1710999932462,1710999921575,1746882,0
1710999932462,1710999921615,1746929,0
1710999932462,1710999921655,1747878,0
1710999932462,1710999921695,1748815,0
1710999932462,1710999921735,1749173,0
1710999932462,1710999921775,1749568,0
1710999932462,1710999921815,1750566,0
1710999932462,1710999921856,1752321,0
1710999932462,1710999921895,1754496,0
1710999932462,1710999921936,1757249,0
1710999932462,1710999921976,1760047,0
1710999932462,1710999922016,1763128,0
1710999932462,1710999922057,1766105,0
1710999932462,1710999922096,1769076,0
1710999932462,1710999922136,1772132,0
1710999932462,1710999922176,1775239,0
1710999932462,1710999922216,1778448,0
1710999932462,1710999922257,1781821,0
1710999932462,1710999922297,1784402,0
1710999932462,1710999922337,1779896,0
1710999932462,1710999922377,1772518,0
1710999932462,1710999922417,1767629,0
1710999932462,1710999922458,1765329,0
1710999932462,1710999922497,1764407,0
1710999932462,1710999922537,1764768,0
1710999932462,1710999922577,1765662,0
1710999932462,1710999922617,1766250,0
1710999932462,1710999922658,1766476,0
1710999932462,1710999922698,1766897,0
1710999932462,1710999922738,1768101,0
1710999932462,1710999922778,1769938,0
1710999932462,1710999922818,1772200,0
1710999932462,1710999922859,1774661,0
1710999932462,1710999922898,1777504,0
1710999932462,1710999922938,1780127,0
1710999932462,1710999922979,1782784,0
1710999932462,1710999923019,1785439,0
1710999932462,1710999923059,1788558,0
1710999932462,1710999923099,1791388,0
1710999932462,1710999923139,1794388,0
1710999932462,1710999923179,1797706,0
1710999932462,1710999923219,1800239,0
1710999932462,1710999923260,1796205,0
1710999932462,1710999923299,1788718,0
1710999932462,1710999923340,1783422,0
1710999932462,1710999923380,1780752,0
1710999932462,1710999923420,1779767,0
1710999932462,1710999923461,1779849,0
1710999932462,1710999923500,1780557,0
1710999932462,1710999923540,1781065,0
1710999932462,1710999923580,1781190,0
1710999932462,1710999923621,1781696,0
1710999932462,1710999923661,1782846,0
1710999932462,1710999923701,1784387,0
1710999932462,1710999923741,1786475,0
1710999932462,1710999923781,1788862,0
1710999932462,1710999923821,1791500,0
1710999932462,1710999923862,1794399,0
1710999932462,1710999923901,1797279,0
1710999932462,1710999923941,1800298,0
1710999932462,1710999923982,1803544,0
1710999932462,1710999924022,1806667,0
1710999932462,1710999924063,1809837,0
1710999932462,1710999924102,1813062,0
1710999932462,1710999924142,1815984,0
1710999932462,1710999924182,1814522,0
1710999932462,1710999924222,1807008,0
1710999932462,1710999924263,1801385,0
1710999932462,1710999924302,1799200,0
1710999932462,1710999924343,1798551,0
1710999932462,1710999924383,1799170,0
1710999932462,1710999924423,1800879,0
1710999932462,1710999924464,1802377,0
1710999932462,1710999924503,1803392,0
1710999932462,1710999924543,1804258,0
1710999932462,1710999924584,1805606,0
1710999932462,1710999924624,1807650,0
1710999932462,1710999924664,1809793,0
1710999932462,1710999924704,1812305,0
1710999932462,1710999924744,1815283,0
1710999932462,1710999924784,1817942,0
1710999932462,1710999924825,1820922,0
1710999932462,1710999924865,1823686,0
1710999932462,1710999924905,1826314,0
1710999932462,1710999924945,1829028,0
1710999932462,1710999924985,1831475,0
1710999932462,1710999925025,1829322,0
1710999932462,1710999925066,1821632,0
1710999932462,1710999925105,1816006,0
1710999932462,1710999925146,1813341,0
1710999932462,1710999925186,1812427,0
1710999932462,1710999925226,1813198,0
1710999932462,1710999925267,1813977,0
1710999932462,1710999925306,1814286,0
1710999932462,1710999925346,1814072,0
1710999932462,1710999925387,1814088,0
1710999932462,1710999925427,1814758,0
1710999932462,1710999925467,1816434,0
1710999932462,1710999925507,1818396,0
1710999932462,1710999925547,1820730,0
1710999932462,1710999925587,1822803,0
1710999932462,1710999925627,1825139,0
1710999932462,1710999925668,1827221,0
1710999932462,1710999925707,1829636,0
1710999932462,1710999925747,1831765,0
1710999932462,1710999925787,1830294,0
1710999932462,1710999925827,1822226,0
1710999932462,1710999925868,1814797,0
1710999932462,1710999925908,1810365,0
1710999932462,1710999925948,1807682,0
1710999932462,1710999925988,1806601,0
1710999932462,1710999926028,1806505,0
1710999932462,1710999926069,1806268,0
1710999932462,1710999926108,1805588,0
1710999932462,1710999926148,1804881,0
1710999932462,1710999926188,1805013,0
1710999932462,1710999926228,1805877,0
1710999932462,1710999926269,1807452,0
1710999932462,1710999926308,1809284,0
1710999932462,1710999926348,1811290,0
1710999932462,1710999926389,1813337,0
1710999932462,1710999926429,1815412,0
1710999932462,1710999926469,1817496,0
1710999932462,1710999926509,1819685,0
1710999932462,1710999926549,1820872,0
1710999932462,1710999926589,1815007,0
1710999932462,1710999926629,1806035,0
1710999932462,1710999926670,1799130,0
1710999932462,1710999926709,1794739,0
1710999932462,1710999926749,1791806,0
1710999932462,1710999926789,1790551,0
1710999932462,1710999926829,1790146,0
1710999932462,1710999926870,1789175,0
1710999932462,1710999926910,1788039,0
1710999932462,1710999926950,1787366,0
1710999932462,1710999926990,1787557,0
1710999932462,1710999927030,1788405,0
1710999932462,1710999927071,1789997,0
1710999932462,1710999927110,1791567,0
1710999932462,1710999927150,1793422,0
1710999932462,1710999927191,1795121,0
1710999932462,1710999927231,1796915,0
1710999932462,1710999927271,1798922,0
1710999932462,1710999927311,1801003,0
1710999932462,1710999927351,1803377,0
1710999932462,1710999927391,1805721,0
1710999932462,1710999927431,1804241,0
1710999932462,1710999927472,1795557,0
1710999932462,1710999927511,1787022,0
1710999932462,1710999927551,1781538,0
1710999932462,1710999927592,1778270,0
1710999932462,1710999927632,1776726,0
1710999932462,1710999927673,1776781,0
1710999932462,1710999927712,1776370,0
1710999932462,1710999927752,1775746,0
1710999932462,1710999927792,1775363,0
1710999932462,1710999927832,1775667,0
1710999932462,1710999927873,1776703,0
1710999932462,1710999927912,1778084,0
1710999932462,1710999927953,1779593,0
1710999932462,1710999927993,1781436,0
1710999932462,1710999928033,1783628,0
1710999932462,1710999928074,1786184,0
1710999932462,1710999928113,1789083,0
1710999932462,1710999928153,1791922,0
1710999932462,1710999928193,1794381,0
1710999932462,1710999928233,1797104,0
1710999932462,1710999928274,1799662,0
1710999932462,1710999928314,1798224,0
1710999932462,1710999928354,1790474,0
1710999932462,1710999928394,1783381,0
1710999932462,1710999928434,1778795,0
1710999932462,1710999928475,1775726,0
1710999932462,1710999928514,1774317,0
1710999932462,1710999928554,1774405,0
1710999932462,1710999928594,1774331,0
1710999932462,1710999928634,1773845,0
1710999932462,1710999928675,1773124,0
1710999932462,1710999928715,1773118,0
1710999932462,1710999928755,1773875,0
1710999932462,1710999928795,1775540,0
1710999932462,1710999928835,1778047,0
1710999932462,1710999928876,1780489,0
1710999932462,1710999928915,1783189,0
1710999932462,1710999928956,1785149,0
1710999932462,1710999928996,1786950,0
1710999932462,1710999929036,1789121,0
1710999932462,1710999929077,1791305,0
1710999932462,1710999929116,1791072,0
1710999932462,1710999929156,1784987,0
1710999932462,1710999929196,1778047,0
1710999932462,1710999929236,1773233,0
1710999932462,1710999929277,1770723,0
1710999932462,1710999929317,1770012,0
1710999932462,1710999929357,1770199,0
1710999932462,1710999929397,1770278,0
1710999932462,1710999929437,1769619,0
1710999932462,1710999929478,1768878,0
1710999932462,1710999929517,1769050,0
1710999932462,1710999929557,1769781,0
1710999932462,1710999929598,1771325,0
1710999932462,1710999929638,1773375,0
1710999932462,1710999929678,1775793,0
1710999932462,1710999929718,1777838,0
1710999932462,1710999929758,1780106,0
1710999932462,1710999929798,1782234,0
1710999932462,1710999929838,1784756,0
1710999932462,1710999929879,1787365,0
1710999932462,1710999929918,1787054,0
1710999932462,1710999929959,1779864,0
1710999932462,1710999929999,1771765,0
1710999932462,1710999930039,1766292,0
1710999932462,1710999930080,1762737,0
1710999932462,1710999930119,1760614,0
1710999932462,1710999930159,1760161,0
1710999932462,1710999930199,1759813,0
1710999932462,1710999930240,1759293,0
1710999932462,1710999930280,1759092,0
1710999932462,1710999930320,1759854,0
1710999932462,1710999930360,1761208,0
1710999932462,1710999930400,1763036,0
1710999932462,1710999930440,1765382,0
1710999932462,1710999930481,1768234,0
1710999932462,1710999930521,1771086,0
1710999932462,1710999930561,1773873,0
1710999932462,1710999930601,1777090,0
1710999932462,1710999930641,1780355,0
1710999932462,1710999930682,1783778,0
1710999932462,1710999930721,1787385,0
1710999932462,1710999930761,1787648,0
1710999932462,1710999930801,1780433,0
1710999932462,1710999930842,1773295,0
1710999932462,1710999930883,1768365,0
1710999932462,1710999930922,1764389,0
1710999932462,1710999930962,1761560,0
1710999932462,1710999931002,1760712,0
1710999932462,1710999931042,1760590,0
1710999932462,1710999931083,1760275,0
1710999932462,1710999931123,1760059,0
1710999932462,1710999931163,1760863,0
1710999932462,1710999931203,1762193,0
1710999932462,1710999931243,1763951,0
1710999932462,1710999931284,1765812,0
1710999932462,1710999931323,1767970,0
1710999932462,1710999931363,1770162,0
1710999932462,1710999931404,1772841,0
1710999932462,1710999931444,1775801,0
1710999932462,1710999931485,1778087,0
1710999932462,1710999931524,1780206,0
1710999932462,1710999931564,1781798,0
1710999932462,1710999931604,1769177,0
1710999932462,1710999931644,1763296,0
1710999932462,1710999931685,1760091,0
1710999932462,1710999931725,1757921,0
1710999932462,1710999931765,1757026,0
1710999932462,1710999931805,1756873,0
1710999932462,1710999931845,1756448,0
1710999932462,1710999931886,1755818,0
1710999932462,1710999931925,1756052,0
1710999932462,1710999931965,1757020,0
1710999932462,1710999932005,1758380,0
1710999932462,1710999932045,1760382,0
1710999932462,1710999932086,1762601,0
1710999932462,1710999932125,1765050,0
1710999932462,1710999932166,1767564,0
1710999932462,1710999932206,1770272,0
1710999932462,1710999932246,1773249,0
1710999932462,1710999932287,1776838,0
1710999932462,1710999932326,1780619,0
1710999932462,1710999932366,1782634,0
1710999944490,1710999932407,1777429,0
1710999944490,1710999932447,1770354,0
1710999944490,1710999932488,1765820,0
1710999944490,1710999932528,1763336,0
1710999944490,1710999932568,1762275,0
1710999944490,1710999932608,1762801,0
1710999944490,1710999932648,1763344,0
1710999944490,1710999932689,1763511,0
1710999944490,1710999932728,1763720,0
1710999944490,1710999932768,1764192,0
1710999944490,1710999932808,1765592,0
1710999944490,1710999932848,1767517,0
1710999944490,1710999932889,1769645,0
1710999944490,1710999932929,1771957,0
1710999944490,1710999932969,1774440,0
1710999944490,1710999933009,1776959,0
1710999944490,1710999933049,1779857,0
1710999944490,1710999933090,1782460,0
1710999944490,1710999933129,1781345,0
1710999944490,1710999933169,1775219,0
1710999944490,1710999933209,1769985,0
1710999944490,1710999933250,1767256,0
1710999944490,1710999933290,1766530,0
1710999944490,1710999933330,1767498,0
1710999944490,1710999933370,1768786,0
1710999944490,1710999933410,1769586,0
1710999944490,1710999933450,1769893,0
1710999944490,1710999933491,1770398,0
1710999944490,1710999933530,1771762,0
1710999944490,1710999933570,1773441,0
1710999944490,1710999933611,1775589,0
1710999944490,1710999933651,1778107,0
1710999944490,1710999933691,1781038,0
1710999944490,1710999933731,1783875,0
1710999944490,1710999933771,1786708,0
1710999944490,1710999933811,1789404,0
1710999944490,1710999933851,1790542,0
1710999944490,1710999933892,1784614,0
1710999944490,1710999933931,1776000,0
1710999944490,1710999933972,1769858,0
1710999944490,1710999934012,1766702,0
1710999944490,1710999934052,1764711,0
1710999944490,1710999934093,1763985,0
1710999944490,1710999934132,1763750,0
1710999944490,1710999934172,1762963,0
1710999944490,1710999934212,1761962,0
1710999944490,1710999934252,1761910,0
1710999944490,1710999934293,1762733,0
1710999944490,1710999934333,1764154,0
1710999944490,1710999934373,1766058,0
1710999944490,1710999934413,1768109,0
1710999944490,1710999934453,1770325,0
1710999944490,1710999934494,1772573,0
1710999944490,1710999934533,1774596,0
1710999944490,1710999934573,1776953,0
1710999944490,1710999934613,1779690,0
1710999944490,1710999934653,1782303,0
1710999944490,1710999934694,1779417,0
1710999944490,1710999934734,1770975,0
1710999944490,1710999934774,1763813,0
1710999944490,1710999934814,1759699,0
1710999944490,1710999934854,1756985,0
1710999944490,1710999934895,1756043,0
1710999944490,1710999934934,1755852,0
1710999944490,1710999934974,1755328,0
1710999944490,1710999935015,1754777,0
1710999944490,1710999935055,1754729,0
1710999944490,1710999935095,1755541,0
1710999944490,1710999935135,1757271,0
1710999944490,1710999935175,1759384,0
1710999944490,1710999935215,1761780,0
1710999944490,1710999935255,1764425,0
1710999944490,1710999935296,1767578,0
1710999944490,1710999935336,1771390,0
1710999944490,1710999935376,1775495,0
1710999944490,1710999935416,1779528,0
1710999944490,1710999935456,1783261,0
1710999944490,1710999935497,1786372,0
1710999944490,1710999935536,1787360,0
1710999944490,1710999935576,1778911,0
1710999944490,1710999935616,1768844,0
1710999944490,1710999935657,1762132,0
1710999944490,1710999935697,1757640,0
1710999944490,1710999935737,1754810,0
1710999944490,1710999935777,1753839,0
1710999944490,1710999935817,1753056,0
1710999944490,1710999935857,1751851,0
1710999944490,1710999935898,1750854,0
1710999944490,1710999935937,1750573,0
1710999944490,1710999935977,1751253,0
1710999944490,1710999936018,1752683,0
1710999944490,1710999936058,1754668,0
1710999944490,1710999936099,1756963,0
1710999944490,1710999936138,1759685,0
1710999944490,1710999936178,1762059,0
1710999944490,1710999936218,1764423,0
1710999944490,1710999936259,1766464,0
1710999944490,1710999936299,1768267,0
1710999944490,1710999936339,1770029,0
1710999944490,1710999936379,1771762,0
1710999944490,1710999936419,1768617,0
1710999944490,1710999936459,1759067,0
1710999944490,1710999936500,1750892,0
1710999944490,1710999936539,1746280,0
1710999944490,1710999936579,1744236,0
1710999944490,1710999936620,1744025,0
1710999944490,1710999936660,1744314,0
1710999944490,1710999936701,1743928,0
1710999944490,1710999936740,1743036,0
1710999944490,1710999936780,1742886,0
1710999944490,1710999936820,1743592,0
1710999944490,1710999936860,1745455,0
1710999944490,1710999936901,1748604,0
1710999944490,1710999936941,1752759,0
1710999944490,1710999936981,1757416,0
1710999944490,1710999937021,1763008,0
1710999944490,1710999937061,1768358,0
1710999944490,1710999937102,1774058,0
1710999944490,1710999937141,1779224,0
1710999944490,1710999937182,1780902,0
1710999944490,1710999937222,1774348,0
1710999944490,1710999937262,1768394,0
1710999944490,1710999937303,1765281,0
1710999944490,1710999937342,1764364,0
1710999944490,1710999937382,1765237,0
1710999944490,1710999937423,1766572,0
1710999944490,1710999937463,1767440,0
1710999944490,1710999937504,1767762,0
1710999944490,1710999937543,1768661,0
1710999944490,1710999937583,1770405,0
1710999944490,1710999937623,1772652,0
1710999944490,1710999937663,1775229,0
1710999944490,1710999937704,1778001,0
1710999944490,1710999937743,1781001,0
1710999944490,1710999937783,1783920,0
1710999944490,1710999937824,1786852,0
1710999944490,1710999937863,1789708,0
1710999944490,1710999937904,1792915,0
1710999944490,1710999937944,1795312,0
1710999944490,1710999937984,1790472,0
1710999944490,1710999938024,1781753,0
1710999944490,1710999938064,1776482,0
1710999944490,1710999938105,1774271,0
1710999944490,1710999938144,1773508,0
1710999944490,1710999938184,1774322,0
1710999944490,1710999938224,1775364,0
1710999944490,1710999938264,1775806,0
1710999944490,1710999938305,1776288,0
1710999944490,1710999938345,1777117,0
1710999944490,1710999938385,1778685,0
1710999944490,1710999938425,1780984,0
1710999944490,1710999938465,1783441,0
1710999944490,1710999938506,1786264,0
1710999944490,1710999938545,1789056,0
1710999944490,1710999938585,1791952,0
1710999944490,1710999938625,1794774,0
1710999944490,1710999938665,1797504,0
1710999944490,1710999938706,1800519,0
1710999944490,1710999938746,1803519,0
1710999944490,1710999938786,1805786,0
1710999944490,1710999938826,1800773,0
1710999944490,1710999938866,1790922,0
1710999944490,1710999938907,1784210,0
1710999944490,1710999938946,1780875,0
1710999944490,1710999938986,1779721,0
1710999944490,1710999939026,1780111,0
1710999944490,1710999939066,1780879,0
1710999944490,1710999939107,1781331,0
1710999944490,1710999939146,1781332,0
1710999944490,1710999939186,1781729,0
1710999944490,1710999939226,1782809,0
1710999944490,1710999939267,1784366,0
1710999944490,1710999939307,1786511,0
1710999944490,1710999939347,1789091,0
1710999944490,1710999939387,1791628,0
1710999944490,1710999939427,1794324,0
1710999944490,1710999939467,1797128,0
1710999944490,1710999939508,1799897,0
1710999944490,1710999939547,1802628,0
1710999944490,1710999939587,1805695,0
1710999944490,1710999939628,1808684,0
1710999944490,1710999939668,1809225,0
1710999944490,1710999939708,1801857,0
1710999944490,1710999939748,1794467,0
1710999944490,1710999939788,1790827,0
1710999944490,1710999939828,1789518,0
1710999944490,1710999939868,1790151,0
1710999944490,1710999939909,1791433,0
1710999944490,1710999939948,1792664,0
1710999944490,1710999939989,1793431,0
1710999944490,1710999940028,1794333,0
1710999944490,1710999940069,1795647,0
1710999944490,1710999940110,1797462,0
1710999944490,1710999940149,1799953,0
1710999944490,1710999940189,1802747,0
1710999944490,1710999940229,1805638,0
1710999944490,1710999940269,1808470,0
1710999944490,1710999940310,1811362,0
1710999944490,1710999940349,1813986,0
1710999944490,1710999940389,1816487,0
1710999944490,1710999940429,1818961,0
1710999944490,1710999940470,1819538,0
1710999944490,1710999940510,1813525,0
1710999944490,1710999940550,1806228,0
1710999944490,1710999940590,1801744,0
1710999944490,1710999940630,1799975,0
1710999944490,1710999940670,1800152,0
1710999944490,1710999940711,1800756,0
1710999944490,1710999940750,1800823,0
1710999944490,1710999940790,1800189,0
1710999944490,1710999940831,1800887,0
1710999944490,1710999940871,1802217,0
1710999944490,1710999940911,1803741,0
1710999944490,1710999940951,1806433,0
1710999944490,1710999940991,1810093,0
1710999944490,1710999941031,1814764,0
1710999944490,1710999941071,1819047,0
1710999944490,1710999941112,1822898,0
1710999944490,1710999941151,1826398,0
1710999944490,1710999941192,1828679,0
1710999944490,1710999941232,1826350,0
1710999944490,1710999941272,1819479,0
1710999944490,1710999941313,1814739,0
1710999944490,1710999941352,1812593,0
1710999944490,1710999941392,1812020,0
1710999944490,1710999941432,1812958,0
1710999944490,1710999941472,1814189,0
1710999944490,1710999941513,1816039,0
1710999944490,1710999941553,1818235,0
1710999944490,1710999941593,1819765,0
1710999944490,1710999941633,1818409,0
1710999944490,1710999941673,1815419,0
1710999944490,1710999941714,1813752,0
1710999944490,1710999941753,1813867,0
1710999944490,1710999941793,1814890,0
1710999944490,1710999941833,1815998,0
1710999944490,1710999941874,1817023,0
1710999944490,1710999941914,1817793,0
1710999944490,1710999941954,1811365,0
1710999944490,1710999941994,1799443,0
1710999944490,1710999942034,1789234,0
1710999944490,1710999942074,1782843,0
1710999944490,1710999942115,1779081,0
1710999944490,1710999942154,1777455,0
1710999944490,1710999942195,1777219,0
1710999944490,1710999942235,1776758,0
1710999944490,1710999942275,1776433,0
1710999944490,1710999942316,1776828,0
1710999944490,1710999942355,1778226,0
1710999944490,1710999942395,1780428,0
1710999944490,1710999942435,1783484,0
1710999944490,1710999942475,1786754,0
1710999944490,1710999942516,1790302,0
1710999944490,1710999942556,1793648,0
1710999944490,1710999942596,1797221,0
1710999944490,1710999942636,1800686,0
1710999944490,1710999942676,1804052,0
1710999944490,1710999942717,1806169,0
1710999944490,1710999942756,1801918,0
1710999944490,1710999942796,1794349,0
1710999944490,1710999942837,1789441,0
1710999944490,1710999942877,1787038,0
1710999944490,1710999942917,1785992,0
1710999944490,1710999942957,1785899,0
1710999944490,1710999942997,1785484,0
1710999944490,1710999943037,1784293,0
1710999944490,1710999943077,1783046,0
1710999944490,1710999943118,1783026,0
1710999944490,1710999943158,1783952,0
1710999944490,1710999943198,1785565,0
1710999944490,1710999943238,1787814,0
1710999944490,1710999943278,1790944,0
1710999944490,1710999943319,1795745,0
1710999944490,1710999943358,1803261,0
1710999944490,1710999943398,1810570,0
1710999944490,1710999943438,1816565,0
1710999944490,1710999943479,1821382,0
1710999944490,1710999943519,1826849,0
1710999944490,1710999943559,1831294,0
1710999944490,1710999943599,1832500,0
1710999944490,1710999943639,1832672,0
1710999944490,1710999943679,1833945,0
1710999944490,1710999943720,1837503,0
1710999944490,1710999943759,1842879,0
1710999944490,1710999943799,1851685,0
1710999944490,1710999943840,1862027,0
1710999944490,1710999943880,1872687,0
1710999944490,1710999943921,1883042,0
1710999944490,1710999943960,1892510,0
1710999944490,1710999944000,1901995,0
1710999944490,1710999944040,1911140,0
1710999944490,1710999944081,1919178,0
1710999944490,1710999944121,1927056,0
1710999944490,1710999944161,1934779,0
1710999944490,1710999944201,1950789,0
1710999944490,1710999944241,1958904,0
1710999944490,1710999944281,1966128,0
1710999944490,1710999944322,1972571,0
1710999944490,1710999944361,1979894,0
1710999944490,1710999944401,1986869,0
1710999956479,1710999944436,1992878,0
1710999956479,1710999944476,2002196,0
1710999956479,1710999944517,2009886,0
1710999956479,1710999944557,2014638,0
1710999956479,1710999944597,2017501,0
1710999956479,1710999944637,2022102,0
1710999956479,1710999944677,2027861,0
1710999956479,1710999944718,2031453,0
1710999956479,1710999944757,2034512,0
1710999956479,1710999944797,2038325,0
1710999956479,1710999944837,2040892,0
1710999956479,1710999944877,2043425,0
1710999956479,1710999944918,2045635,0
1710999956479,1710999944957,2047977,0
1710999956479,1710999944997,2050800,0
1710999956479,1710999945038,2053245,0
1710999956479,1710999945078,2056407,0
1710999956479,1710999945118,2059890,0
1710999956479,1710999945158,2063505,0
1710999956479,1710999945198,2066882,0
1710999956479,1710999945238,2069996,0
1710999956479,1710999945278,2072687,0
1710999956479,1710999945319,2075251,0
1710999956479,1710999945358,2077098,0
1710999956479,1710999945398,2078080,0
1710999956479,1710999945438,2079145,0
1710999956479,1710999945479,2080233,0
1710999956479,1710999945519,2081385,0
1710999956479,1710999945559,2082838,0
1710999956479,1710999945599,2084057,0
1710999956479,1710999945639,2085226,0
1710999956479,1710999945679,2086284,0
1710999956479,1710999945720,2087429,0
1710999956479,1710999945759,2088593,0
1710999956479,1710999945799,2089750,0
1710999956479,1710999945840,2090922,0
1710999956479,1710999945880,2092192,0
1710999956479,1710999945920,2093372,0
1710999956479,1710999945960,2094259,0
1710999956479,1710999946000,2095084,0
1710999956479,1710999946040,2096219,0
1710999956479,1710999946080,2097531,0
1710999956479,1710999946121,2098731,0
1710999956479,1710999946160,2099962,0
1710999956479,1710999946200,2100908,0
1710999956479,1710999946241,2102187,0
1710999956479,1710999946281,2103092,0
1710999956479,1710999946321,2104091,0
1710999956479,1710999946361,2105103,0
1710999956479,1710999946401,2106124,0
1710999956479,1710999946441,2107177,0
1710999956479,1710999946481,2108355,0
1710999956479,1710999946522,2109585,0
1710999956479,1710999946561,2110405,0
1710999956479,1710999946602,2111373,0
1710999956479,1710999946641,2112332,0
1710999956479,1710999946682,2113652,0
1710999956479,1710999946722,2114716,0
1710999956479,1710999946762,2116893,0
1710999956479,1710999946802,2119405,0
1710999956479,1710999946842,2122304,0
1710999956479,1710999946882,2124728,0
1710999956479,1710999946923,2126273,0
1710999956479,1710999946963,2126780,0
1710999956479,1710999947002,2126646,0
1710999956479,1710999947043,2125216,0
1710999956479,1710999947083,2122802,0
1710999956479,1710999947123,2118881,0
1710999956479,1710999947163,2114276,0
1710999956479,1710999947203,2110627,0
1710999956479,1710999947243,2108551,0
1710999956479,1710999947283,2106896,0
1710999956479,1710999947324,2105552,0
1710999956479,1710999947363,2105020,0
1710999956479,1710999947404,2104962,0
1710999956479,1710999947444,2106235,0
1710999956479,1710999947484,2108320,0
1710999956479,1710999947525,2109782,0
1710999956479,1710999947564,2110770,0
1710999956479,1710999947604,2110108,0
1710999956479,1710999947644,2109187,0
1710999956479,1710999947684,2108669,0
1710999956479,1710999947725,2108937,0
1710999956479,1710999947765,2109866,0
1710999956479,1710999947805,2109433,0
1710999956479,1710999947845,2110503,0
1710999956479,1710999947885,2113055,0
1710999956479,1710999947926,2115817,0
1710999956479,1710999947965,2117750,0
1710999956479,1710999948005,2119204,0
1710999956479,1710999948045,2120890,0
1710999956479,1710999948085,2122642,0
1710999956479,1710999948126,2123678,0
1710999956479,1710999948166,2124251,0
1710999956479,1710999948206,2124563,0
1710999956479,1710999948246,2125106,0
1710999956479,1710999948286,2125534,0
1710999956479,1710999948327,2125670,0
1710999956479,1710999948366,2125779,0
1710999956479,1710999948406,2125239,0
1710999956479,1710999948446,2125317,0
1710999956479,1710999948487,2124865,0
1710999956479,1710999948528,2124058,0
1710999956479,1710999948567,2123556,0
1710999956479,1710999948607,2123427,0
1710999956479,1710999948647,2123736,0
1710999956479,1710999948687,2124065,0
1710999956479,1710999948728,2124459,0
1710999956479,1710999948767,2124761,0
1710999956479,1710999948808,2125125,0
1710999956479,1710999948848,2124815,0
1710999956479,1710999948888,2123529,0
1710999956479,1710999948929,2122368,0
1710999956479,1710999948968,2121972,0
1710999956479,1710999949008,2122102,0
1710999956479,1710999949048,2122488,0
1710999956479,1710999949088,2122982,0
1710999956479,1710999949129,2123337,0
1710999956479,1710999949169,2123633,0
1710999956479,1710999949209,2123552,0
1710999956479,1710999949249,2123260,0
1710999956479,1710999949289,2123300,0
1710999956479,1710999949330,2123351,0
1710999956479,1710999949369,2123420,0
1710999956479,1710999949409,2123394,0
1710999956479,1710999949449,2122384,0
1710999956479,1710999949490,2121519,0
1710999956479,1710999949531,2121012,0
1710999956479,1710999949570,2120944,0
1710999956479,1710999949610,2120948,0
1710999956479,1710999949650,2121254,0
1710999956479,1710999949690,2121481,0
1710999956479,1710999949731,2121609,0
1710999956479,1710999949771,2121778,0
1710999956479,1710999949811,2122083,0
1710999956479,1710999949851,2122238,0
1710999956479,1710999949891,2122809,0
1710999956479,1710999949932,2123161,0
1710999956479,1710999949971,2123509,0
1710999956479,1710999950011,2123866,0
1710999956479,1710999950051,2124221,0
1710999956479,1710999950092,2124703,0
1710999956479,1710999950132,2125184,0
1710999956479,1710999950172,2125613,0
1710999956479,1710999950212,2126186,0
1710999956479,1710999950252,2126682,0
1710999956479,1710999950292,2127261,0
1710999956479,1710999950333,2127758,0
1710999956479,1710999950372,2128327,0
1710999956479,1710999950412,2128795,0
1710999956479,1710999950453,2128597,0
1710999956479,1710999950493,2127544,0
1710999956479,1710999950534,2126669,0
1710999956479,1710999950573,2126159,0
1710999956479,1710999950613,2126109,0
1710999956479,1710999950653,2126469,0
1710999956479,1710999950693,2126860,0
1710999956479,1710999950734,2127376,0
1710999956479,1710999950773,2127901,0
1710999956479,1710999950814,2128408,0
1710999956479,1710999950854,2128990,0
1710999956479,1710999950894,2129498,0
1710999956479,1710999950935,2130223,0
1710999956479,1710999950974,2130806,0
1710999956479,1710999951014,2131372,0
1710999956479,1710999951054,2132000,0
1710999956479,1710999951094,2132648,0
1710999956479,1710999951135,2133407,0
1710999956479,1710999951174,2134195,0
1710999956479,1710999951215,2135117,0
1710999956479,1710999951255,2136038,0
1710999956479,1710999951295,2136626,0
1710999956479,1710999951336,2137441,0
1710999956479,1710999951375,2138110,0
1710999956479,1710999951415,2138551,0
1710999956479,1710999951455,2138979,0
1710999956479,1710999951495,2139177,0
1710999956479,1710999951536,2137568,0
1710999956479,1710999951575,2135922,0
1710999956479,1710999951615,2134288,0
1710999956479,1710999951656,2132810,0
1710999956479,1710999951696,2131644,0
1710999956479,1710999951736,2130316,0
1710999956479,1710999951776,2128859,0
1710999956479,1710999951816,2127633,0
1710999956479,1710999951856,2126819,0
1710999956479,1710999951896,2126239,0
1710999956479,1710999951937,2125674,0
1710999956479,1710999951976,2125226,0
1710999956479,1710999952017,2124577,0
1710999956479,1710999952057,2124197,0
1710999956479,1710999952097,2124504,0
1710999956479,1710999952138,2124698,0
1710999956479,1710999952177,2125104,0
1710999956479,1710999952217,2125410,0
1710999956479,1710999952257,2125413,0
1710999956479,1710999952297,2125488,0
1710999956479,1710999952338,2125352,0
1710999956479,1710999952377,2125451,0
1710999956479,1710999952417,2125357,0
1710999956479,1710999952458,2124209,0
1710999956479,1710999952498,2121329,0
1710999956479,1710999952538,2117810,0
1710999956479,1710999952578,2115164,0
1710999956479,1710999952618,2113152,0
1710999956479,1710999952658,2112108,0
1710999956479,1710999952698,2111289,0
1710999956479,1710999952739,2110423,0
1710999956479,1710999952778,2109458,0
1710999956479,1710999952818,2108610,0
1710999956479,1710999952859,2107986,0
1710999956479,1710999952899,2107557,0
1710999956479,1710999952939,2106944,0
1710999956479,1710999952979,2106067,0
1710999956479,1710999953019,2105304,0
1710999956479,1710999953059,2104509,0
1710999956479,1710999953099,2104196,0
1710999956479,1710999953140,2104440,0
1710999956479,1710999953179,2104969,0
1710999956479,1710999953220,2105720,0
1710999956479,1710999953260,2107005,0
1710999956479,1710999953300,2108111,0
1710999956479,1710999953341,2108958,0
1710999956479,1710999953380,2110312,0
1710999956479,1710999953420,2110033,0
1710999956479,1710999953460,2108051,0
1710999956479,1710999953500,2105646,0
1710999956479,1710999953541,2103908,0
1710999956479,1710999953581,2103002,0
1710999956479,1710999953621,2102527,0
1710999956479,1710999953661,2102577,0
1710999956479,1710999953701,2102932,0
1710999956479,1710999953742,2103834,0
1710999956479,1710999953781,2105088,0
1710999956479,1710999953821,2106239,0
1710999956479,1710999953861,2107718,0
1710999956479,1710999953901,2109384,0
1710999956479,1710999953942,2110778,0
1710999956479,1710999953982,2111811,0
1710999956479,1710999954022,2113046,0
1710999956479,1710999954062,2113776,0
1710999956479,1710999954102,2114065,0
1710999956479,1710999954143,2114137,0
1710999956479,1710999954182,2114129,0
1710999956479,1710999954222,2114055,0
1710999956479,1710999954262,2114153,0
1710999956479,1710999954303,2114238,0
1710999956479,1710999954343,2112303,0
1710999956479,1710999954383,2108967,0
1710999956479,1710999954423,2105996,0
1710999956479,1710999954463,2103813,0
1710999956479,1710999954503,2102476,0
1710999956479,1710999954544,2101558,0
1710999956479,1710999954583,2100259,0
1710999956479,1710999954624,2098698,0
1710999956479,1710999954664,2097200,0
1710999956479,1710999954704,2095799,0
1710999956479,1710999954745,2094826,0
1710999956479,1710999954784,2094119,0
1710999956479,1710999954824,2093828,0
1710999956479,1710999954864,2093456,0
1710999956479,1710999954904,2093327,0
1710999956479,1710999954945,2093304,0
1710999956479,1710999954984,2093953,0
1710999956479,1710999955025,2095010,0
1710999956479,1710999955065,2096203,0
1710999956479,1710999955105,2095617,0
1710999956479,1710999955146,2093609,0
1710999956479,1710999955185,2091789,0
1710999956479,1710999955225,2090793,0
1710999956479,1710999955265,2090342,0
1710999956479,1710999955305,2090239,0
1710999956479,1710999955346,2090700,0
1710999956479,1710999955386,2091906,0
1710999956479,1710999955426,2093650,0
1710999956479,1710999955466,2095259,0
1710999956479,1710999955506,2096537,0
1710999956479,1710999955547,2097760,0
1710999956479,1710999955586,2098557,0
1710999956479,1710999955627,2099171,0
1710999956479,1710999955667,2099579,0
1710999956479,1710999955707,2100283,0
1710999956479,1710999955748,2100917,0
1710999956479,1710999955787,2101907,0
1710999956479,1710999955827,2102175,0
1710999956479,1710999955867,2100781,0
1710999956479,1710999955907,2099314,0
1710999956479,1710999955948,2098620,0
1710999956479,1710999955988,2098618,0
1710999956479,1710999956028,2099349,0
1710999956479,1710999956068,2100827,0
1710999956479,1710999956108,2102887,0
1710999956479,1710999956149,2105236,0
1710999956479,1710999956188,2108016,0
1710999956479,1710999956228,2110320,0
1710999956479,1710999956268,2111831,0
1710999956479,1710999956308,2113765,0
1710999956479,1710999956349,2115310,0
1710999956479,1710999956389,2116710,0
1710999956479,1710999956429,2118694,0
1710999968564,1710999956474,2120795,0
1710999968564,1710999956514,2122962,0
1710999968564,1710999956555,2124808,0
1710999968564,1710999956594,2125734,0
1710999968564,1710999956634,2124213,0
1710999968564,1710999956674,2121897,0
1710999968564,1710999956715,2120111,0
1710999968564,1710999956755,2118816,0
1710999968564,1710999956795,2117192,0
1710999968564,1710999956835,2115319,0
1710999968564,1710999956875,2112937,0
1710999968564,1710999956915,2111400,0
1710999968564,1710999956956,2112345,0
1710999968564,1710999956996,2113523,0
1710999968564,1710999957036,2115232,0
1710999968564,1710999957076,2117261,0
1710999968564,1710999957116,2116293,0
1710999968564,1710999957157,2114178,0
1710999968564,1710999957196,2106899,0
1710999968564,1710999957236,2101572,0
1710999968564,1710999957276,2096437,0
1710999968564,1710999957316,2090175,0
1710999968564,1710999957357,2081147,0
1710999968564,1710999957396,2071713,0
1710999968564,1710999957437,2055241,0
1710999968564,1710999957477,2051078,0
1710999968564,1710999957517,2059548,0
1710999968564,1710999957557,2074144,0
1710999968564,1710999957597,2082928,0
1710999968564,1710999957637,2087803,0
1710999968564,1710999957677,2093400,0
1710999968564,1710999957717,2099314,0
1710999968564,1710999957758,2108852,0
1710999968564,1710999957797,2116836,0
1710999968564,1710999957837,2123231,0
1710999968564,1710999957877,2129584,0
1710999968564,1710999957918,2133570,0
1710999968564,1710999957958,2136001,0
1710999968564,1710999957998,2137263,0
1710999968564,1710999958038,2138325,0
1710999968564,1710999958078,2138685,0
1710999968564,1710999958118,2138493,0
1710999968564,1710999958159,2138474,0
1710999968564,1710999958198,2137115,0
1710999968564,1710999958238,2136609,0
1710999968564,1710999958278,2135986,0
1710999968564,1710999958318,2135915,0
1710999968564,1710999958359,2136267,0
1710999968564,1710999958399,2136407,0
1710999968564,1710999958439,2136118,0
1710999968564,1710999958479,2135406,0
1710999968564,1710999958519,2134119,0
1710999968564,1710999958560,2133045,0
1710999968564,1710999958599,2132534,0
1710999968564,1710999958639,2130303,0
1710999968564,1710999958679,2127991,0
1710999968564,1710999958719,2123911,0
1710999968564,1710999958760,2120055,0
1710999968564,1710999958800,2116082,0
1710999968564,1710999958840,2111814,0
1710999968564,1710999958880,2108219,0
1710999968564,1710999958920,2105452,0
1710999968564,1710999958961,2106734,0
1710999968564,1710999959000,2107089,0
1710999968564,1710999959040,2108180,0
1710999968564,1710999959080,2110581,0
1710999968564,1710999959121,2111305,0
1710999968564,1710999959161,2113649,0
1710999968564,1710999959201,2117219,0
1710999968564,1710999959241,2123297,0
1710999968564,1710999959281,2127422,0
1710999968564,1710999959321,2131140,0
1710999968564,1710999959362,2134713,0
1710999968564,1710999959401,2138843,0
1710999968564,1710999959441,2143210,0
1710999968564,1710999959481,2148917,0
1710999968564,1710999959521,2152833,0
1710999968564,1710999959562,2152738,0
1710999968564,1710999959602,2153104,0
1710999968564,1710999959642,2150810,0
1710999968564,1710999959682,2141992,0
1710999968564,1710999959722,2124532,0
1710999968564,1710999959763,2112093,0
1710999968564,1710999959802,2110228,0
1710999968564,1710999959842,2114092,0
1710999968564,1710999959882,2120925,0
1710999968564,1710999959922,2125845,0
1710999968564,1710999959963,2128113,0
1710999968564,1710999960003,2128209,0
1710999968564,1710999960043,2127149,0
1710999968564,1710999960083,2125286,0
1710999968564,1710999960123,2122832,0
1710999968564,1710999960164,2115869,0
1710999968564,1710999960203,2114778,0
1710999968564,1710999960243,2117555,0
1710999968564,1710999960283,2123404,0
1710999968564,1710999960324,2129458,0
1710999968564,1710999960364,2133290,0
1710999968564,1710999960404,2136182,0
1710999968564,1710999960444,2136810,0
1710999968564,1710999960484,2130318,0
1710999968564,1710999960524,2103232,0
1710999968564,1710999960565,2078055,0
1710999968564,1710999960604,2063682,0
1710999968564,1710999960644,2052028,0
1710999968564,1710999960684,2038281,0
1710999968564,1710999960724,2022764,0
1710999968564,1710999960765,2005968,0
1710999968564,1710999960805,1995905,0
1710999968564,1710999960845,1991238,0
1710999968564,1710999960885,1991450,0
1710999968564,1710999960925,1995371,0
1710999968564,1710999960966,2001255,0
1710999968564,1710999961005,2005599,0
1710999968564,1710999961045,2011046,0
1710999968564,1710999961085,2016373,0
1710999968564,1710999961125,2017325,0
1710999968564,1710999961166,2013847,0
1710999968564,1710999961206,2011087,0
1710999968564,1710999961246,2009615,0
1710999968564,1710999961286,2009483,0
1710999968564,1710999961326,2009475,0
1710999968564,1710999961367,2010572,0
1710999968564,1710999961406,2011789,0
1710999968564,1710999961446,2012106,0
1710999968564,1710999961486,2012153,0
1710999968564,1710999961527,2011052,0
1710999968564,1710999961567,2008724,0
1710999968564,1710999961607,2004914,0
1710999968564,1710999961647,1999909,0
1710999968564,1710999961687,1994814,0
1710999968564,1710999961727,1990470,0
1710999968564,1710999961768,1986196,0
1710999968564,1710999961807,1982245,0
1710999968564,1710999961847,1979115,0
1710999968564,1710999961888,1976591,0
1710999968564,1710999961928,1974566,0
1710999968564,1710999961969,1971326,0
1710999968564,1710999962008,1965472,0
1710999968564,1710999962048,1954082,0
1710999968564,1710999962088,1940757,0
1710999968564,1710999962128,1928400,0
1710999968564,1710999962169,1917680,0
1710999968564,1710999962209,1909201,0
1710999968564,1710999962249,1901607,0
1710999968564,1710999962289,1894032,0
1710999968564,1710999962329,1886427,0
1710999968564,1710999962370,1879116,0
1710999968564,1710999962409,1873191,0
1710999968564,1710999962449,1868417,0
1710999968564,1710999962489,1864279,0
1710999968564,1710999962529,1860911,0
1710999968564,1710999962570,1857968,0
1710999968564,1710999962610,1855241,0
1710999968564,1710999962650,1852966,0
1710999968564,1710999962690,1849680,0
1710999968564,1710999962730,1841367,0
1710999968564,1710999962771,1826026,0
1710999968564,1710999962810,1810539,0
1710999968564,1710999962851,1798280,0
1710999968564,1710999962891,1789141,0
1710999968564,1710999962931,1782593,0
1710999968564,1710999962972,1777171,0
1710999968564,1710999963011,1772302,0
1710999968564,1710999963051,1766985,0
1710999968564,1710999963091,1762047,0
1710999968564,1710999963131,1757814,0
1710999968564,1710999963172,1754397,0
1710999968564,1710999963212,1752032,0
1710999968564,1710999963252,1749911,0
1710999968564,1710999963292,1748431,0
1710999968564,1710999963332,1746987,0
1710999968564,1710999963373,1745867,0
1710999968564,1710999963412,1744792,0
1710999968564,1710999963452,1743789,0
1710999968564,1710999963492,1741212,0
1710999968564,1710999963533,1732886,0
1710999968564,1710999963574,1719475,0
1710999968564,1710999963613,1707414,0
1710999968564,1710999963653,1698679,0
1710999968564,1710999963693,1692609,0
1710999968564,1710999963733,1688495,0
1710999968564,1710999963774,1685023,0
1710999968564,1710999963814,1681557,0
1710999968564,1710999963854,1677778,0
1710999968564,1710999963894,1674379,0
1710999968564,1710999963934,1672087,0
1710999968564,1710999963974,1670468,0
1710999968564,1710999964014,1669814,0
1710999968564,1710999964054,1669491,0
1710999968564,1710999964094,1669386,0
1710999968564,1710999964134,1669560,0
1710999968564,1710999964175,1669749,0
1710999968564,1710999964214,1670209,0
1710999968564,1710999964254,1670709,0
1710999968564,1710999964295,1669180,0
1710999968564,1710999964334,1661282,0
1710999968564,1710999964375,1649770,0
1710999968564,1710999964415,1640349,0
1710999968564,1710999964455,1634325,0
1710999968564,1710999964495,1630598,0
1710999968564,1710999964535,1628696,0
1710999968564,1710999964576,1626919,0
1710999968564,1710999964618,1625034,0
1710999968564,1710999964655,1622985,0
1710999968564,1710999964695,1621185,0
1710999968564,1710999964735,1620507,0
1710999968564,1710999964776,1620583,0
1710999968564,1710999964816,1621048,0
1710999968564,1710999964856,1622104,0
1710999968564,1710999964896,1623337,0
1710999968564,1710999964936,1624899,0
1710999968564,1710999964977,1626629,0
1710999968564,1710999965016,1628178,0
1710999968564,1710999965056,1629904,0
1710999968564,1710999965096,1630663,0
1710999968564,1710999965136,1626918,0
1710999968564,1710999965177,1618322,0
1710999968564,1710999965216,1610344,0
1710999968564,1710999965257,1605500,0
1710999968564,1710999965297,1603300,0
1710999968564,1710999965337,1602653,0
1710999968564,1710999965378,1602425,0
1710999968564,1710999965417,1601925,0
1710999968564,1710999965457,1601250,0
1710999968564,1710999965497,1600978,0
1710999968564,1710999965537,1601447,0
1710999968564,1710999965578,1602608,0
1710999968564,1710999965618,1604622,0
1710999968564,1710999965657,1607104,0
1710999968564,1710999965698,1609955,0
1710999968564,1710999965738,1613036,0
1710999968564,1710999965778,1616481,0
1710999968564,1710999965818,1620195,0
1710999968564,1710999965858,1623435,0
1710999968564,1710999965898,1624396,0
1710999968564,1710999965938,1621056,0
1710999968564,1710999965979,1617141,0
1710999968564,1710999966018,1615225,0
1710999968564,1710999966059,1614847,0
1710999968564,1710999966099,1615557,0
1710999968564,1710999966139,1616424,0
1710999968564,1710999966179,1616607,0
1710999968564,1710999966219,1616370,0
1710999968564,1710999966259,1616107,0
1710999968564,1710999966299,1616376,0
1710999968564,1710999966339,1616988,0
1710999968564,1710999966380,1617877,0
1710999968564,1710999966419,1619134,0
1710999968564,1710999966460,1620468,0
1710999968564,1710999966500,1621891,0
1710999968564,1710999966540,1623474,0
1710999968564,1710999966581,1624854,0
1710999968564,1710999966620,1625434,0
1710999968564,1710999966660,1619733,0
1710999968564,1710999966700,1609523,0
1710999968564,1710999966740,1600000,0
1710999968564,1710999966781,1593790,0
1710999968564,1710999966824,1590257,0
1710999968564,1710999966861,1588535,0
1710999968564,1710999966901,1587114,0
1710999968564,1710999966941,1584915,0
1710999968564,1710999966982,1582530,0
1710999968564,1710999967021,1580556,0
1710999968564,1710999967061,1579675,0
1710999968564,1710999967101,1579866,0
1710999968564,1710999967141,1580597,0
1710999968564,1710999967182,1581814,0
1710999968564,1710999967222,1583196,0
1710999968564,1710999967262,1584851,0
1710999968564,1710999967302,1586460,0
1710999968564,1710999967342,1588121,0
1710999968564,1710999967383,1587143,0
1710999968564,1710999967422,1578569,0
1710999968564,1710999967462,1568205,0
1710999968564,1710999967502,1560853,0
1710999968564,1710999967543,1557031,0
1710999968564,1710999967583,1555573,0
1710999968564,1710999967623,1555175,0
1710999968564,1710999967663,1554648,0
1710999968564,1710999967703,1553213,0
1710999968564,1710999967743,1551814,0
1710999968564,1710999967784,1551297,0
1710999968564,1710999967823,1551669,0
1710999968564,1710999967863,1552856,0
1710999968564,1710999967904,1554309,0
1710999968564,1710999967944,1556148,0
1710999968564,1710999967985,1558034,0
1710999968564,1710999968024,1560011,0
1710999968564,1710999968064,1562044,0
1710999968564,1710999968104,1564169,0
1710999968564,1710999968144,1565753,0
1710999968564,1710999968185,1561934,0
1710999968564,1710999968225,1552984,0
1710999968564,1710999968265,1545288,0
1710999968564,1710999968305,1540936,0
1710999968564,1710999968345,1539689,0
1710999968564,1710999968386,1539749,0
1710999968564,1710999968425,1539958,0
1710999968564,1710999968465,1539353,0
1710999980567,1710999968502,1538399,0
1710999980567,1710999968542,1537876,0
1710999980567,1710999968583,1538527,0
1710999980567,1710999968623,1540187,0
1710999980567,1710999968663,1542121,0
1710999980567,1710999968703,1544407,0
1710999980567,1710999968743,1546588,0
1710999980567,1710999968784,1548613,0
1710999980567,1710999968823,1550736,0
1710999980567,1710999968863,1552580,0
1710999980567,1710999968903,1554322,0
1710999980567,1710999968943,1555071,0
1710999980567,1710999968984,1549646,0
1710999980567,1710999969024,1540473,0
1710999980567,1710999969064,1533111,0
1710999980567,1710999969104,1529349,0
1710999980567,1710999969144,1527931,0
1710999980567,1710999969185,1528308,0
1710999980567,1710999969224,1528446,0
1710999980567,1710999969264,1527407,0
1710999980567,1710999969305,1525973,0
1710999980567,1710999969345,1525769,0
1710999980567,1710999969385,1526388,0
1710999980567,1710999969425,1527938,0
1710999980567,1710999969465,1529835,0
1710999980567,1710999969505,1532290,0
1710999980567,1710999969545,1534561,0
1710999980567,1710999969586,1537049,0
1710999980567,1710999969625,1539612,0
1710999980567,1710999969666,1542110,0
1710999980567,1710999969706,1544934,0
1710999980567,1710999969746,1547027,0
1710999980567,1710999969787,1543459,0
1710999980567,1710999969826,1535410,0
1710999980567,1710999969866,1528951,0
1710999980567,1710999969907,1525821,0
1710999980567,1710999969947,1525114,0
1710999980567,1710999969987,1525612,0
1710999980567,1710999970027,1526140,0
1710999980567,1710999970067,1525643,0
1710999980567,1710999970107,1524574,0
1710999980567,1710999970147,1524025,0
1710999980567,1710999970188,1524129,0
1710999980567,1710999970228,1524671,0
1710999980567,1710999970268,1525837,0
1710999980567,1710999970308,1527662,0
1710999980567,1710999970348,1529709,0
1710999980567,1710999970389,1531498,0
1710999980567,1710999970428,1535305,0
1710999980567,1710999970468,1537385,0
1710999980567,1710999970508,1538380,0
1710999980567,1710999970549,1532408,0
1710999980567,1710999970589,1522851,0
1710999980567,1710999970629,1515798,0
1710999980567,1710999970669,1512385,0
1710999980567,1710999970709,1511219,0
1710999980567,1710999970749,1511445,0
1710999980567,1710999970790,1511160,0
1710999980567,1710999970829,1510087,0
1710999980567,1710999970869,1509034,0
1710999980567,1710999970910,1508781,0
1710999980567,1710999970949,1509682,0
1710999980567,1710999970990,1511268,0
1710999980567,1710999971030,1513239,0
1710999980567,1710999971070,1515511,0
1710999980567,1710999971110,1517754,0
1710999980567,1710999971150,1519870,0
1710999980567,1710999971191,1522235,0
1710999980567,1710999971230,1524711,0
1710999980567,1710999971270,1526784,0
1710999980567,1710999971310,1524515,0
1710999980567,1710999971350,1516321,0
1710999980567,1710999971391,1508850,0
1710999980567,1710999971431,1504531,0
1710999980567,1710999971471,1502860,0
1710999980567,1710999971511,1503019,0
1710999980567,1710999971551,1503056,0
1710999980567,1710999971592,1501662,0
1710999980567,1710999971631,1499554,0
1710999980567,1710999971671,1498477,0
1710999980567,1710999971711,1498582,0
1710999980567,1710999971751,1499903,0
1710999980567,1710999971792,1501628,0
1710999980567,1710999971832,1503552,0
1710999980567,1710999971872,1505385,0
1710999980567,1710999971912,1507818,0
1710999980567,1710999971952,1510733,0
1710999980567,1710999971993,1514305,0
1710999980567,1710999972032,1518353,0
1710999980567,1710999972072,1521577,0
1710999980567,1710999972112,1520639,0
1710999980567,1710999972152,1512389,0
1710999980567,1710999972193,1504092,0
1710999980567,1710999972233,1499257,0
1710999980567,1710999972273,1496760,0
1710999980567,1710999972313,1496110,0
1710999980567,1710999972353,1496384,0
1710999980567,1710999972394,1496911,0
1710999980567,1710999972433,1497069,0
1710999980567,1710999972473,1497837,0
1710999980567,1710999972513,1499607,0
1710999980567,1710999972553,1502417,0
1710999980567,1710999972594,1505688,0
1710999980567,1710999972634,1509112,0
1710999980567,1710999972674,1512271,0
1710999980567,1710999972714,1515609,0
1710999980567,1710999972754,1518850,0
1710999980567,1710999972795,1522121,0
1710999980567,1710999972834,1525650,0
1710999980567,1710999972874,1529448,0
1710999980567,1710999972914,1531690,0
1710999980567,1710999972954,1528394,0
1710999980567,1710999972995,1522307,0
1710999980567,1710999973034,1518985,0
1710999980567,1710999973075,1518216,0
1710999980567,1710999973115,1519415,0
1710999980567,1710999973155,1522067,0
1710999980567,1710999973196,1525282,0
1710999980567,1710999973235,1528642,0
1710999980567,1710999973275,1532301,0
1710999980567,1710999973315,1536179,0
1710999980567,1710999973355,1540298,0
1710999980567,1710999973396,1544528,0
1710999980567,1710999973436,1548550,0
1710999980567,1710999973476,1551913,0
1710999980567,1710999973516,1554647,0
1710999980567,1710999973556,1556751,0
1710999980567,1710999973596,1558745,0
1710999980567,1710999973636,1560818,0
1710999980567,1710999973676,1562707,0
1710999980567,1710999973716,1564874,0
1710999980567,1710999973756,1566215,0
1710999980567,1710999973797,1562201,0
1710999980567,1710999973836,1555061,0
1710999980567,1710999973876,1549657,0
1710999980567,1710999973917,1546877,0
1710999980567,1710999973957,1546189,0
1710999980567,1710999973997,1546578,0
1710999980567,1710999974037,1546792,0
1710999980567,1710999974077,1546396,0
1710999980567,1710999974117,1546110,0
1710999980567,1710999974157,1546900,0
1710999980567,1710999974198,1548410,0
1710999980567,1710999974237,1550236,0
1710999980567,1710999974278,1552440,0
1710999980567,1710999974318,1554853,0
1710999980567,1710999974358,1556991,0
1710999980567,1710999974399,1559251,0
1710999980567,1710999974438,1561715,0
1710999980567,1710999974478,1564207,0
1710999980567,1710999974518,1565731,0
1710999980567,1710999974558,1561394,0
1710999980567,1710999974599,1554246,0
1710999980567,1710999974639,1549004,0
1710999980567,1710999974679,1546110,0
1710999980567,1710999974719,1544558,0
1710999980567,1710999974759,1544449,0
