Timestamp,Cleaned_PPG
1712209380388,0.0
1712209380427,0.0
1712209380466,0.0
1712209380506,0.0
1712209380546,0.0
1712209380586,0.0
1712209380627,0.0
1712209380666,0.0
1712209380706,0.0
1712209380747,0.0
1712209380787,0.0
1712209380828,0.0
1712209380867,0.0
1712209380907,0.0
1712209380947,0.0
1712209380988,0.0
1712209381029,0.0
1712209381068,0.0
1712209381108,0.0
1712209381148,0.0
1712209381188,0.0
1712209381229,0.0
1712209381268,0.0
1712209381309,0.0
1712209381349,0.0
1712209381389,0.0
1712209381430,0.0
1712209381469,0.0
1712209381509,0.0
1712209381549,0.0
1712209381590,0.0
1712209381631,0.0
1712209381670,2125444.0
1712209381710,1990156.9906509472
1712209381750,1863070.1897261625
1712209381790,1745283.1769992653
1712209381832,1635443.4681894288
1712209381871,1533236.087808631
1712209381911,1438946.9919751012
1712209381951,1348834.9509984488
1712209381991,1265160.2867791096
1712209382032,1183544.45713542
1712209382072,1110671.117081653
1712209382111,1040782.2684847529
1712209382152,977341.0017850238
1712209382192,913791.0444154732
1712209382233,855282.5996412206
1712209382272,799364.7068978751
1712209382312,749332.0975840194
1712209382352,700977.7330393279
1712209382392,656525.8902341647
1712209382433,615838.8732819655
1712209382472,572662.8753422583
1712209382512,538350.1378600309
1712209382553,502016.2965304423
1712209382595,468747.2090465368
1712209382634,438629.32662228076
1712209382673,407107.51940861484
1712209382713,392029.68420392903
1712209382753,356259.01939050853
1712209382793,336398.600692922
1712209382834,316004.3632833408
1712209382873,299502.5404609563
1712209382914,270905.5480701444
1712209382954,248588.2817531426
1712209382994,239219.8374719231
1712209383035,213168.23921970674
1712209383074,191057.63004824077
1712209383114,174259.29768787324
1712209383154,153886.6392716118
1712209383194,130570.88482004823
1712209383235,114321.24741485436
1712209383275,102151.95963313943
1712209383315,98208.88528930908
1712209383355,89719.03025812074
1712209383395,83631.8368053534
1712209383436,73851.17007656582
1712209383475,69958.3236192069
1712209383515,66143.27720273868
1712209383555,62620.83209195384
1712209383595,57374.01835431205
1712209383637,53772.02295350307
1712209383676,49120.18118868163
1712209383716,41588.50797017291
1712209383756,39849.781588952756
1712209383796,33543.56662031915
1712209383837,32038.570944706677
1712209383876,31308.745971364435
1712209383916,23776.417243150063
1712209383956,16298.92579471413
1712209383997,10223.149701971095
1712209384037,7742.229304352077
1712209384077,5036.101350512356
1712209384117,2282.359653543448
1712209384157,-236.46013733185828
1712209384197,1656.659697823692
1712209384238,1621.9125270340592
1712209384277,-5257.024329591775
1712209384317,4004.7637771700975
1712209384358,7150.267746198922
1712209384398,8260.696532504633
1712209384439,9463.920741842827
1712209384478,10113.658603135496
1712209384518,10904.15968572814
1712209384558,11704.131670104107
1712209384598,12321.590041867923
1712209384639,12644.615872176131
1712209384678,11690.053059559781
1712209384719,3503.857380109839
1712209384759,-4362.781912529375
1712209384801,-7007.999517501099
1712209384840,-7347.2102123652585
1712209384879,-6412.828739960678
1712209384919,-5847.818702720106
1712209384959,-5566.974856344517
1712209384999,-5527.5455452953465
1712209385040,-5644.993894085288
1712209385080,-4589.7975173252635
1712209385120,-3499.822844013106
1712209385160,-2074.6342770492192
1712209385200,-768.3479307275265
1712209385241,912.2942984821275
1712209385280,1641.4824557874817
1712209385320,3818.417724661529
1712209385360,4400.025508226827
1712209385401,5912.398425177671
1712209385442,7206.078519052127
1712209385481,7155.680432643276
1712209385521,1760.8827865021303
1712209385561,-6574.851409448544
1712209385601,-10022.582128742477
1712209385642,-10783.97833837336
1712209385682,-10431.094538696576
1712209385722,-8948.170787182637
1712209385762,-8215.131678738166
1712209385802,-8189.881092605414
1712209385843,-8662.071472534444
1712209385882,-8416.08349529421
1712209385922,-6976.007678663591
1712209385962,-5233.336021669209
1712209386002,-3867.1958339381963
1712209386044,-1806.5190689885058
1712209386083,-844.8458457856905
1712209386123,738.2606772615109
1712209386163,1759.1401058451738
1712209386203,982.3066263489891
1712209386244,-7041.092469535302
1712209386283,-14233.880339346826
1712209386323,-17838.267008166295
1712209386364,-18851.84867362352
1712209386404,-17794.115209327545
1712209386445,-15608.92986957333
1712209386484,-14033.5404207143
1712209386524,-13661.296579092043
1712209386564,-13283.8698886903
1712209386605,-12570.481801164337
1712209386646,-10331.648666910361
1712209386685,-8045.187362305354
1712209386725,-6075.277432832867
1712209386765,-4839.655134353321
1712209386805,-3199.072178158909
1712209386846,-1956.4962702472694
1712209386886,-425.2101028524339
1712209386926,1075.7232418963686
1712209386966,2228.9121101414785
1712209387006,-5152.526139326394
1712209387047,-14901.10350441793
1712209387086,-20204.1938627176
1712209387127,-20952.32270254148
1712209387167,-20712.998466363642
1712209387207,-20478.09421212552
1712209387248,-19747.386664872058
1712209387287,-19180.696616273373
1712209387327,-18956.906416248064
1712209387367,-17782.87646257691
1712209387407,-16839.88024673029
1712209387449,-15055.96979167359
1712209387488,-12727.827432690654
1712209387528,-9960.744532503188
1712209387568,-8159.030530155636
1712209387608,-6179.754091980867
1712209387649,-4240.0569684612565
1712209387688,-2379.463849560125
1712209387729,-971.7983470344916
1712209387769,-3375.852861871943
1712209387809,-12877.494517697953
1712209387850,-20502.285624071723
1712209387889,-24346.49596966803
1712209387929,-24982.710728968494
1712209387970,-24162.756770673906
1712209388010,-22359.717061991803
1712209388051,-20201.92109662248
1712209388090,-19957.1169193713
1712209388130,-18938.011210771976
1712209388170,-17724.36984162405
1712209388210,-15833.605243634433
1712209388251,-13889.987123120809
1712209388290,-12292.583073699148
1712209388330,-10063.153077667579
1712209388370,-7840.859950185055
1712209388410,-6758.583893092815
1712209388452,-5315.15443666745
1712209388491,-3726.6032250032295
1712209388531,-3464.621311332332
1712209388571,-10746.056973217055
1712209388611,-18848.317461189814
1712209388652,-23266.305032767355
1712209388691,-23306.383500397904
1712209388731,-21686.985094506526
1712209388771,-19654.2662610095
1712209388811,-18286.26904666843
1712209388852,-17944.89064157894
1712209388892,-18039.181548618944
1712209388932,-17429.886206829222
1712209388972,-16188.274285465013
1712209389012,-14100.325698722154
1712209389053,-11768.596748874756
1712209389092,-9648.810734244762
1712209389132,-7870.7126539144665
1712209389172,-6023.726941717323
1712209389212,-4262.596245464869
1712209389253,-4574.475189981516
1712209389293,-10973.516969596036
1712209389333,-21332.392410772154
1712209389373,-27833.27498634113
1712209389413,-29124.101501559606
1712209389454,-28466.03363579954
1712209389493,-26701.117542620283
1712209389533,-24433.958651560824
1712209389573,-22458.070116875926
1712209389613,-21748.133267640136
1712209389654,-20804.95316898101
1712209389693,-19353.44053927576
1712209389733,-16350.88091035001
1712209389774,-13432.391321038594
1712209389814,-10898.677050524391
1712209389855,-8892.784394018352
1712209389894,-7125.229861332569
1712209389934,-5231.977739811176
1712209389974,-3631.9130774529185
1712209390014,-2093.016537745949
1712209390055,-1217.2995421192609
1712209390094,-8783.247881828807
1712209390135,-20533.139213731047
1712209390175,-27362.408300459385
1712209390215,-28826.51736747427
1712209390256,-28339.570205724332
1712209390295,-27412.844816556666
1712209390335,-24937.935668912716
1712209390375,-23276.25567957107
1712209390415,-22167.221776743187
1712209390456,-21372.63893956691
1712209390496,-18927.030062784674
1712209390536,-15753.787968961988
1712209390576,-12466.45544510521
1712209390616,-9307.94281041529
1712209390657,-6862.135727764573
1712209390696,-5729.7885947478935
1712209390736,-3913.8841724379454
1712209390776,-1331.0028293838259
1712209390816,51.13529596384615
1712209390858,1642.3190303128213
1712209390897,2905.0416975540575
1712209390937,1474.086111523211
1712209390977,-8597.730003713863
1712209391017,-19188.040431915782
1712209391058,-24025.006042967783
1712209391097,-24874.967010179767
1712209391137,-23480.84584593051
1712209391177,-21393.06296454114
1712209391218,-20210.036271934863
1712209391259,-19506.092786110938
1712209391298,-18862.45668846555
1712209391338,-17391.203090819996
1712209391378,-14614.205887436401
1712209391418,-11634.41210203548
1712209391459,-8241.73688370618
1712209391498,-5630.833470523823
1712209391538,-3048.344985646894
1712209391578,9.323547395411879
1712209391618,1981.434400571743
1712209391660,3357.3946132150013
1712209391699,4983.093030387303
1712209391739,7078.971136922482
1712209391779,8111.77830303926
1712209391819,2869.7434771605767
1712209391860,-7717.7289289268665
1712209391899,-14254.251215136843
1712209391939,-15685.788667961955
1712209391979,-13868.505368708866
1712209392019,-11560.737351879478
1712209392061,-9873.372611823026
1712209392100,-8840.814485472161
1712209392140,-8462.637512451038
1712209392180,-7128.5926669642795
1712209392220,-5205.895053996937
1712209392261,-2704.662698442815
1712209392300,-218.1404619233217
1712209392340,2346.978545810096
1712209392381,4788.642123717349
1712209392418,6439.387908551376
1712209392459,7682.340799058322
1712209392498,9227.463333969237
1712209392538,10409.885366179515
1712209392578,11618.5934848357
1712209392618,10474.239773119567
1712209392659,1937.2298053409904
1712209392698,-5718.985975975869
1712209392739,-8682.189267496113
1712209392779,-8414.16241537407
1712209392819,-6644.842421269743
1712209392860,-4522.227375051472
1712209392899,-3582.3992991743144
1712209392939,-3519.6785152782686
1712209392979,-3870.7188140319195
1712209393019,-2509.2677186094224
1712209393060,735.9227343089879
1712209393100,3647.29278798867
1712209393140,5836.683710087789
1712209393180,7639.240154888481
1712209393220,8847.315185186919
1712209393261,9727.453805560712
1712209393300,10800.036340828286
1712209393340,11418.716261063237
1712209393381,6468.083187093027
1712209393421,-3597.3818086115643
1712209393462,-9605.293878628407
1712209393501,-10749.902680646162
1712209393541,-9984.0900708884
1712209393581,-8002.751106317155
1712209393622,-5107.169742400991
1712209393663,-3308.9754009097815
1712209393702,-3671.1031344798394
1712209393742,-4098.465520151425
1712209393782,-3756.8495608908124
1712209393822,-1955.9175698859617
1712209393863,156.58563324832357
1712209393902,1890.2779412642121
1712209393943,4043.651729101315
1712209393983,5099.915043139365
1712209394023,6875.214846490417
1712209394064,8310.277329585515
1712209394103,9916.800394554855
1712209394143,10763.00558740506
1712209394183,7663.081293908879
1712209394224,-3939.945106148487
1712209394265,-13998.241413988406
1712209394304,-18354.378304325975
1712209394344,-19511.676375415875
1712209394384,-18810.18170180265
1712209394424,-17226.75650702836
1712209394466,-16602.891474555712
1712209394505,-15639.098173676291
1712209394545,-14880.095846228069
1712209394585,-14179.417745364131
1712209394625,-12153.429685342126
1712209394666,-9398.678178629838
1712209394705,-6286.382158394437
1712209394745,-3441.0833674492314
1712209394786,-836.8215890554711
1712209394826,1440.8725166697986
1712209394867,3669.382366789039
1712209394906,5236.774428946199
1712209394946,6833.729175355751
1712209394986,8657.841861964203
1712209395026,9780.02993114409
1712209395067,4629.039648742415
1712209395106,-7672.424300234765
1712209395146,-16354.732325199991
1712209395187,-19347.120259639574
1712209395227,-19120.70588300377
1712209395268,-17762.003297897056
1712209395307,-16795.005246872548
1712209395347,-15598.738703710027
1712209395387,-15602.477673177375
1712209395427,-14749.066049081506
1712209395468,-13383.878989109304
1712209395507,-10576.820129562635
1712209395548,-7528.368389085634
1712209395588,-4329.360026916955
1712209395628,-1379.758540428942
1712209395669,872.7763550630771
1712209395708,2821.875875920523
1712209395748,4854.549855456222
1712209395788,6303.556405774318
1712209395828,7769.476472207811
1712209395869,9888.862305299845
1712209395908,11478.812272686278
1712209395948,9189.63909871853
1712209395989,-2353.3185248530935
1712209396029,-13150.119059086312
1712209396070,-17636.090863573365
1712209396109,-17235.473077486735
1712209396149,-15694.321056765504
1712209396189,-13465.163386645261
1712209396229,-11710.00358055532
1712209396270,-10782.60925028869
1712209396309,-10344.741992129944
1712209396349,-9113.963663744973
1712209396390,-6902.584928665077
1712209396430,-3795.362883862108
1712209396471,-1075.1761551175732
1712209396510,1795.8169048088603
1712209396550,4406.153828058625
1712209396590,6723.548420976382
1712209396630,8422.266315437853
1712209396671,10377.467427268857
1712209396710,11917.091401209822
1712209396751,13726.378024234436
1712209396791,14548.91212698957
1712209396831,9978.28736870084
1712209396872,-894.2613400095142
1712209396911,-9462.83824857534
1712209396951,-11401.152054034173
1712209396991,-10088.07748631062
1712209397031,-8124.252858290682
1712209397072,-6008.208142895717
1712209397112,-5120.72907552449
1712209397152,-5170.195242988411
1712209397192,-5026.790870231343
1712209397232,-3719.3090526468586
1712209397273,-1176.789305898361
1712209397312,978.6696339934133
1712209397352,3917.449993829243
1712209397392,6163.029471834889
1712209397432,8147.461791244568
1712209397473,10057.443426522892
1712209397513,10789.239674726967
1712209397553,11611.604564310517
1712209397593,9998.713582815835
1712209397633,72.11648072651587
1712209397674,-9864.039736165898
1712209397713,-13423.604952787515
1712209397753,-12435.486653530505
1712209397793,-10379.192262203433
1712209397834,-8066.378205786692
1712209397874,-6363.877226095879
1712209397914,-5939.869573700475
1712209397954,-5926.21296364069
1712209397994,-5095.1072723031975
1712209398034,-2828.081573458854
1712209398075,-224.3698885096237
1712209398114,2902.8003356417175
1712209398155,5342.739751735702
1712209398195,8376.151671847329
1712209398235,10323.301434298046
1712209398276,12175.110514558852
1712209398315,13634.61332330131
1712209398355,15360.11312774336
1712209398395,14565.231810080819
1712209398436,4843.871476101223
1712209398476,-7913.6063366753515
1712209398516,-13119.66789222695
1712209398556,-14213.84443175164
1712209398596,-12597.636141767958
1712209398636,-11307.516500465106
1712209398677,-10255.688167876564
1712209398717,-9455.744871448027
1712209398757,-9559.856261976529
1712209398797,-8362.673901256872
1712209398837,-6470.934439225588
1712209398878,-3848.0716146808118
1712209398917,-1117.5905948551372
1712209398957,1816.1765426709317
1712209398997,3974.956392566208
1712209399038,5857.958830913762
1712209399078,7381.820997964125
1712209399118,9124.729345368687
1712209399158,10798.505627219565
1712209399198,11558.013819274027
1712209399238,4672.379377944395
1712209399279,-8456.451337881153
1712209399319,-15711.094341351883
1712209399359,-16920.096397040877
1712209399399,-16367.491638571024
1712209399439,-15263.096883046906
1712209399480,-13579.857986795716
1712209399519,-12562.226134743076
1712209399559,-12333.955883735558
1712209399600,-11632.563863049727
1712209399640,-9792.414086032659
1712209399681,-6628.640139807016
1712209399720,-3791.4406024613418
1712209399760,-650.5012811813504
1712209399800,1679.5757359841373
1712209399841,4245.068122676574
1712209399882,6369.045337994117
1712209399921,8147.96053189598
1712209399961,10059.647837942699
1712209400001,11602.412167393137
1712209400041,11374.535748528782
1712209400082,1629.9622940279078
1712209400122,-10244.763775676023
1712209400162,-15262.01432743296
1712209400202,-15434.37443785835
1712209400242,-14425.32412287849
1712209400283,-11682.176907307468
1712209400322,-10233.689787262352
1712209400363,-9434.31618608348
1712209400403,-9473.989441714482
1712209400443,-8697.138802767964
1712209400484,-6255.633948139148
1712209400523,-3481.8719276254997
1712209400563,-468.39844716666266
1712209400603,2217.3399039683864
1712209400644,4608.362196818693
1712209400684,6917.170629410539
1712209400724,9040.320128691848
1712209400764,10360.051659427118
1712209400804,12000.277477075346
1712209400844,13864.61329140584
1712209400885,15180.395227630623
1712209400924,9002.821582167875
1712209400964,-3725.660998399835
1712209401004,-10927.651692871004
1712209401044,-11994.987081873696
1712209401085,-10562.413790005725
1712209401125,-9187.959158438724
1712209401165,-7591.516765260138
1712209401205,-6974.965530589921
1712209401245,-7184.286184939556
1712209401286,-7005.335055371281
1712209401325,-5492.5409320215695
1712209401365,-3105.029010108672
1712209401405,-334.3029873925261
1712209401446,2697.670873023104
1712209401486,4648.4178111949
1712209401526,6388.523745936807
1712209401566,7862.721451769117
1712209401606,9749.067697091028
1712209401646,11435.819039964816
1712209401687,11871.93621094036
1712209401726,4022.9229330914095
1712209401766,-7434.968291895464
1712209401806,-12044.120589619968
1712209401846,-12271.415033121128
1712209401887,-10166.00239866646
1712209401927,-7387.385193563066
1712209401967,-5833.890158378519
1712209402007,-5196.170862331986
1712209402047,-4633.313286327291
1712209402088,-3771.7971059903502
1712209402127,-1699.2759920591488
1712209402167,431.66810402460396
1712209402207,2817.838750448078
1712209402247,5963.356369674671
1712209402288,8779.941014115699
1712209402328,11091.668826662004
1712209402368,12855.891810703557
1712209402408,14940.179056521272
1712209402448,16759.48594992631
1712209402489,18227.997923872434
1712209402528,15370.855830617016
1712209402568,2435.6671626681928
1712209402609,-7944.721609093482
1712209402649,-11911.080802097917
1712209402690,-12271.942420125473
1712209402729,-11761.818419267656
1712209402769,-9314.91906020185
1712209402809,-7760.678504207637
1712209402849,-7251.974277064437
1712209402890,-6744.552095865365
1712209402929,-5566.4465180109255
1712209402969,-3470.462849664502
1712209403010,-1064.335137209855
1712209403050,2350.609189842595
1712209403091,4572.525298523251
1712209403130,7148.7383393179625
1712209403170,9007.73897363292
1712209403210,10967.875560989138
1712209403250,12360.303314902587
1712209403291,13874.297075600829
1712209403331,15043.341677363962
1712209403371,16455.696004481288
1712209403411,11198.573300313437
1712209403451,-983.1191976207774
1712209403492,-8454.191275661113
1712209403531,-10526.865224592853
1712209403571,-10076.822625819128
1712209403612,-9135.645272252848
1712209403651,-7203.1754618303385
1712209403692,-6457.026067650411
1712209403732,-6027.996332054492
1712209403772,-5013.391955147032
1712209403812,-2693.2686816998757
1712209403852,-334.7573043247685
1712209403893,2108.650115214754
1712209403932,5220.256261698669
1712209403972,8055.846638621297
1712209404012,10578.151253600605
1712209404052,11508.494297890458
1712209404093,12810.313139568083
1712209404133,13803.62616358581
1712209404173,14492.591016750317
1712209404213,15511.913306873757
1712209404253,12565.888194318395
1712209404294,2734.2825100352056
1712209404333,-5717.79150096979
1712209404373,-7059.893740277737
1712209404414,-6366.329538568389
1712209404452,-4482.635489037726
1712209404493,-2646.9945241198875
1712209404532,-1212.1932936618105
1712209404572,-1043.9619523393922
1712209404612,-878.3295603527222
1712209404652,-141.3074297516141
1712209404693,2065.7000945266336
1712209404733,4451.971675253939
1712209404773,6553.762810210697
1712209404813,9104.75450094603
1712209404853,11783.392565694405
1712209404894,13892.359573858092
1712209404933,15585.52225078619
1712209404973,16283.401273278054
1712209405013,10025.938553404296
1712209405053,-1607.42368438025
1712209405094,-7783.944366167765
1712209405134,-9274.467739098938
1712209405174,-8565.271158807445
1712209405214,-6789.587523544207
1712209405254,-5489.086639880668
1712209405295,-4266.284976637922
1712209405334,-3729.4037132426165
1712209405374,-2961.282355772797
1712209405415,-1049.434598770924
1712209405455,1496.0080544366501
1712209405496,4179.888962389668
1712209405535,6531.9593513351865
1712209405575,9023.735717975534
1712209405615,13291.14551593503
1712209405655,14726.545657044044
1712209405696,15844.323583464604
1712209405736,16361.018416432198
1712209405776,8787.06379072601
1712209405816,-3913.527399898274
1712209405856,-10415.26575172157
1712209405897,-11974.644841330126
1712209405936,-10725.721471457276
1712209405976,-9133.7296694736
1712209406017,-7083.492010177579
1712209406057,-5864.524293228984
1712209406097,-6415.918012663722
1712209406137,-6482.824654307682
1712209406177,-4856.080890544457
1712209406217,-2272.0531527772546
1712209406257,874.8346511772834
1712209406298,4308.106165875448
1712209406337,7613.997042604024
1712209406378,8550.685455872677
1712209406418,10533.620194288436
1712209406458,12487.346561867278
1712209406499,11669.789278761717
1712209406538,2214.6630757288076
1712209406578,-9204.448248772416
1712209406619,-15008.05588189559
1712209406659,-15659.29576530587
1712209406699,-14483.326972518116
1712209406739,-12548.170548875816
1712209406779,-11585.586531607434
1712209406819,-10870.198077114997
1712209406859,-10350.040230792947
1712209406900,-10751.790388432797
1712209406940,-8639.504810263403
1712209406980,-5884.672725051176
1712209407020,-3280.8425793515053
1712209407060,43.52313882880844
1712209407101,4786.78631717735
1712209407140,6786.972891366109
1712209407180,6120.529464115854
1712209407220,-4947.403109125793
1712209407260,-15636.269064446446
1712209407301,-19797.963273955043
1712209407341,-19884.393845923245
1712209407380,-18373.354183433577
1712209407421,-16699.748360163532
1712209407461,-15418.683387739817
1712209407501,-15402.917853515828
1712209407541,-15292.447396403644
1712209407581,-14734.693756551482
1712209407621,-13217.814977750648
1712209407661,-8941.236849419773
1712209407702,-6566.470868152101
1712209407741,-3982.373748004902
1712209407781,-686.2686019870453
1712209407822,1144.7298436868005
1712209407862,3747.967257184908
1712209407902,5629.582185616251
1712209407942,1916.9970385590568
1712209407982,-10171.530456334818
1712209408022,-18905.87413883279
1712209408062,-21460.806024300167
1712209408103,-21233.39913563244
1712209408142,-20046.031435807934
1712209408182,-18916.33090734901
1712209408222,-18496.15806579753
1712209408263,-17832.91424007644
1712209408303,-15974.697410698514
1712209408343,-14753.386186251882
1712209408383,-12705.90171145671
1712209408423,-10565.212151353713
1712209408463,-6705.80616662791
1712209408504,-3674.3341043321416
1712209408543,-1533.5265725771897
1712209408583,763.8888643365353
1712209408623,3631.3914311518893
1712209408664,6891.408553662244
1712209408704,8262.116033358034
1712209408744,1524.8000749708153
1712209408784,-9383.000707517844
1712209408824,-15234.83316396526
1712209408864,-15730.114280216629
1712209408905,-13246.376104033086
1712209408944,-10693.46564727719
1712209408984,-7305.248357070144
1712209409024,-6335.860149478074
1712209409064,-7522.231617075857
1712209409105,-7313.2311842776835
1712209409145,-6142.669985730434
1712209409185,-1833.0922012273222
1712209409225,1452.5706004679669
1712209409265,3510.8221283741295
1712209409306,7301.131859117188
1712209409345,9347.569975917228
1712209409385,10402.533652673941
1712209409425,6247.315848953556
1712209409465,-3689.8709308330435
1712209409506,-10255.396771182306
1712209409546,-11748.361269188114
1712209409586,-11261.05430592387
1712209409626,-8228.66841533687
1712209409666,-4378.28101329552
1712209409707,-2417.264005965553
1712209409746,-1425.9015798638575
1712209409786,-1181.6434638428036
1712209409826,382.372031789273
1712209409867,2835.872968041571
1712209409907,4280.113476542523
1712209409947,4953.113842824241
1712209409987,6934.437198236119
1712209410027,10094.907307662535
1712209410067,12861.716448223218
1712209410108,11446.694431022974
1712209410147,-804.943148647435
1712209410187,-11969.638055206276
1712209410228,-14943.34106636676
1712209410267,-14809.855095403269
1712209410308,-12956.49721837975
1712209410348,-9876.299789212877
1712209410388,-6736.9162781061605
1712209410428,-5821.622409362812
1712209410468,-6570.786837444641
1712209410509,-5429.135701669147
1712209410548,-2520.648843055358
1712209410588,-101.75671297172084
1712209410628,3349.0144202092197
1712209410669,6165.9757823525
1712209410709,9248.004815645982
1712209410749,11099.550078816246
1712209410789,12177.342188899405
1712209410829,3804.552714898251
1712209410869,-8886.426147228107
1712209410910,-14139.117799560074
1712209410949,-14961.92115080962
1712209410989,-13442.089990581851
1712209411030,-12380.240592372138
1712209411070,-10403.670369612752
1712209411110,-9417.303068578942
1712209411150,-9268.886624997947
1712209411190,-7766.333431231789
1712209411230,-5445.342889028136
1712209411270,-2692.011673707515
1712209411311,707.0753978602588
1712209411350,3665.437662771903
1712209411390,6324.081277577905
1712209411431,9070.16726957215
1712209411471,11429.82605053205
1712209411512,12730.491074039135
1712209411551,6489.283316588961
1712209411591,-4722.1092640380375
1712209411631,-8860.681031378685
1712209411672,-8734.000634504948
1712209411712,-7250.42743497435
1712209411752,-5064.589563567657
1712209411792,-2946.5371635602787
1712209411832,-2119.872354730498
1712209411872,-1909.9176434732508
1712209411913,-962.246717418544
1712209411952,1661.2326397600118
1712209411992,4391.967784982175
1712209412033,7498.607348974561
1712209412073,10121.827855986077
1712209412114,12003.655949500855
1712209412153,13873.228180159116
1712209412193,15812.045872504357
1712209412233,11227.834596569883
1712209412274,-580.2349020373076
1712209412314,-5965.13818224892
1712209412354,-6029.766825423576
1712209412394,-3808.174229007447
1712209412434,-821.6295100226998
1712209412474,1220.160955242347
1712209412515,1716.3534589731134
1712209412554,2079.8492176644504
1712209412594,2818.378552248236
1712209412635,4256.7541000710335
1712209412675,6824.435044483282
1712209412715,9730.623648161069
1712209412755,12034.724867671728
1712209412795,14326.84751618607
1712209412835,15935.604939415585
1712209412875,17582.708175339736
1712209412916,11668.425098784734
1712209412955,-1841.4366430498194
1712209412996,-7865.586744222557
1712209413036,-8562.977013026131
1712209413076,-7243.057608725503
1712209413117,-4929.445064303465
1712209413156,-2969.5582201052457
1712209413196,-2542.5165310218
1712209413236,-3070.7664420932997
1712209413276,-2552.1451413775794
1712209413317,-1192.0046890340745
1712209413357,1863.3841235227883
1712209413397,4527.813295075903
1712209413437,7819.782239758177
1712209413477,9857.819555928465
1712209413518,12167.753088504076
1712209413557,14049.115116019268
1712209413598,14824.267349762376
1712209413638,7779.572123689344
1712209413678,-5954.289981262758
1712209413719,-11437.164521208964
1712209413758,-12027.186643621419
1712209413798,-10087.689563319786
1712209413838,-8460.358559202868
1712209413878,-6814.861534995958
1712209413919,-5978.830253454857
1712209413958,-5640.329203373985
1712209413998,-5028.471318062162
1712209414039,-3403.297780930996
1712209414079,-931.417809008155
1712209414119,1891.6487604228314
1712209414159,4695.3792729696725
1712209414199,7251.6904847119
1712209414239,9087.811318123946
1712209414279,10918.611069096252
1712209414320,12805.533056663815
1712209414359,14283.99734090548
1712209414399,12363.675418700557
1712209414440,132.5001346853096
1712209414480,-9164.596732279286
1712209414520,-10648.674177697161
1712209414560,-9530.845551508479
1712209414600,-7134.496014563367
1712209414640,-5026.840645417804
1712209414680,-3538.0973591092043
1712209414721,-3617.2256979206577
1712209414760,-3357.5905297095887
1712209414800,-1776.7476475122385
1712209414840,355.86607602471486
1712209414881,3580.1198015154805
1712209414921,6421.743159055943
1712209414961,8879.610666443128
1712209415001,11003.869036624674
1712209415041,12773.246809990844
1712209415081,14269.82289994089
1712209415122,14323.33870983473
1712209415161,5715.070629087742
1712209415201,-5197.938853222178
1712209415241,-8892.432180270553
1712209415282,-7806.9396693648305
1712209415322,-5540.179521731101
1712209415362,-2409.805410457542
1712209415402,-250.02897238754667
1712209415442,-98.91171844373457
1712209415482,-609.6368080065586
1712209415523,243.87754879379645
1712209415562,1723.8304921695963
1712209415602,4015.4078170838766
1712209415642,6825.218394252472
1712209415682,9294.104290077463
1712209415723,10619.491387025919
1712209415763,12508.000992537243
1712209415803,14226.279409358278
1712209415843,15930.098235168029
1712209415883,12287.237045965623
1712209415924,-652.406465412816
1712209415963,-9480.812836426077
1712209416003,-11291.588964778464
1712209416043,-10184.789477043552
1712209416083,-8206.768929606536
1712209416124,-5967.257536256686
1712209416164,-4708.010954642668
1712209416204,-5642.357355190441
1712209416244,-5355.407972257584
1712209416284,-4145.489044149173
1712209416325,-1239.8562630717643
1712209416364,1896.443678472191
1712209416404,5201.781839257805
1712209416444,8331.750235147774
1712209416487,10755.125829732511
1712209416527,12976.707826100755
1712209416567,14091.684976850403
1712209416607,15736.256518628681
1712209416647,13523.541344047058
1712209416687,1045.6148666134104
1712209416728,-8974.364092991222
1712209416767,-11743.27733533131
1712209416807,-10556.948115116451
1712209416848,-8934.879820676288
1712209416888,-6731.363343953155
1712209416928,-5856.045922182035
1712209416968,-5354.791701362934
1712209417008,-4757.122128101764
1712209417048,-3365.484436407918
1712209417088,-900.991663757246
1712209417129,1301.4514502999373
1712209417168,4315.2087717331015
1712209417209,6842.147564858664
1712209417249,9601.173856666079
1712209417289,11551.773312955629
1712209417330,13336.570645015687
1712209417369,14913.531063959701
1712209417409,15873.661182711832
1712209417449,10341.324363307096
1712209417489,-2521.3417583247647
1712209417530,-9062.159959947458
1712209417570,-9437.968347148737
1712209417610,-7332.699023307301
1712209417650,-5636.347433643881
1712209417690,-3612.379141399637
1712209417731,-3624.2964712679386
1712209417770,-4353.617641684366
1712209417810,-4474.0275932997465
1712209417851,-2807.977388497442
1712209417891,-638.6879392052069
1712209417931,1773.2199717557523
1712209417971,3919.8002238394693
1712209418011,6430.635631585959
1712209418051,9130.259091403335
1712209418091,10745.20751848002
1712209418132,12195.189302521292
1712209418172,5632.372298567556
1712209418211,-5373.839473075466
1712209418252,-10391.057152658701
1712209418292,-10505.662101692753
1712209418332,-8540.162566643907
1712209418372,-5962.386468430283
1712209418412,-3852.396410054993
1712209418452,-2933.231504911091
1712209418492,-3090.514209523564
1712209418533,-2566.222098423168
1712209418573,-666.180636332836
1712209418613,1897.6526742668357
1712209418653,5114.799970447086
1712209418693,7961.4605530689005
1712209418734,10101.982642752817
1712209418773,11883.83191614272
1712209418813,13349.450637431117
1712209418853,14541.169379424304
1712209418894,10591.738064405508
1712209418934,-3372.4027815284207
1712209418974,-12239.399202295579
1712209419014,-13814.631151456619
1712209419054,-13121.224225969054
1712209419094,-12210.189801656175
1712209419135,-11166.012826198246
1712209419174,-10048.176381614525
1712209419215,-9644.540292097721
1712209419255,-8899.289455626626
1712209419295,-7604.372510986868
1712209419336,-5566.778561272193
1712209419375,-2658.523460163735
1712209419415,569.9107757681049
1712209419455,3307.682876755949
1712209419496,5025.939467341639
1712209419536,7253.074159629643
1712209419576,9337.245533333626
1712209419616,6762.627524561714
1712209419656,-7495.059580347268
1712209419696,-16392.662923639175
1712209419737,-18986.718669918366
1712209419776,-18348.917398390826
1712209419816,-16988.099018080626
1712209419857,-15341.972191436216
1712209419897,-14073.117066568462
1712209419937,-14450.220552682178
1712209419977,-13746.034520630259
1712209420017,-12547.995027056197
1712209420057,-9498.574913862394
1712209420097,-6241.933240728453
1712209420138,-2664.6242281864397
1712209420177,-5.728742494480684
1712209420218,2986.7559423667844
1712209420258,5200.794643179979
1712209420298,7320.108996332623
1712209420339,8360.263776319567
1712209420378,-1098.5177339054644
1712209420418,-12887.047375830356
1712209420458,-17916.63298466103
1712209420498,-16696.649887665175
1712209420539,-14347.454122776166
1712209420579,-12953.784340064507
1712209420618,-12973.570061242674
1712209420659,-13541.800653890241
1712209420699,-12690.670730476268
1712209420739,-10217.9924901966
1712209420779,-6950.539236712037
1712209420819,-4502.240516020218
1712209420859,-1225.5183540598955
1712209420899,1291.8654759353958
1712209420940,3623.18946405733
1712209420979,5526.038110639434
1712209421019,4316.582337364554
1712209421060,-7996.4375593864825
1712209421099,-16980.219790078932
1712209421140,-18851.62297686655
1712209421180,-17979.558925203048
1712209421220,-15339.13818380516
1712209421260,-13038.999958563596
1712209421300,-11871.432550416794
1712209421341,-12102.911649526563
1712209421380,-11813.574366621906
1712209421421,-10356.331333625596
1712209421460,-7579.4998101233505
1712209421501,-4814.645490441937
1712209421542,-2213.1686781761236
1712209421581,214.27286730147898
1712209421621,2445.732920575887
1712209421661,4248.000995910959
1712209421701,6121.436068587005
1712209421742,4366.354526772397
1712209421781,-8229.724488131236
1712209421821,-18052.007858579047
1712209421861,-20411.031182151288
1712209421902,-19776.394857711857
1712209421942,-17831.467061223695
1712209421982,-15884.43696521828
1712209422022,-14910.628960427362
1712209422062,-15028.254586274037
1712209422102,-14475.715000940952
1712209422143,-13671.436049919575
1712209422182,-10832.617937589996
1712209422222,-7949.072352522053
1712209422262,-5297.161429518834
1712209422302,-2039.6548896927852
1712209422343,449.78768557612784
1712209422383,2737.384954450652
1712209422423,4352.7244647704065
1712209422463,6380.065051015466
1712209422503,505.0574963192921
1712209422544,-12796.8485011952
1712209422583,-19202.710552400444
1712209422623,-20211.098785570357
1712209422663,-19615.704667805927
1712209422704,-18174.879450419918
1712209422744,-16692.250765350647
1712209422784,-15717.514791593421
1712209422824,-14930.71993351588
1712209422864,-13675.205929992022
1712209422904,-10951.78904854972
1712209422945,-8058.681987229269
1712209422984,-4871.601891856408
1712209423024,-1739.2252976028249
1712209423064,272.8037814341951
1712209423105,2113.4422374239657
1712209423145,3933.7682726634666
1712209423185,6107.534162031487
1712209423225,7582.485647713533
1712209423265,7369.245161548955
1712209423305,149.6645750128664
1712209423346,-5905.135765924584
1712209423385,-7304.865289072506
1712209423425,-5986.012449836824
1712209423465,-5028.84303212259
1712209423505,-2977.2280083540827
1712209423546,-1531.3162625185214
1712209423586,-681.6039466147777
1712209423626,-103.41688798251562
1712209423666,570.3421775209717
1712209423706,3562.185097712325
1712209423747,6069.016558935866
1712209423786,9480.337244838476
1712209423826,13680.70635615522
1712209423866,18312.571815956617
1712209423907,23947.193705946673
1712209423947,32225.48906087689
1712209423987,39257.56915444136
1712209424027,41156.74770327541
1712209424067,33391.49882144877
1712209424107,33290.13921642862
1712209424148,37466.16538698645
1712209424187,43601.31995286816
1712209424227,49094.21699655894
1712209424268,51788.05307177268
1712209424308,52269.31257187622
1712209424348,50772.44104921399
1712209424388,48560.62468864117
1712209424428,46615.468667990994
1712209424468,45427.49286285206
1712209424508,44103.48462447571
1712209424549,44181.84365913924
1712209424588,41204.09821286751
1712209424629,38851.4127678955
1712209424669,35863.79709886853
1712209424709,33895.34048755653
1712209424750,33150.35676524462
1712209424789,33116.30433906452
1712209424829,26520.42166975513
1712209424869,16064.745405401569
1712209424909,18746.44343733834
1712209424950,23181.952864116523
1712209424990,27631.52122059418
1712209425030,32877.32050637109
1712209425070,36988.6750968541
1712209425110,38153.32120850659
1712209425151,37207.49281920213
1712209425190,36626.579119437374
1712209425230,35759.56250837026
1712209425271,33028.41941028042
1712209425311,30226.05410358752
1712209425351,31456.57031649002
1712209425391,31442.776194078382
1712209425431,33052.21745994268
1712209425471,34712.92709685676
1712209425511,38460.79397200141
1712209425552,39670.85820854176
1712209425591,40817.35821610363
1712209425632,35685.42919923365
1712209425672,24217.324390680064
1712209425712,19810.232404842507
1712209425753,20222.7908842396
1712209425792,22110.365880813915
1712209425832,22487.725384930847
1712209425873,23089.101311963517
1712209425912,22514.401036429685
1712209425953,24113.276461755857
1712209425993,25004.65266213729
1712209426033,25011.919057185994
1712209426073,25128.610560543835
1712209426113,28447.664337150985
1712209426154,30172.91868669726
1712209426193,30403.68911278341
1712209426234,31935.704798224382
1712209426274,33196.89093588153
1712209426314,32472.33815980004
1712209426355,31695.03561980161
1712209426394,30971.004737652605
1712209426434,24675.8012376111
1712209426475,16080.19520208845
1712209426515,14290.9613870834
1712209426555,15355.103059742134
1712209426595,18037.13495637756
1712209426635,20074.704559886828
1712209426675,21336.00239082612
1712209426715,20694.58947958285
1712209426756,22334.024185456336
1712209426796,22207.636526783463
1712209426836,22923.957243222743
1712209426876,23501.407354143914
1712209426916,23711.34195242636
1712209426957,23792.69729000097
1712209426996,23845.674718801165
1712209427036,23970.77272074856
1712209427077,24418.340071402956
1712209427117,24360.19793190062
1712209427157,17716.88409723388
1712209427197,6686.285286764614
1712209427237,3418.2816361438017
1712209427277,4370.440564123914
1712209427317,5327.491913956124
1712209427358,5823.284143918427
1712209427397,5110.558119666297
1712209427437,5859.523963205051
1712209427477,5273.678298789542
1712209427517,5383.217493522447
1712209427558,6276.953958844766
1712209427598,8703.000360618578
1712209427638,10460.966442651115
1712209427678,12304.484944361262
1712209427718,13947.139867708087
1712209427759,14267.533119475003
1712209427798,15645.337477580411
1712209427838,16712.71357239131
1712209427878,15705.161765542347
1712209427918,11175.92699291464
1712209427959,-134.95828253496438
1712209427998,-3114.69415695942
1712209428039,-2435.6144904622342
1712209428079,-2033.0789531976916
1712209428119,-2056.9710155692883
1712209428160,-1492.013253748417
1712209428199,-658.9554490880109
1712209428239,-360.10914293234237
1712209428279,678.3978133567143
1712209428319,2686.2526071113534
1712209428360,2448.1072774699423
1712209428399,865.2150490521453
1712209428439,530.1195173412561
1712209428480,106.13170746457763
1712209428520,471.19467904698104
1712209428560,1076.5155842478853
1712209428600,2216.1750775333494
1712209428640,3509.0435978677124
1712209428680,1390.3653526932467
1712209428720,-10463.284939249512
1712209428761,-16971.137750358088
1712209428800,-18815.656029453035
1712209428840,-18029.73503755266
1712209428881,-17364.33495860547
1712209428921,-15938.8201884944
1712209428962,-15258.920060414355
1712209429001,-15805.82441278873
1712209429041,-15691.934154528659
1712209429081,-14696.257540530525
1712209429122,-12878.325020016637
1712209429162,-10777.96589642507
1712209429201,-8480.921822459437
1712209429242,-6573.588048720732
1712209429282,-4615.17631017766
1712209429322,-2984.3103057155386
1712209429363,-936.6912778001279
1712209429402,447.0410995555576
1712209429442,-2097.4482030130457
1712209429482,-11150.58638213249
1712209429522,-17261.74611634342
1712209429563,-19268.25260621705
1712209429603,-18680.646200129762
1712209429643,-17039.437750739977
1712209429683,-14920.195632513613
1712209429723,-14427.240117855603
1712209429764,-14087.979415644892
1712209429803,-13700.392275739228
1712209429843,-12395.338881127536
1712209429883,-10413.770381208975
1712209429923,-7993.423760034144
1712209429964,-5340.206295253709
1712209430004,-3470.135864650132
1712209430044,-2303.5012970929965
1712209430084,-175.7506395895034
1712209430124,888.1598784234375
1712209430165,140.44441618933342
1712209430204,-9458.687973645981
1712209430244,-18306.366492065135
1712209430285,-21439.911941938335
1712209430325,-21348.999737996608
1712209430365,-20067.159690791275
1712209430405,-18561.41239254782
1712209430445,-17851.32817194285
1712209430485,-18108.73264636472
1712209430525,-17883.271276145708
1712209430566,-16742.96146475617
1712209430606,-14056.741294576786
1712209430646,-11301.392098442186
1712209430686,-8378.632278789068
1712209430726,-5787.325687190983
1712209430767,-3084.6662246126216
1712209430806,-896.677770158276
1712209430846,3914.303884395398
1712209430886,6931.8969093461055
1712209430927,9166.195519308094
1712209430967,5347.866005973192
1712209431007,-5088.854210640304
1712209431047,-10650.345716395415
1712209431087,-12642.98025070317
1712209431127,-13388.75770693249
1712209431168,-12485.693974806229
1712209431207,-11078.048050592188
1712209431247,-11414.12899231026
1712209431288,-11059.46222684905
1712209431328,-10544.154404996196
1712209431368,-9912.857036505593
1712209431408,-8186.866721182829
1712209431448,-6296.308103051735
1712209431488,-3740.4671804341488
1712209431529,-1096.3523311736062
1712209431569,1164.9233594792895
1712209431609,2969.6880752982106
1712209431649,4565.318712102715
1712209431689,5322.700085029006
1712209431729,6221.129100949969
1712209431770,-641.5178147940896
1712209431809,-9506.650388915557
1712209431849,-13820.750537510728
1712209431890,-15474.697735552676
1712209431930,-14387.587307959562
1712209431970,-12570.550916329492
1712209432010,-10427.142163308105
1712209432050,-9921.664729424287
1712209432090,-8924.368442335632
1712209432131,-8382.540732698515
1712209432171,-6315.814482733142
1712209432211,-3738.750991418492
1712209432251,-1581.0385808399878
1712209432291,187.75297659425996
1712209432331,2302.4736016960815
1712209432372,3743.0152047234587
1712209432411,5159.290925991721
1712209432451,5869.71546036494
1712209432492,5823.947342441417
1712209432532,748.4961265325546
1712209432573,-8619.946456538979
1712209432612,-12754.046871961094
1712209432652,-12762.37146186037
1712209432692,-11376.228720512474
1712209432733,-8746.553767681587
1712209432773,-6940.129650217947
1712209432813,-7271.632862980245
1712209432853,-7544.813502573641
1712209432893,-6471.868023029529
1712209432933,-5034.981294594938
1712209432974,-3076.8401055191644
1712209433014,-1366.2268145226408
1712209433054,624.5033923974261
1712209433094,2085.9425126847345
1712209433134,3848.1341942432337
1712209433175,5904.966255297884
1712209433214,5124.515156436246
1712209433254,-4027.794334550388
1712209433294,-13170.331036125543
1712209433335,-16860.191473087296
1712209433375,-15370.450199895306
1712209433415,-12910.286829275079
1712209433455,-11628.465089426143
1712209433495,-10918.913750413805
1712209433535,-9960.164442715468
1712209433576,-8740.548937098123
1712209433615,-7112.163991479902
1712209433655,-4290.868210441666
1712209433695,-1884.7043793313205
1712209433735,581.3997748754919
1712209433776,3295.5624722873326
1712209433816,5145.255515788915
1712209433856,6415.876604067162
1712209433896,7674.821866376791
1712209433936,1151.5376872653142
1712209433977,-9498.69551517209
1712209434016,-15415.909496965352
1712209434056,-16995.868009896483
1712209434096,-16002.532961149933
1712209434136,-14778.957701414824
1712209434177,-12776.053953454597
1712209434217,-11772.668369657127
1712209434257,-10711.117243051296
1712209434297,-9883.529879212845
1712209434337,-8150.337574938778
1712209434378,-5532.7191995456815
1712209434417,-2735.300778497942
1712209434457,-442.63104617991485
1712209434497,1994.054399708286
1712209434538,3732.4372553951107
1712209434578,5086.157190885395
1712209434618,6826.407176664565
1712209434658,8577.85572024621
1712209434698,6435.93298258353
1712209434738,-3509.443248787429
1712209434779,-11948.314995566383
1712209434818,-14520.392022550106
1712209434858,-13496.27351610642
1712209434898,-11439.372025637655
1712209434938,-10108.337679566583
1712209434979,-8767.416478680447
1712209435019,-8496.584397478495
1712209435059,-8292.006127027795
1712209435099,-6765.991940475069
1712209435139,-4288.427309882361
1712209435180,-1826.3073124296498
1712209435219,1636.7784914206713
1712209435259,4220.92442341242
1712209435299,6060.091084274929
1712209435339,7360.640340440907
1712209435380,9724.958238531603
1712209435420,11601.22501153592
1712209435460,12595.267476833891
1712209435500,13311.19694165769
1712209435543,6042.487447391264
1712209435581,-3758.853600333445
1712209435620,-7258.875129594002
1712209435660,-7442.943114464171
1712209435700,-7701.191825589165
1712209435741,-5988.493072831072
1712209435781,-4370.702718686778
1712209435821,-4242.9258253432345
1712209435861,-4912.719956936315
1712209435901,-4362.147234765813
1712209435941,-3008.703287814278
1712209435982,-976.1415016246028
1712209436021,1020.1375515337568
1712209436061,3022.0782696625683
1712209436102,4680.077794955578
1712209436142,6167.118068207055
1712209436182,7292.423927011434
1712209436222,9406.656086839736
1712209436262,8429.182179374155
1712209436302,-1920.910980039509
1712209436342,-11337.943457596004
1712209436383,-15255.19182708906
1712209436422,-15286.483617545571
1712209436463,-14527.46739892941
1712209436503,-13001.14770915499
1712209436543,-12052.944527086802
1712209436584,-11457.27843714063
1712209436623,-10404.710348855471
1712209436663,-9844.221663845005
1712209436703,-7927.536219145171
1712209436743,-5339.43108005682
1712209436784,-2669.5069889088627
1712209436824,-594.6617971905507
1712209436864,1541.7875779708847
1712209436904,2612.4059952588286
1712209436944,4047.0438499280717
1712209436985,7164.320600961801
1712209437024,8541.589962563477
1712209437064,4.721819996833801
1712209437104,-11089.761442905758
1712209437145,-15504.344710743055
1712209437185,-16454.51625900343
1712209437225,-15469.923312677536
1712209437265,-13144.174794737715
1712209437305,-11338.892757438123
1712209437345,-9870.683305635815
1712209437386,-9438.779735608958
1712209437426,-8058.860594831407
1712209437466,-6080.98758025025
1712209437506,-3901.7698599251453
1712209437546,-1516.0671221408993
1712209437587,1114.7499785346445
1712209437626,3543.675294911489
1712209437666,5787.375139564741
1712209437706,7725.315487432759
1712209437749,9512.206061792094
1712209437787,10756.937402744778
1712209437827,10437.21283787326
1712209437867,3290.5098349829204
1712209437907,-6747.333163138945
1712209437947,-10983.860186957521
1712209437988,-11082.858718296979
1712209438027,-9216.101013923297
1712209438067,-7077.044530038256
1712209438108,-5496.331089336891
1712209438148,-4883.2905067445245
1712209438189,-4972.652681719279
1712209438228,-4475.806588115171
1712209438268,-2421.8763746793848
1712209438308,-622.7559529989958
1712209438348,1872.0358673620503
1712209438389,3703.011898231227
1712209438429,5290.651420874288
1712209438469,6837.853492951021
1712209438509,8642.165051524295
1712209438549,9956.069056547247
1712209438590,7605.468314901693
1712209438629,-2795.8981616692618
1712209438670,-10050.157663680613
1712209438710,-12397.11446126015
1712209438750,-11497.806592824403
1712209438791,-9614.898231316125
1712209438830,-7240.480622607749
1712209438870,-6240.969689694233
1712209438910,-6095.766546677565
1712209438951,-5777.487757937517
1712209438991,-4290.029147293419
1712209439031,-1799.6053571256343
1712209439071,1171.433888466796
1712209439111,4264.669514712878
1712209439151,6408.709444720065
1712209439192,8801.037709093187
1712209439231,10475.403996894602
1712209439271,12152.974883912131
1712209439312,12953.399562068284
1712209439352,11510.660018304596
1712209439393,687.0456765291747
1712209439432,-9945.497699774802
1712209439472,-13217.009410195518
1712209439512,-12712.976743543288
1712209439553,-11719.702146339696
1712209439594,-10162.339664964005
1712209439633,-9395.397290610708
1712209439673,-8634.55291096284
1712209439713,-7864.825560986763
1712209439753,-6293.0977448523045
1712209439794,-4408.43223868194
1712209439833,-1863.4850518873427
1712209439873,1136.5125673911534
1712209439913,4176.961235804949
1712209439956,6785.944441970438
1712209439994,9230.369999991963
1712209440034,10866.470776606118
1712209440074,13483.039820015198
1712209440114,14988.94773128163
1712209440154,13829.18029600475
1712209440195,2935.1861973681953
1712209440234,-8273.078309789067
1712209440274,-12143.605982240755
1712209440314,-12638.832310496364
1712209440354,-11686.803929812275
1712209440395,-9920.704320007935
1712209440435,-8955.454723736737
1712209440475,-8771.975899342215
1712209440515,-8127.088354778709
1712209440555,-6938.510881262831
1712209440596,-4532.126011549495
1712209440635,-1890.3525703931227
1712209440675,1000.7988837582525
1712209440715,3500.0600660443306
1712209440755,5780.872933509061
1712209440796,7896.847135182703
1712209440836,9693.113204776077
1712209440876,11735.713661729358
1712209440916,13656.923825561069
1712209440956,14078.86833959166
1712209440997,5632.235077359248
1712209441036,-5866.492541440297
1712209441076,-10781.511581502622
1712209441116,-11286.421882722527
1712209441157,-10018.33552070288
1712209441197,-7929.472107643727
1712209441237,-7002.787297255127
1712209441277,-6486.111361705465
1712209441317,-6606.610503287986
1712209441357,-6089.605789724737
1712209441398,-4434.093549775891
1712209441437,-1498.2134388699196
1712209441477,1054.1090121548623
1712209441518,3428.9377802915405
1712209441558,5551.603509762324
1712209441598,7868.203830414452
1712209441638,9622.584176698001
1712209441678,11049.832262069918
1712209441718,10880.374781567138
1712209441758,1759.7065028317738
1712209441799,-8865.50812249002
1712209441838,-12645.804475057637
1712209441879,-12439.306681735674
1712209441918,-10861.086605787277
1712209441959,-8577.937393908855
1712209442000,-7021.764619808644
1712209442039,-7103.8899965866
1712209442079,-7222.154000962153
1712209442119,-6513.739219347015
1712209442159,-4349.226908136625
1712209442200,-1943.0726141713094
1712209442240,820.5217957503628
1712209442280,3241.5484327245504
1712209442320,5929.14666689327
1712209442360,8362.149905776605
1712209442401,10102.028006995097
1712209442440,11662.886212669779
1712209442480,13243.086761984276
1712209442520,11544.703497688286
1712209442560,-1003.7076808942948
1712209442601,-11654.1671357234
1712209442641,-15260.121234885184
1712209442681,-15483.35962067591
1712209442721,-15031.024307006737
1712209442761,-13552.589653997216
1712209442802,-12501.35967903724
1712209442841,-12077.060614416143
1712209442881,-12019.361284495331
1712209442921,-11180.513566190843
1712209442962,-8450.049093247857
1712209443002,-5684.098764539463
1712209443042,-3636.820792234037
1712209443082,-919.7234248435125
1712209443122,1799.7155446961988
1712209443162,3917.800029320875
1712209443203,5507.663490938954
1712209443242,7558.891520509031
1712209443282,9385.550136611331
1712209443323,10301.229978913208
1712209443363,2589.5090251890942
1712209443403,-9695.643625620287
1712209443443,-15138.698243343271
1712209443483,-15909.77841052832
1712209443523,-14794.769305382855
1712209443563,-13672.118105707224
1712209443604,-12170.717972127255
1712209443643,-11505.458395698573
1712209443684,-10632.01616334566
1712209443724,-9950.765474738786
1712209443764,-8100.032116426621
1712209443805,-5814.87359194085
1712209443844,-2476.5694759020116
1712209443884,461.45614777924493
1712209443924,3168.01666708244
1712209443964,5725.46474131383
1712209444005,8514.50931203179
1712209444045,9887.249551404035
1712209444085,11524.035654052626
1712209444125,11605.343497644179
1712209444165,3092.990542703541
1712209444206,-7808.048033490311
1712209444245,-12574.877171216533
1712209444285,-13432.796728955116
1712209444325,-11929.995032711886
1712209444366,-9724.939538613893
1712209444407,-8296.204740264686
1712209444446,-7738.499747012509
1712209444486,-7432.162557481322
1712209444526,-6479.631918866653
1712209444566,-4674.724207092542
1712209444607,-2317.101847337326
1712209444647,476.1157316500321
1712209444687,2850.33391428669
1712209444727,4995.85204543313
1712209444767,7772.186181351077
1712209444808,9497.021218367154
1712209444847,10967.965611016378
1712209444887,8280.21037075459
1712209444927,-3821.2583018033765
1712209444968,-12005.188938752515
1712209445008,-13764.749989668839
1712209445048,-12901.948610096704
1712209445088,-11013.387393492972
1712209445128,-9788.396816268563
1712209445168,-8925.634158220142
1712209445209,-8794.619267699774
1712209445249,-8181.795715268701
1712209445289,-7436.314256760292
1712209445329,-5083.506017793436
1712209445369,-2507.591910852352
1712209445410,542.6118029546924
1712209445449,3540.193183137104
1712209445489,6081.229272722267
1712209445529,8770.025913941674
1712209445570,10927.64030922437
1712209445611,13032.81910484843
1712209445650,13527.11995772412
1712209445690,5898.968331223354
1712209445730,-8002.530875888187
1712209445770,-14688.310812190175
1712209445811,-16049.024762670044
1712209445851,-15609.091390771326
1712209445891,-14261.434758333955
1712209445931,-13264.56315510557
1712209445971,-12592.897960848175
1712209446012,-11894.03183560865
1712209446051,-10506.772053511813
1712209446091,-8127.081722696312
1712209446131,-4704.959643614711
1712209446171,-1652.7947934088297
1712209446212,1099.4280219697393
1712209446251,3540.4761583306827
1712209446291,5687.73748954921
1712209446331,7598.785603357479
1712209446371,9462.807134304894
1712209446412,10905.405557322316
1712209446452,4654.729683449492
1712209446492,-8017.585028491449
1712209446532,-14056.504409124609
1712209446572,-15286.972686466295
1712209446613,-14949.0261089392
1712209446652,-13438.639403548557
1712209446692,-12145.705317310058
1712209446732,-12301.202979439404
1712209446772,-12188.09498889139
1712209446813,-11515.552364617353
1712209446852,-10020.9939326616
1712209446893,-7826.813974658493
1712209446933,-4636.212818026077
1712209446973,-1834.673929186305
1712209447014,884.2682572295889
1712209447053,3417.7327049877495
1712209447093,5169.66086077597
1712209447133,6940.465990604367
1712209447173,4185.904022890609
1712209447214,-7066.076992376009
1712209447253,-14557.712675538845
1712209447293,-16966.03931567329
1712209447333,-16749.91267302446
1712209447374,-15365.565950126387
1712209447414,-12991.279300891329
1712209447454,-12072.81558775669
1712209447494,-11547.216445292346
1712209447534,-11250.403721284121
1712209447574,-9578.57624555286
1712209447615,-7427.124280633638
1712209447654,-4623.519562481437
1712209447694,-1517.136403704062
1712209447735,976.0330105414614
1712209447775,3484.508768699132
1712209447815,5748.050293596694
1712209447855,7630.327789754607
1712209447895,9858.434432400856
1712209447935,9555.170002545929
1712209447975,-746.3077160371467
1712209448016,-11315.466901057865
1712209448055,-14660.997883658856
1712209448095,-15314.750248392113
1712209448136,-14405.204918841831
1712209448176,-12612.53827786725
1712209448216,-11620.753166901879
1712209448256,-11038.239442238351
1712209448296,-10827.723774976563
1712209448336,-9714.537737988867
1712209448376,-7721.379335481208
1712209448417,-4872.143157040235
1712209448456,-1775.114081013482
1712209448497,840.1164716505446
1712209448536,2890.0287123734597
1712209448577,5339.208346976433
1712209448618,7333.233506934019
1712209448657,9537.376483381726
1712209448697,11251.215375829488
1712209448737,8319.102387650171
1712209448777,-4012.146445247112
1712209448818,-12625.207843201933
1712209448857,-14995.881216193084
1712209448897,-14701.46927391435
1712209448938,-13231.848700334318
1712209448978,-11614.525492300745
1712209449019,-10273.14050792274
1712209449058,-9496.015907539753
1712209449098,-9273.291873561684
1712209449138,-7360.519991990179
1712209449178,-4925.427828420419
1712209449219,-2003.2988860779442
1712209449259,933.8623990262859
1712209449299,3423.8695553082507
1712209449339,5863.639189535519
1712209449379,8375.218682056293
1712209449420,10924.049511950929
1712209449459,12802.277816219255
1712209449499,14223.52725667227
1712209449539,8367.2726532151
1712209449580,-2588.9865687869024
1712209449620,-8556.569288525498
1712209449660,-9328.457348262426
1712209449700,-8467.210802390473
1712209449740,-6609.503353395732
1712209449780,-5451.774775069207
1712209449821,-4545.05234226305
1712209449860,-4221.089801430004
1712209449900,-3326.9971420238726
1712209449941,-1670.4665387419518
1712209449980,437.3133932845667
1712209450021,3031.0664739948697
1712209450061,5336.452476127073
1712209450101,7516.166535534896
1712209450141,9528.445050545502
1712209450181,11775.490841316525
1712209450222,13402.01762000285
1712209450261,11409.172576173674
1712209450301,1437.4604594397824
1712209450342,-6047.422736754874
1712209450382,-8232.752489522798
1712209450423,-7802.912882931996
1712209450462,-5532.5332917259075
1712209450502,-3798.377622029744
1712209450542,-2929.81415142864
1712209450582,-2751.8655588156544
1712209450623,-2160.972736505326
1712209450663,-980.5136517034844
1712209450702,1182.3102072263137
1712209450743,3496.655025549233
1712209450783,5937.646668366622
1712209450824,8361.373958386946
1712209450863,10337.003859372344
1712209450903,12925.863480612868
1712209450943,14458.311150766443
1712209450983,16029.35345310159
1712209451024,11447.13193924632
1712209451064,-858.1000820256304
1712209451104,-8670.543332150206
1712209451144,-10030.437808014452
1712209451184,-9397.628338785376
1712209451225,-7905.118541826028
1712209451264,-6138.810519193765
1712209451304,-5155.527531428728
1712209451345,-4874.27090576035
1712209451385,-4047.6738694729283
1712209451425,-1982.7147733061574
1712209451465,-439.79271373990923
1712209451505,1974.2039292789996
1712209451545,4969.179025940597
1712209451585,7349.820689504268
1712209451626,8911.873892159201
1712209451666,11852.65225759428
1712209451706,14381.667089790339
1712209451746,15638.641351931961
1712209451786,11994.24273046013
1712209451827,-0.21077830623835325
1712209451866,-7783.906219360884
1712209451906,-9903.952802026179
1712209451947,-9876.121088078478
1712209451987,-8392.816165662836
1712209452028,-6088.766950108577
1712209452067,-5373.100655399496
1712209452107,-4918.871846169466
1712209452147,-4614.510122985113
1712209452187,-3327.2334233222064
1712209452228,-923.5603186548688
1712209452268,1128.9307910660282
1712209452308,3930.636135745328
1712209452348,6872.053791098762
1712209452388,9311.871454669861
1712209452429,10743.223959892057
1712209452469,12586.982618815033
1712209452508,14651.150751367211
1712209452549,12541.802729384508
1712209452648,1284.887970768381
1712209452689,-7352.230650620069
1712209452728,-9861.500425673556
1712209452768,-9987.570189401275
1712209452808,-7746.258607631084
1712209452848,-5151.526881895028
1712209452889,-3943.6308814368676
1712209452929,-3533.454998565372
1712209452969,-2699.9782196087763
1712209453009,-1338.412968543591
1712209453049,226.80116186011583
1712209453090,2517.8872807831503
1712209453129,5445.37233555899
1712209453169,7717.985578668304
1712209453209,10847.280574234668
1712209453249,12835.167778363451
1712209453290,14558.196692007594
1712209453329,15280.182075475343
1712209453370,10092.371676838957
1712209453410,-185.1781455867458
1712209453450,-5877.168871768285
1712209453491,-6335.860163001344
1712209453530,-5055.0559890982695
1712209453570,-3004.686067256611
1712209453610,-705.8755469804164
1712209453650,-111.48559245839715
1712209453691,-552.820150715299
1712209453731,-128.94565383647569
1712209453771,1674.9268076133449
1712209453811,3889.790312461788
1712209453851,6195.10196040431
1712209453892,9014.332504910883
1712209453931,11498.762684078654
1712209453971,13668.912807994988
1712209454011,15473.448451323435
1712209454051,14442.115336250048
1712209454092,3730.662354602013
1712209454131,-6028.913300310262
1712209454172,-9119.530365104321
1712209454212,-8204.169163911138
1712209454252,-6506.282485458534
1712209454293,-5033.6820053195115
1712209454332,-3870.145510569215
1712209454372,-3121.029088844545
1712209454412,-3239.221910497872
1712209454453,-2391.4121001441963
1712209454493,-715.2380019277334
1712209454533,1702.236046015285
1712209454573,4700.8685052013025
1712209454613,7689.045450373786
1712209454653,9564.630378552945
1712209454694,11899.32443474885
1712209454733,13854.222294851206
1712209454773,14244.498683458194
1712209454813,5802.490607353393
1712209454853,-6606.551685289014
1712209454894,-12309.780088479863
1712209454934,-12960.027765173
1712209454974,-12030.25189999817
1712209455014,-10647.735091097187
1712209455054,-8893.597177813295
1712209455095,-9747.0888613821
1712209455134,-10092.650645985967
1712209455174,-8991.162409980316
1712209455214,-7119.190555619774
1712209455254,-4524.515609971248
1712209455295,-1440.8747944517527
1712209455335,1628.599421812687
1712209455375,4409.17269459879
1712209455415,6900.364904727554
1712209455455,8949.029803764774
1712209455496,10656.389981500804
1712209455535,11282.323846004903
1712209455575,2572.9187593804672
1712209455615,-8152.552595837507
1712209455656,-12716.144610802177
1712209455696,-12430.997277067974
1712209455736,-11142.942662066314
1712209455776,-9084.214799544774
1712209455816,-7089.23137400439
1712209455856,-6831.4648291352205
1712209455897,-6883.203704338986
1712209455936,-6002.771686080378
1712209455976,-4164.582625035662
1712209456017,-1375.6082502936479
1712209456056,1519.4222693284974
1712209456097,4122.315505417297
1712209456137,6481.036755726207
1712209456177,8585.06219662656
1712209456217,10441.318637634395
1712209456257,11624.65032390249
1712209456298,12416.341271958314
1712209456337,3905.9697091332637
1712209456377,-5218.003864900209
1712209456417,-8638.303054013057
1712209456457,-9030.153514854144
1712209456498,-8035.398939283332
1712209456538,-5670.203143407591
1712209456578,-4334.650688676396
1712209456618,-4700.492469298653
1712209456658,-4799.174626919208
1712209456699,-4464.479700152297
1712209456738,-2746.232207003981
1712209456778,-374.32245816709474
1712209456818,1943.3699026333634
1712209456859,3465.4072385926265
1712209456899,5698.888936812291
1712209456939,8474.125680522993
1712209456979,10424.014748747926
1712209457019,9193.22296827985
1712209457059,-1866.9251574075315
1712209457100,-10772.026190179633
1712209457139,-13111.249194346135
1712209457179,-12561.151525189867
1712209457220,-10479.462460790528
1712209457260,-8010.531792897964
1712209457300,-6803.476932814112
1712209457340,-6397.217977301683
1712209457380,-5722.434442706872
1712209457420,-4217.272060915595
1712209457460,-1956.2505256379955
1712209457501,697.0311876495834
1712209457540,3979.395803744439
1712209457581,6826.453772406559
1712209457621,8755.856256559724
1712209457661,11216.57122972468
1712209457702,13441.45957997744
1712209457741,14966.11288756365
1712209457781,9835.820926595945
1712209457821,-3830.931053905748
1712209457861,-11219.522730728611
1712209457902,-12705.326374416007
1712209457942,-12144.177718372783
1712209457982,-10675.153205042472
1712209458022,-8908.052126366645
1712209458062,-7879.337352595758
1712209458103,-8136.691613505594
1712209458142,-7589.928587401519
1712209458183,-5969.666732776212
1712209458223,-3678.9859212257434
1712209458263,-1324.0700081924442
1712209458304,1303.0856638515834
1712209458345,4313.334793711081
1712209458386,6871.345179013442
1712209458426,9190.178532834165
1712209458466,11616.915763474535
1712209458507,9073.63214235357
1712209458547,-3568.8216778943315
1712209458587,-10227.656159991398
1712209458627,-11548.211203436833
1712209458668,-10964.13293800014
1712209458709,-9500.20506561338
1712209458748,-7571.6657875990495
1712209458789,-6229.46224822849
1712209458829,-5569.350272328127
1712209458869,-5191.72313958942
1712209458910,-3463.4765772207174
1712209458949,-1235.3711227350868
1712209458989,1381.7061822083779
1712209459029,4060.8545646525454
1712209459070,6689.043397315778
1712209459110,9514.564801386558
1712209459150,11664.198915654095
1712209459190,13896.654519346543
1712209459230,13498.349591231206
1712209459271,4350.518345422111
1712209459311,-6158.229122785386
1712209459351,-10154.92323549767
1712209459391,-10415.82805053587
1712209459431,-8607.578773281071
1712209459471,-6216.602096363436
1712209459512,-5166.207847688114
1712209459552,-4512.0109284305945
1712209459592,-4062.9273554389365
1712209459632,-3629.6461534795817
1712209459672,-2089.957069542259
1712209459713,-69.35928055038676
1712209459753,3026.845223854296
1712209459793,5648.790925365174
1712209459833,8303.560176523402
1712209459874,10455.415876834886
1712209459914,12452.416501885746
1712209459954,9794.223132450134
1712209459994,-2553.904605738353
1712209460035,-11310.350292752497
1712209460075,-13726.568542123772
1712209460116,-13327.804249917623
1712209460155,-11824.284930521622
1712209460196,-9593.67137968447
1712209460236,-8596.130632027052
1712209460276,-8445.468643632717
1712209460317,-7439.826679748483
1712209460357,-6024.450972897001
1712209460397,-4234.334880919196
1712209460437,-1856.284233927494
1712209460477,1019.6318728751503
1712209460518,4095.987783822464
1712209460558,6510.920997135341
1712209460598,8579.953522891505
1712209460638,11086.734473698772
1712209460679,13312.517879530322
1712209460720,8877.003259922378
1712209460759,-4801.254217222333
1712209460799,-12838.905080294702
1712209460840,-15143.91655541421
1712209460880,-14907.963148511248
1712209460921,-13693.717285781167
1712209460961,-11931.163438234711
1712209461001,-11006.867468281183
1712209461041,-10617.444110514363
1712209461082,-9738.24888249673
1712209461123,-8205.446818322642
1712209461162,-6196.627728948137
1712209461203,-3304.328181964811
1712209461243,-144.4884430943057
1712209461283,2820.363747299416
1712209461324,5577.2969069138635
1712209461363,7586.763610424008
1712209461404,9904.520287908614
1712209461444,12329.180980420206
1712209461484,10826.858843293507
1712209461525,-995.9190322495997
1712209461565,-10179.851189285982
1712209461605,-13154.120095406193
1712209461645,-12680.189175350824
1712209461686,-11025.665230584564
1712209461726,-8874.086003093049
1712209461766,-7762.584005775396
1712209461806,-6709.541437711567
1712209461846,-5665.876602788456
1712209461887,-4459.2554713033605
1712209461928,-2650.4641450308263
1712209461967,259.86661203065887
1712209462007,3205.4397379315924
1712209462048,6302.669789640466
1712209462088,9002.763956468552
1712209462129,11203.0206977739
1712209462169,12983.156201823615
1712209462209,15241.255755143007
1712209462249,14498.068571750075
1712209462289,4876.2122484648135
1712209462330,-5081.116294585867
1712209462370,-8649.260524245678
1712209462410,-8175.29236254096
1712209462450,-6118.529603135539
1712209462490,-3415.8210336684715
1712209462531,-1950.3131665359251
1712209462570,-1556.7194680147804
1712209462611,-1859.478045771597
1712209462651,-640.6257571140304
1712209462691,1113.0771201471798
1712209462732,3196.875092478702
1712209462772,5901.489188834326
1712209462812,7860.115022892598
1712209462852,10223.825236256933
1712209462892,11557.479648862965
1712209462933,13083.14697540435
1712209462973,13828.362527784891
1712209463013,6024.062403962947
1712209463053,-5907.5385405039415
1712209463093,-10624.146681820974
1712209463134,-11046.644153418718
1712209463174,-9696.753195046447
1712209463214,-7356.089946450433
1712209463254,-5483.427640109323
1712209463295,-4332.292131347582
1712209463336,-4296.256469517946
1712209463375,-3429.927231188398
1712209463415,-1642.3058458815794
1712209463456,1405.3891623825766
1712209463496,4205.792977803852
1712209463537,7659.4442330366
1712209463576,10258.388204033952
1712209463617,12811.385600286769
1712209463657,15234.02560554538
1712209463697,16824.586150666233
1712209463738,17965.032880067825
1712209463778,11463.024233972654
1712209463818,-1501.6677304215264
1712209463858,-8265.1789470464
1712209463898,-8959.074486404657
1712209463939,-8137.294277527602
1712209463979,-5946.225153816864
1712209464019,-4361.334566311445
1712209464059,-3383.4304587107617
1712209464100,-3050.3768584970385
1712209464141,-2748.929708636366
1712209464180,-230.86381661263295
1712209464221,2543.191557468381
1712209464261,5493.697567464318
1712209464301,8413.421901943628
1712209464342,11428.887452124385
1712209464381,13778.8802543059
1712209464422,16018.853563480312
1712209464462,17775.366929418407
1712209464502,19424.084387023002
1712209464543,20565.82052919548
1712209464583,14198.674824505579
1712209464623,1441.901291093789
1712209464663,-4543.480367836542
1712209464702,-5618.328529368853
1712209464741,-4567.010424082167
1712209464780,-2417.6777724879794
1712209464819,-1089.930577147752
1712209464858,-241.8879436419811
1712209464897,-328.3175037195906
1712209464936,319.7919125906192
1712209464975,1721.7871554372832
1712209465014,3833.0093263727613
1712209465053,5807.067827080842
1712209465092,7777.309421603801
1712209465131,13889.810213086195
1712209465170,15413.097188418265
1712209465209,17034.213855172275
1712209465248,16555.988522686763
1712209465287,8623.249385687755
1712209465326,-1603.6696791644208
1712209465365,-5067.725176183041
1712209465404,-4691.196791751776
1712209465443,-3262.157636577729
1712209465482,-826.981232224498
1712209465521,1100.8814413715154
1712209465560,1503.9982503198553
1712209465599,1365.9479241003282
1712209465638,2137.303608249873
1712209465677,3492.726915115956
1712209465716,6137.773392882431
1712209465755,8793.960158618167
1712209465794,11323.960372654255
1712209465833,13569.174801640213
1712209465872,15654.266043650452
1712209465911,17064.99885153747
1712209465950,18033.651996812783
1712209465989,11466.11338035902
1712209466028,-2186.9768193983473
1712209466067,-8864.696204485372
1712209466107,-10366.139635220869
1712209466147,-9416.778268859023
1712209466187,-7615.671844260767
1712209466227,-5621.51595317293
1712209466267,-4536.883270908147
1712209466307,-4431.715534847928
1712209466347,-3732.1098695702385
1712209466387,-2934.5361031522043
1712209466427,-699.1773336417973
1712209466467,2440.3499888265505
1712209466507,5191.609211018775
1712209466547,8127.398741814308
1712209466587,10336.577844216023
1712209466627,12114.096970992163
1712209466667,14207.568553887773
1712209466707,13996.366195562296
1712209466747,2909.438189672772
1712209466787,-8694.638222911628
1712209466827,-12471.467607638799
1712209466867,-12707.945795598906
1712209466907,-11568.54289236525
1712209466947,-9406.249878998846
1712209466987,-8092.044382894412
1712209467027,-7237.649533335585
1712209467067,-6769.305721541634
1712209467107,-5817.653703641379
1712209467147,-3580.763860092964
1712209467187,-805.156500174664
1712209467227,2137.949877037201
1712209467267,4863.2561045074835
1712209467307,7422.652401489904
1712209467347,9845.863955363631
1712209467387,11934.127956441604
1712209467427,13277.00750495703
1712209467467,9589.164844310377
1712209467507,-2737.7365159466863
1712209467547,-10974.43352403189
1712209467587,-12413.066700224299
1712209467627,-11506.696977034211
1712209467667,-9311.527112000389
1712209467707,-7571.135176576907
1712209467747,-7305.453501040116
1712209467787,-7216.511977385962
1712209467827,-7278.220322678797
1712209467867,-6295.739378650673
1712209467907,-4165.758041107794
1712209467947,-1544.645910889376
1712209467987,1128.0011557736434
1712209468027,3711.304765481036
1712209468067,6299.68041165825
1712209468107,8198.737334585749
1712209468147,10341.848088596947
1712209468187,9703.075634828303
1712209468227,-625.9324467468541
1712209468267,-11532.16849510651
1712209468307,-15769.753039771225
1712209468347,-15975.160296007758
1712209468387,-14551.011095552007
1712209468427,-12933.34139156132
1712209468467,-11866.55997260008
1712209468507,-11806.509094622917
1712209468547,-11475.838423928246
1712209468587,-10336.77300691721
1712209468627,-8534.892102920217
1712209468667,-5909.577881933656
1712209468707,-2863.6708873172756
1712209468747,133.38278206950054
1712209468787,2782.0789146556053
1712209468827,4895.316398642724
1712209468867,6887.6510932089295
1712209468907,8773.550219591707
1712209468947,10395.025277984329
1712209468987,5512.213366623502
1712209469027,-8194.94146321062
1712209469067,-15519.695893625496
1712209469107,-17579.44413620513
1712209469147,-16722.559672393603
1712209469187,-14988.701489442028
1712209469227,-13289.877193087945
1712209469267,-12824.88010951248
1712209469307,-12406.298528459389
1712209469347,-11970.246965391096
1712209469387,-10408.516686406452
1712209469427,-8329.337293708231
1712209469467,-4866.810740027577
1712209469507,-2432.937958764611
1712209469547,-279.9759291925002
1712209469587,1935.4308155463077
1712209469627,3589.7829771805555
1712209469667,5405.235283684451
1712209469707,7479.200637581991
1712209469747,10059.853289213497
1712209469787,8489.400150636677
1712209469827,-4427.828658282291
1712209469867,-13999.15444054734
1712209469907,-16521.61963606812
1712209469947,-16344.392707785126
1712209469987,-14783.359575189184
1712209470027,-12910.741106870119
1712209470067,-11876.618020930095
1712209470107,-11234.016799495323
1712209470147,-10952.289059723727
1712209470187,-9303.809415814234
1712209470227,-7433.007795027457
1712209470267,-4754.608132181922
1712209470307,-1666.6232539217453
1712209470347,658.9537286069244
1712209470387,3390.9414955233224
1712209470427,5871.615618867101
1712209470467,7864.677286379505
1712209470507,9680.239878679626
1712209470547,12274.476439235266
1712209470587,13243.877969749039
1712209470627,6416.946769640548
1712209470667,-5678.825304933824
1712209470707,-10532.327504669316
1712209470747,-11348.383597232401
1712209470787,-10171.319592843065
1712209470827,-8441.15305334027
1712209470867,-6853.623319839593
1712209470907,-5769.2984924139455
1712209470947,-5349.4778413439635
1712209470987,-4877.353217107011
1712209471027,-3498.7228929286357
1712209471067,-868.7300041932613
1712209471107,1184.4301138632
1712209471147,3665.5762706648093
1712209471187,5870.321718397317
1712209471227,8405.27532628877
1712209471267,10375.830523437355
1712209471307,12533.16708487668
1712209471347,14512.3626579314
1712209471387,13279.571208522655
1712209471427,2648.34512746986
1712209471467,-6094.39282495738
1712209471507,-8482.642166027334
1712209471547,-7623.748711115448
1712209471587,-5528.355852868874
1712209471627,-3528.98628480942
1712209471667,-2094.5671170759015
1712209471707,-2510.0943021823186
1712209471747,-2245.8192404829897
1712209471787,-1761.511400626041
1712209471827,330.29135121498257
1712209471867,2700.2851801195648
1712209471907,5009.4505974331405
1712209471947,7570.12348536076
1712209471987,9254.09678665828
1712209472027,11200.131631382974
1712209472067,11917.325236514676
1712209472107,4951.001573506044
1712209472147,-6488.730260961223
1712209472187,-11459.15124389343
1712209472227,-12303.996953318594
1712209472267,-10679.12259123358
1712209472307,-8212.584547340404
1712209472347,-6468.048798600445
1712209472387,-5352.429903387558
1712209472427,-5645.967709672172
1712209472467,-4170.429326832527
1712209472507,-3094.155760273803
1712209472547,-632.5392973534763
1712209472587,1629.578257072717
1712209472627,3850.5225401883945
1712209472667,6445.255304358667
1712209472707,8854.469928272301
1712209472747,10820.459027310368
1712209472787,12853.086744090775
1712209472827,7301.767059172504
1712209472867,-7053.022985931486
1712209472907,-13763.610057988204
1712209472947,-15741.658840959892
1712209472987,-14962.378680405673
1712209473027,-12944.281837449875
1712209473067,-11471.346949365688
1712209473107,-10459.250715784263
1712209473147,-9600.161916386802
1712209473187,-8992.410313650966
1712209473227,-7814.6463201616425
1712209473267,-5332.303825468523
1712209473307,-2418.443089351291
1712209473347,993.392334952252
1712209473387,3449.46848408808
1712209473427,6099.660382900387
1712209473467,8295.093722365564
1712209473507,10504.796680839267
1712209473547,11974.003609334584
1712209473587,11953.874961407622
1712209473627,1344.6206435915083
1712209473667,-10262.070836142637
1712209473707,-14143.727347477805
1712209473747,-14918.882653342094
1712209473787,-13905.084640776739
1712209473827,-11984.842449691612
1712209473867,-10810.936112578493
1712209473907,-10016.845791182714
1712209473947,-9761.1871170972
1712209473987,-8845.360054123681
1712209474027,-7261.014730780385
1712209474067,-4610.805086153094
1712209474107,-1604.445589928655
1712209474147,1225.8232861654833
1712209474187,4122.867474125698
1712209474227,6682.773015948478
1712209474267,9007.524511486292
1712209474307,10508.105470160022
1712209474347,12745.914380405797
1712209474387,14393.12496761512
1712209474427,14044.237200259697
1712209474467,3437.2121707035694
1712209474507,-8233.877656012308
1712209474547,-12488.389585699188
1712209474587,-12864.955978189595
1712209474627,-11631.472319671419
1712209474667,-9765.631778303301
1712209474707,-8627.219454111531
1712209474747,-8328.935638170224
1712209474787,-8156.4252137164585
1712209474827,-7038.938802369405
1712209474867,-4920.615840836894
1712209474907,-2208.1985027315095
1712209474947,389.34743191534653
1712209474987,2968.7763853338547
1712209475027,5590.379448323511
1712209475067,7869.3087690111715
1712209475107,9626.18642280437
1712209475147,11898.516634992324
1712209475187,13367.182145099854
1712209475227,14985.529851785162
1712209475267,11189.760333987884
1712209475307,-665.4696122505702
1712209475347,-7781.360472906847
1712209475387,-9189.695371133275
1712209475427,-7567.529600500595
1712209475467,-4820.42805827409
1712209475507,-2780.663821617374
1712209475547,-1890.1454014224
1712209475587,-2355.3584585662466
1712209475627,-2309.254368136404
1712209475667,-1551.4169421431143
1712209475707,865.0973251569085
1712209475747,3472.031960155582
1712209475787,5583.179061740404
1712209475827,8141.927671736106
1712209475867,10511.200385532109
1712209475907,12726.983084423468
1712209475947,14231.879315504804
1712209475987,15595.833900989965
1712209476027,13138.147562272381
1712209476067,984.6814961167984
1712209476107,-7980.931138574611
1712209476147,-10385.717436511535
1712209476187,-9724.754853126127
1712209476227,-7807.761946266983
1712209476267,-5588.735493606422
1712209476307,-4486.090672224294
1712209476347,-4764.617763982154
1712209476387,-5013.7656567860395
1712209476427,-4401.354516402353
1712209476467,-1877.5481777435634
1712209476507,947.091713310685
1712209476547,3481.5431929868646
1712209476587,6933.349780562101
1712209476627,9966.08054371737
1712209476667,12366.539432225283
1712209476707,14006.3974821202
1712209476747,15309.369629562832
1712209476787,16858.524155682884
1712209476827,17476.500577799045
1712209476867,8757.042453427333
1712209476907,-4912.769811642589
1712209476947,-10144.298095182283
1712209476987,-11029.490832527634
1712209477027,-10180.894903658656
1712209477067,-8204.98532888852
1712209477107,-6868.656460720114
1712209477147,-6542.4158110984135
1712209477187,-6883.935228270013
1712209477227,-6246.7671230128035
1712209477267,-4676.298642500304
1712209477307,-1935.8499901229516
1712209477347,401.99728898191825
1712209477387,2938.1517849161755
1712209477427,5108.956549745053
1712209477467,7071.445874703582
1712209477507,8795.364091467112
1712209477547,10460.798247985309
1712209477587,12281.494218782987
1712209477627,14660.942654290702
1712209477667,15380.957896126434
1712209477707,6909.192925133975
1712209477747,-6695.278717722744
1712209477787,-12145.506871317048
1712209477827,-12907.789302795427
1712209477867,-12535.209976116894
1712209477907,-11383.904016560642
1712209477947,-9750.414854101837
1712209477987,-8804.215282805962
1712209478027,-8576.51649166597
1712209478067,-7813.671903990675
1712209478107,-6585.238252780167
1712209478147,-3849.4681993557606
1712209478187,-1288.3508909805678
1712209478227,1088.7277363725007
1712209478267,3627.4223244867753
1712209478307,5699.753632983193
1712209478347,7798.408523594961
1712209478387,9739.44970444194
1712209478427,11628.410437061451
1712209478467,15435.571420880035
1712209478507,8771.19810018572
1712209478547,-3391.7906288909726
1712209478587,-9098.42709917482
1712209478627,-9485.193412246183
1712209478667,-8528.59029897512
1712209478707,-6196.661767248996
1712209478747,-4601.240588419139
1712209478787,-3816.069160841871
1712209478827,-4215.942365147173
1712209478867,-4083.933053916786
1712209478907,-2507.4457394024357
1712209478947,-193.92785691516474
1712209478987,2241.8624433712102
1712209479027,5244.420250417665
1712209479067,7645.897682728246
1712209479107,9738.76052630879
1712209479147,11807.58257154189
1712209479187,13579.617106781108
1712209479227,14878.011840505525
1712209479267,13636.062955290545
1712209479307,2975.449828329496
1712209479347,-6482.409301402047
1712209479387,-8903.628787095193
1712209479427,-8975.520129404962
1712209479467,-7252.747859903146
1712209479507,-4605.113915718161
1712209479547,-3302.135890720645
1712209479587,-3023.52301672101
1712209479627,-3087.939922402613
1712209479667,-2330.7081916239113
1712209479707,-675.2063283012249
1712209479747,1891.6485812701285
1712209479787,4277.194960725028
1712209479827,6443.261688601691
1712209479867,8695.255012726411
1712209479907,10812.033057383262
1712209479947,12961.591035135323
1712209479987,14235.146636464167
1712209480027,16258.673512511887
1712209480067,17592.431072024163
1712209480107,13658.750782126095
1712209480147,-345.95693134563044
1712209480187,-8638.164404650219
1712209480227,-10918.80394995492
1712209480267,-10615.785026404541
1712209480307,-9768.230778731173
1712209480347,-8448.462530527264
1712209480387,-7570.184910192154
1712209480427,-7434.485939915292
1712209480467,-6693.6578778019175
1712209480507,-5379.370977560291
1712209480547,-3410.270933191059
1712209480587,-1182.293417214416
1712209480627,1573.6024114727043
1712209480667,4258.786593588535
1712209480707,7063.643948689569
1712209480747,8996.788951457012
1712209480787,10757.708033266012
1712209480827,12081.08288299758
1712209480867,13862.016517142765
1712209480907,15939.427241230616
1712209480947,16152.156568507431
1712209480987,6456.532290670788
1712209481027,-6268.10193125857
1712209481067,-10798.181031168438
1712209481107,-11346.214327523485
1712209481147,-10336.027379567502
1712209481187,-9040.670251476578
1712209481227,-7610.205758213066
1712209481267,-7094.5339663526975
1712209481307,-7408.890530363889
1712209481347,-6550.714850850869
1712209481387,-4833.867640463635
1712209481427,-3138.2253866004758
1712209481467,-91.08151082228869
1712209481507,3546.7070024325512
1712209481547,6023.50691823801
1712209481587,8090.416654350236
1712209481627,10388.687670827843
1712209481667,11818.74818697013
1712209481707,12905.903392943554
1712209481747,14289.392925185151
1712209481787,16321.783578333678
1712209481827,15475.39415952214
1712209481867,4060.694300433155
1712209481907,-7070.176837806357
1712209481947,-10362.838192137191
1712209481987,-10508.498790569836
1712209482027,-9486.473430478247
1712209482067,-7481.285833814647
1712209482107,-6159.428030879702
1712209482147,-5912.580631510355
1712209482187,-6327.432659643237
1712209482227,-5281.26884463802
1712209482267,-3855.096399129834
1712209482307,-1196.0896746413782
1712209482347,1667.7470528231934
1712209482387,4408.499540968565
1712209482427,6768.589352255454
1712209482467,8886.065096646547
1712209482507,10600.866216104245
1712209482547,12608.942753318697
1712209482587,14308.416775162332
1712209482627,16055.770572413225
1712209482667,16396.01043627225
1712209482707,9414.90185978217
1712209482747,-2242.9267993180547
1712209482787,-7229.511854608543
1712209482827,-7413.414145377232
1712209482867,-5833.665963438107
1712209482907,-4401.165886852657
1712209482947,-2430.489692325238
1712209482987,-1790.702054725727
1712209483027,-2072.497028880287
1712209483067,-1743.4647013708018
1712209483107,-99.0642903840635
1712209483147,1937.5028311470523
1712209483187,4603.168535606237
1712209483227,6719.169173239032
1712209483267,9197.155361354584
1712209483307,11106.410983390175
1712209483347,13047.517295483965
1712209483387,14871.474564748816
1712209483427,16638.948151828256
1712209483467,14141.374364325311
1712209483507,2105.8044821089134
1712209483547,-7149.945307564456
1712209483587,-9441.20968082361
1712209483627,-9404.250435291091
1712209483667,-8045.472349522868
1712209483707,-6449.697387626162
1712209483747,-5715.627643452957
1712209483787,-5729.029446092201
1712209483827,-5925.710818501655
1712209483867,-4777.366031812271
1712209483907,-2672.730156012345
1712209483947,-31.68487354926765
1712209483987,2403.674633048475
1712209484028,4897.609693166334
1712209484069,7165.480416369624
1712209484110,9058.75675270008
1712209484151,10855.469135777093
1712209484192,13003.958781934809
1712209484233,15083.033990078606
1712209484274,16165.40894459607
1712209484315,8734.645327419508
1712209484356,-4828.640901799081
1712209484397,-11071.872694565216
1712209484438,-12102.378603363875
1712209484479,-11974.201073397882
1712209484520,-10783.617350990651
1712209484561,-9787.252707561944
1712209484602,-8833.4687812021
1712209484643,-9137.82971801213
1712209484684,-8692.109494574834
1712209484725,-7002.30883815675
1712209484766,-4836.217772896634
1712209484807,-2056.5865762648173
1712209484848,881.7376384763047
1712209484889,3945.3227994060144
1712209484930,6145.832625692245
1712209484971,7976.835216186475
1712209485012,10074.810151399579
1712209485053,11932.476643057307
1712209485094,13656.116251078201
1712209485135,14425.48152551381
1712209485176,5721.533179892227
1712209485217,-7392.657818595413
1712209485258,-12873.275287476368
1712209485299,-14010.787448017858
1712209485340,-13537.86059529474
1712209485381,-12276.175908988807
1712209485422,-11101.945646196604
1712209485463,-10126.406845977763
1712209485504,-9716.849369999021
1712209485545,-9090.96826345846
1712209485586,-7320.968718428165
1712209485627,-4805.236300741322
1712209485668,-2195.5252432185225
1712209485709,521.5877204437274
1712209485750,2823.753960261354
1712209485791,5777.043840360828
1712209485832,7825.200161952758
1712209485873,9983.760234401561
1712209485914,11293.84195074928
1712209485955,13564.387941281311
1712209485996,14924.40236492292
1712209486037,12044.30164322257
1712209486078,-392.30433997604996
1712209486119,-9130.08263180824
1712209486160,-11708.726109882351
1712209486201,-11479.467446927913
1712209486242,-10147.668225483503
1712209486283,-8139.399346242892
1712209486324,-7735.468924680259
1712209486365,-8103.625058208127
1712209486406,-7985.655289581977
1712209486447,-6824.5312412390485
1712209486488,-4813.368780593155
1712209486529,-2306.2071502492763
1712209486570,494.64350457210094
1712209486611,2775.664837880293
1712209486652,4770.16907000402
1712209486693,6430.094430188183
1712209486734,8755.014849838335
1712209486775,10309.296348609729
1712209486816,-6993.784267458133
1712209486857,-12652.520143083064
1712209486898,-13950.408686253242
1712209486939,-12863.807821425144
1712209486980,-11145.86808834318
1712209487021,-9661.259634174872
1712209487062,-8745.084016392706
1712209487103,-8994.400547164958
1712209487144,-8441.055273536127
1712209487185,-6479.732970126672
1712209487226,-4044.5773531510495
1712209487267,-1420.3346089944243
1712209487308,1416.8695574132726
1712209487349,3718.630323742982
1712209487390,6295.1561831883155
1712209487431,8156.981917053927
1712209487472,10116.850577808917
1712209487513,12253.85146900732
1712209487554,9892.071947347838
1712209487595,-2922.9805175529327
1712209487636,-12086.008024538867
1712209487677,-15041.630549725145
1712209487718,-15298.214390401728
1712209487759,-14506.227953723399
1712209487800,-13371.225919235963
1712209487841,-12486.268734178971
1712209487882,-12290.954609362874
1712209487923,-11756.262639246183
1712209487964,-10416.727558837272
1712209488005,-8633.34596806718
1712209488046,-5913.359022374963
1712209488087,-3220.226009755628
1712209488128,-668.0172903360799
1712209488169,1806.9780599935912
1712209488210,4170.35086494009
1712209488251,5808.2427414683625
1712209488292,7287.222873419989
1712209488333,9166.95874689892
1712209488374,5340.163015859667
1712209488415,-7513.211005527526
1712209488456,-15529.980967025738
1712209488497,-17763.292302785907
1712209488538,-17727.30187490047
1712209488579,-16767.816122940276
1712209488620,-15405.954784396337
1712209488661,-14579.419546058867
1712209488702,-14059.293373650871
1712209488743,-13301.128638018854
1712209488782,-12035.893859574338
1712209488823,-10267.428461805684
1712209488862,-6849.389599516988
1712209488902,-4117.456735221203
1712209488942,-1354.4498464278877
1712209488982,1281.813089177478
1712209489023,3469.935276693199
1712209489063,5350.895860605873
1712209489103,7492.161399075296
1712209489143,9483.503695671447
1712209489183,10893.912561966572
1712209489224,4181.838516203221
1712209489263,-8079.106849682052
1712209489303,-13234.353206078522
1712209489344,-14462.755069207633
1712209489384,-13472.778209850192
1712209489424,-12151.845641606022
1712209489464,-11070.616052792175
1712209489504,-10805.891315317014
1712209489544,-10343.185964350356
1712209489584,-8788.969382958952
1712209489625,-7397.686307386961
1712209489665,-4471.318608199246
1712209489705,-1264.3954289744142
1712209489745,1143.5421730272938
1712209489785,3741.1604322139174
1712209489826,6094.936902005458
1712209489865,7809.238366399892
1712209489905,9906.812641740777
1712209489946,11826.134158113506
1712209489986,13776.972447122214
1712209490026,13070.021672207164
1712209490066,3221.6693746352103
1712209490106,-5566.871412939392
1712209490146,-8963.968916099053
1712209490186,-8815.605896373745
1712209490227,-7632.197509694379
1712209490267,-5908.601118666818
1712209490307,-4814.933023178019
1712209490347,-4450.876548368949
1712209490387,-4111.081344569335
1712209490428,-3170.696490338538
1712209490467,-1370.8410804783925
1712209490507,1333.2040447618347
1712209490548,4118.14396886155
1712209490588,6642.262534396723
1712209490629,8919.39384304895
1712209490668,10617.015868780669
1712209490708,12370.127364030574
1712209490748,13165.503261453006
1712209490789,8044.755930167623
1712209490830,-2992.8249472184107
1712209490869,-9144.63094911701
1712209490909,-9517.781761032995
1712209490949,-8673.702066685539
1712209490989,-6787.03071212396
1712209491030,-4731.837063306477
1712209491070,-4420.774899601005
1712209491110,-3639.1257509959396
1712209491150,-2754.900345549453
1712209491190,-1034.2154194754548
1712209491231,1084.6098736755084
1712209491270,3901.599011449842
1712209491311,6583.4144301104825
1712209491351,9972.032727264334
1712209491391,11661.106850672048
1712209491432,13748.447989095468
1712209491471,15779.955737105105
1712209491511,17838.754054129124
1712209491551,16925.501195525285
1712209491591,5439.04571032105
1712209491632,-5389.421966375317
1712209491672,-9437.249801587779
1712209491712,-9720.166380942333
1712209491752,-9244.320365354419
1712209491792,-8359.647598555777
1712209491832,-7462.584939776454
1712209491872,-6623.947807031916
1712209491912,-6141.890099909855
1712209491952,-5398.1171982900705
1712209491992,-3193.2111714268103
1712209492033,-124.65979527682066
1712209492072,2723.620980795007
1712209492112,5331.19685623073
1712209492153,8580.321627310477
1712209492193,10422.173839710653
1712209492233,12382.727027957328
1712209492273,14223.794675447978
1712209492313,16282.53962256154
1712209492353,15964.77724671876
1712209492393,5064.590355470777
1712209492434,-5851.261231790995
1712209492473,-9758.678130275803
1712209492514,-10150.915347072529
1712209492554,-9783.2501683163
1712209492594,-8893.951301218942
1712209492635,-7888.136712401174
1712209492674,-7633.007888408843
1712209492714,-6684.913017432205
1712209492754,-5909.12248809007
1712209492794,-4504.102713034023
1712209492835,-1305.6381865846924
1712209492875,1717.7694647391327
1712209492915,4263.283016755246
1712209492955,7052.941993566463
1712209492995,9382.113843853585
1712209493035,11293.45085791871
1712209493075,13407.173353275284
1712209493115,14922.091861441033
1712209493155,16382.327242159285
1712209493195,15198.503324778518
1712209493236,4029.127705616411
1712209493276,-4661.615820745006
1712209493316,-7429.325156847248
1712209493356,-7149.693447259255
1712209493396,-6312.350627911277
1712209493437,-4891.489155156538
1712209493476,-3548.2327283686027
1712209493516,-3209.866077991668
1712209493556,-2990.6963277542964
1712209493596,-1542.7092100111768
1712209493637,433.65211508749053
1712209493676,2900.1864948614966
1712209493717,5428.534774625441
1712209493757,7714.845012400299
1712209493797,9642.409148699604
1712209493838,11415.820223271381
1712209493877,13927.285277232062
1712209493917,15361.96891107154
1712209493957,14784.958745943382
1712209493997,5378.150554638822
1712209494038,-3440.9725749436766
1712209494078,-6121.855705308262
1712209494118,-6039.261886794353
1712209494158,-4163.355621875497
1712209494198,-2195.1431804695167
1712209494238,-766.4804276218638
1712209494278,-691.0698164273053
1712209494318,-414.520828949986
1712209494358,285.46666594268754
1712209494398,2663.097656123806
1712209494439,5005.330648382427
1712209494478,6998.792857191293
1712209494519,9755.803729006555
1712209494559,11349.069354676176
1712209494599,12686.641200787853
1712209494640,14467.291348059895
1712209494679,16400.359860013705
1712209494719,13465.402285861317
1712209494759,1091.4913032341283
1712209494800,-7544.31303150719
1712209494840,-10675.173705116846
1712209494880,-10629.125212471
1712209494920,-9934.001738812542
1712209494960,-8552.887292459141
1712209495000,-7673.366441386053
1712209495041,-6928.780920297839
1712209495080,-6334.301825819537
1712209495120,-4961.174997753929
1712209495160,-2954.6255270319525
1712209495201,-143.85504188761115
1712209495241,3099.0434696483426
1712209495281,5691.300411024131
1712209495321,8253.457418947015
1712209495361,10348.802139475942
1712209495401,12013.628349831328
1712209495442,13418.708192855585
1712209495481,14799.020718179876
1712209495522,9349.825848902576
1712209495562,-4180.3216120374855
1712209495602,-10912.041873139795
1712209495643,-12292.269827701384
1712209495682,-12044.020657239016
1712209495722,-11056.46600843477
1712209495762,-9715.231630260125
1712209495805,-8983.537343407981
1712209495843,-8167.097766343737
1712209495883,-6224.333770637866
1712209495923,-4704.517153781839
1712209495963,-2071.9541047196835
1712209496003,337.8474559793249
1712209496044,2700.750323135406
1712209496083,4783.438833918888
1712209496124,7299.667929732241
1712209496164,9517.301761307754
1712209496204,11633.533022161573
1712209496245,13275.756382939173
1712209496284,15079.108575519873
1712209496324,14274.778459995054
1712209496364,3847.8532576092985
1712209496404,-6193.986030193511
1712209496445,-10347.97006689827
1712209496485,-10855.15589657356
1712209496525,-10332.034982390236
1712209496565,-8819.958306325134
1712209496606,-7878.916014023125
1712209496646,-7324.352274924051
1712209496686,-7029.194274936803
1712209496726,-5680.338131101802
1712209496766,-3595.973431207938
1712209496807,-1113.5868410822004
1712209496848,1636.1928655323572
1712209496887,4372.357034661109
1712209496927,7027.810939364834
1712209496968,8874.876143511618
1712209497008,10668.457098816521
1712209497049,12714.312411168125
1712209497089,14433.818778833374
1712209497129,15142.375875557074
1712209497169,7153.036837536376
1712209497210,-6667.961819452699
1712209497250,-6644.726391339209
1712209497290,-5252.926959946286
1712209497330,-3141.736065764446
1712209497370,-1437.1800843155943
1712209497410,-702.3593115769327
1712209497451,-857.658365956042
1712209497491,166.19938359968364
1712209497531,1834.8587755779736
1712209497571,4626.860061331419
1712209497611,7345.628545064479
1712209497652,9866.06635466218
1712209497692,11892.904678722378
1712209497732,14191.843030459248
1712209497772,15928.527160160942
1712209497812,17751.68311439408
1712209497853,18588.32650679443
1712209497892,11878.667912934907
1712209497933,-399.2780414521694
1712209497973,-6443.807892023819
1712209498016,-7639.58086219104
1712209498054,-6779.623686369974
1712209498093,-5404.9591503082775
1712209498133,-3996.880688582314
1712209498174,-3258.3813674733974
1712209498214,-3176.4016200955957
1712209498255,-2016.174107496161
1712209498294,-510.9647270308342
1712209498334,1617.630206974689
1712209498375,4287.079275283497
1712209498415,6618.428573570214
1712209498456,8936.946244682185
1712209498495,10721.891678642482
1712209498536,12604.427614595741
1712209498576,14751.693849779665
1712209498616,16580.208783690352
1712209498657,18534.356574171223
1712209498696,14815.200675991364
1712209498737,2084.2524583647028
1712209498777,-6339.344657489564
1712209498817,-8856.041090636514
1712209498858,-9046.109176802682
1712209498898,-7653.963126013055
1712209498938,-6274.4532745084725
1712209498978,-5255.983805422671
1712209499019,-4287.378064120654
1712209499060,-3789.775375240948
1712209499099,-2089.8679631557316
1712209499140,58.229873867705464
1712209499180,2438.271809341619
1712209499220,5650.704414840089
1712209499261,8285.228448508307
1712209499300,11106.274205530994
1712209499341,13020.544541808078
1712209499381,15313.900158584118
1712209499421,17452.948671097634
1712209499462,18940.90835693432
1712209499502,18535.40856128838
1712209499542,8584.330075653968
1712209499582,-2254.695789131336
1712209499623,-6120.902358214138
1712209499663,-6548.747753391275
1712209499703,-5278.848285747226
1712209499743,-3567.7292626807466
1712209499783,-1903.0535069350153
1712209499824,-1029.8641614622902
1712209499865,-737.1376105202362
1712209499904,352.46951813064516
1712209499944,1786.3896224983037
1712209499985,3592.169721902348
1712209500025,5924.279624690767
1712209500066,8360.775512491819
1712209500106,11212.829358868301
1712209500146,13637.40556278848
1712209500186,15539.73560002679
1712209500229,17570.69252710999
1712209500267,19418.32549599884
1712209500307,18032.282523534726
1712209500347,9090.778542930726
1712209500387,-758.0809271493927
1712209500427,-3844.6258670124225
1712209500469,-3732.830157776829
1712209500508,-2503.9227537738625
1712209500548,-617.2228104388341
1712209500589,307.5776444277726
1712209500629,624.6706372858025
1712209500670,916.3089336398989
1712209500709,1659.4511669646017
1712209500749,3163.6554029122926
1712209500789,5060.828398010228
1712209500822,7731.090224456042
1712209500862,9787.366567804711
1712209500902,12181.071619555354
1712209500942,13890.77552988613
1712209500982,15395.906089489814
1712209501022,14750.57731296774
1712209501063,5602.582554995082
1712209501102,-4539.138681964949
1712209501142,-8225.197172097396
1712209501183,-8315.551822460955
1712209501222,-6909.097961101215
1712209501263,-4433.411177884089
1712209501303,-2727.4088658161927
1712209501343,-2171.805041723186
1712209501383,-2228.375449536834
1712209501423,-1585.230985275004
1712209501464,378.1909895858262
1712209501504,2274.6044872552156
1712209501544,5012.365413934458
1712209501585,7210.484227084089
1712209501625,9768.263119047973
1712209501666,12212.700020781485
1712209501706,14095.885951647535
1712209501746,15235.787041917443
1712209501786,11409.107446182752
1712209501826,-3129.265870799776
1712209501867,-9579.332462611841
1712209501907,-11050.19008414168
1712209501947,-11056.527486685663
1712209501987,-10819.176776134176
1712209502028,-9614.125346703455
1712209502069,-8704.266541346442
1712209502108,-8092.523621457629
1712209502148,-7555.786157624796
1712209502189,-6512.194214308634
1712209502229,-3874.7913587049115
1712209502270,-1596.3629629567731
1712209502309,1389.4841031569522
1712209502350,3981.47470272216
1712209502390,6192.4789357527625
1712209502430,8892.918033557013
1712209502471,10887.280823754845
1712209502511,12347.925287655322
1712209502551,4972.142506450415
1712209502591,-8333.544062428642
1712209502631,-14597.63545032451
1712209502672,-16067.416914047673
1712209502712,-15598.263356969226
1712209502752,-14736.55472527421
1712209502792,-13142.73073586286
1712209502833,-12641.826913560508
1712209502874,-12004.847807051614
1712209502913,-11282.151497176383
1712209502953,-9655.192938879132
1712209502994,-7361.34965170105
1712209503034,-4587.76206774544
1712209503075,-4198.342658357229
1712209503115,-64.2180221574381
1712209503155,1854.4304825835861
1712209503195,4151.08827839978
1712209503235,5934.3482071787585
1712209503276,8467.887469506823
1712209503316,10486.841502142139
1712209503356,3097.389046331169
1712209503396,-9288.336949985242
1712209503436,-14475.957633739337
1712209503478,-15770.221786218695
1712209503517,-15035.534725087695
1712209503557,-13317.89115887764
1712209503598,-12179.069331146311
1712209503638,-11444.70082600601
1712209503679,-11016.549031219678
1712209503718,-10258.120685670292
1712209503758,-8819.310394727625
1712209503799,-6315.302621784853
1712209503839,-1033.6285836203024
1712209503880,1555.7859490972478
1712209503920,3695.3580174872186
1712209503960,5915.9222841430455
1712209504000,7485.082228790503
1712209504040,6103.920368375257
1712209504083,-4234.876926593017
1712209504122,-11996.06814625673
1712209504162,-14246.965389337623
1712209504203,-13864.052497657016
1712209504243,-12198.815120114014
1712209504284,-9978.611861781217
1712209504323,-9357.899549443275
1712209504363,-9048.017583133187
1712209504403,-9021.512270403095
1712209504444,-7662.8091987632215
1712209504484,-5481.512409015326
1712209504524,-2713.8444574037567
1712209504564,357.175302951131
1712209504604,2589.1977612727787
1712209504645,5007.71055167052
1712209504686,7505.546762129758
1712209504725,9899.363066065824
1712209504765,9540.447940841783
1712209504806,-753.5603589341044
1712209504846,-11423.384484200506
1712209504887,-15329.319661543239
1712209504926,-16055.958989605308
1712209504967,-15275.641841831617
1712209505007,-13875.797492777929
1712209505047,-12421.12815611763
1712209505088,-12200.013310317649
1712209505128,-11605.485591076082
1712209505168,-10361.557380954735
1712209505208,-8374.906835697591
1712209505248,-5420.090812460752
1712209505289,-2548.382076859474
1712209505329,513.1564324980136
1712209505369,3101.1356957214884
1712209505409,5594.779461230151
1712209505450,7786.799491725396
1712209505490,9523.996905803913
1712209505530,11014.957084348192
1712209505570,6891.226192384027
1712209505611,-5888.974517594092
1712209505651,-13394.828318139538
1712209505692,-15585.806441419525
1712209505731,-15693.576157525647
1712209505772,-15552.723950994201
1712209505812,-14328.596742691472
1712209505852,-13080.731007413007
1712209505893,-12558.020206328947
1712209505932,-12222.795338067692
1712209505973,-11063.059013338527
1712209506013,-8610.829118090682
1712209506053,-5774.465020586271
1712209506095,-3496.086445034016
1712209506135,-717.0594038742129
1712209506175,2511.7509124772623
1712209506215,5073.492748103337
1712209506255,7146.725198270753
1712209506296,9173.913308460033
1712209506336,11431.477282468695
1712209506376,12467.006690438371
1712209506416,4225.088654387044
1712209506456,-7551.54935645638
1712209506497,-12877.366991515039
1712209506537,-13975.769991432317
1712209506577,-13745.505289347842
1712209506618,-12570.00455202139
1712209506658,-11321.44448137097
1712209506699,-10714.707894020714
1712209506738,-10100.400636675768
1712209506778,-8645.571482404135
1712209506819,-6474.755049905274
1712209506859,-3586.5500453645363
1712209506900,-886.5075907825958
1712209506939,1559.4179179163184
1712209506980,4162.585339002311
1712209507020,6814.221576644573
1712209507060,9343.801365086576
1712209507101,11523.004244675394
1712209507140,13290.171860199887
1712209507180,15040.0987168164
1712209507221,13369.224009043537
1712209507261,2578.1059141287114
1712209507301,-6090.506581816822
1712209507341,-8740.7951042403
1712209507381,-8083.3232619948685
1712209507421,-6554.250327042537
1712209507462,-5335.621968307765
1712209507502,-4437.462256695842
1712209507542,-3967.3935914421454
1712209507582,-3235.6763117220253
1712209507622,-2234.698459633626
1712209507662,197.207185191568
1712209507703,3116.176385500934
1712209507742,5510.9211389892735
1712209507783,8494.586419288535
1712209507823,10761.05971655203
1712209507863,12825.208341548918
1712209507904,14453.327261692379
1712209507944,16448.78568492341
1712209507984,15240.804016328417
1712209508024,4942.269011801109
1712209508064,-4737.656540515134
1712209508105,-7883.23077916936
1712209508145,-8114.439885026775
1712209508185,-6676.451239137212
1712209508225,-5169.257113129366
1712209508265,-3837.3014816711657
1712209508306,-3350.433012400521
1712209508346,-2970.697733406909
1712209508386,-1664.8823024374433
1712209508426,291.5921765700914
1712209508467,3115.0863020559773
1712209508508,5799.837063247804
1712209508547,8281.67206658586
1712209508588,10984.464879869483
1712209508628,13737.865020032506
1712209508669,15643.014367074473
1712209508710,17346.590412142687
1712209508749,18976.80729005765
1712209508790,18310.856192951556
1712209508830,7667.702005709056
1712209508870,-3691.479240276385
1712209508912,-7812.66322311922
1712209508952,-8193.804265245795
1712209508992,-7701.017116248608
1712209509033,-6588.864681328647
1712209509073,-5728.0328266525175
1712209509114,-5110.135758448392
1712209509154,-4603.745976611972
1712209509194,-3136.881708632689
1712209509234,-932.3966865264811
1712209509274,1838.3968728957698
1712209509315,4141.5269780601375
1712209509355,7171.595178704709
1712209509395,10174.084885799559
1712209509435,12553.55706181773
1712209509475,14970.511465780903
1712209509516,17354.09864092432
1712209509556,18995.00183402328
1712209509596,19185.838317036396
1712209509636,11896.343170632375
1712209509677,242.86180237005465
1712209509717,-4872.892901199171
1712209509757,-5360.054029213497
1712209509797,-3927.542372783646
1712209509838,-2295.440727652982
1712209509878,-1332.7358447790612
1712209509919,-429.02876359713264
1712209509958,630.7161346417852
1712209509999,2477.655503771035
1712209510039,4652.259024489205
1712209510079,6915.86761602154
1712209510120,9299.246970329434
1712209510159,12259.63333417708
1712209510199,14590.872098767199
1712209510239,16551.070233440958
1712209510280,18592.791217182297
1712209510320,20122.90837016981
1712209510360,16293.83021473186
1712209510400,5683.106600704137
1712209510440,-820.4118509967811
1712209510480,-2417.7024392781314
1712209510521,-1800.3853182499297
1712209510561,-142.48253451148048
1712209510601,1783.7223694832064
1712209510641,2410.6307022678666
1712209510681,2191.1797880022787
1712209510722,2652.3010110384785
1712209510761,4025.544425287517
1712209510802,6300.238651697058
1712209510842,8411.934551014565
1712209510882,10996.16091746185
1712209510923,13058.371911912225
1712209510963,14463.813464632723
1712209511003,16433.82786319428
1712209511043,17406.554764327826
1712209511085,12103.789097134722
1712209511126,491.65499512758106
1712209511166,-6150.058073102962
1712209511206,-8061.219829294831
1712209511246,-7221.092078771908
1712209511286,-5530.910465263296
1712209511327,-3182.141495910939
1712209511367,-1688.3618944324553
1712209511407,-1149.9039239140693
1712209511448,-962.376712558791
1712209511488,506.1275510562118
1712209511529,2231.731415355578
1712209511568,4182.235212302301
1712209511608,6256.163345671026
1712209511649,8729.999359844718
1712209511689,11153.76468508644
1712209511730,13396.855668120086
1712209511769,14982.459121451247
1712209511810,10749.111974198138
1712209511850,-2350.4868292463943
1712209511890,-10637.786304937908
1712209511931,-13239.888912023045
1712209511971,-13133.477715247078
1712209512011,-11704.753681214992
1712209512051,-10055.321035818662
1712209512091,-8871.495427601272
1712209512132,-7747.621142618125
1712209512172,-6909.177888071863
1712209512212,-5341.141232779715
1712209512252,-2842.192489616107
1712209512293,-730.4905735969078
1712209512334,2318.622015113244
1712209512373,5040.720813090447
1712209512414,7226.088446482783
1712209512454,9635.40982354898
1712209512494,11991.350031583104
1712209512535,10842.092885826016
1712209512574,606.6583255333826
1712209512615,-9156.968785190955
1712209512655,-12659.535356541164
1712209512695,-13030.614649691619
1712209512736,-11436.646108469227
1712209512776,-9244.466698865173
1712209512816,-7591.0544542402495
1712209512856,-6749.3974653265905
1712209512895,-5881.3902560037095
1712209512934,-4899.133731668815
1712209512973,-2263.3439827789553
1712209513012,33.45039756572805
1712209513051,2627.0691212737
1712209513090,5198.461167234462
1712209513129,8237.091387183405
1712209513168,10574.145111554535
1712209513207,12119.700021015946
1712209513246,9987.966097597964
1712209513285,-880.2681328481995
1712209513324,-8650.819694692269
1712209513363,-11458.85128482012
1712209513402,-10372.242106167367
1712209513441,-8933.050471989904
1712209513480,-7277.214995495044
1712209513519,-5871.239619707223
1712209513558,-5290.6817687994335
1712209513597,-5515.478482908104
1712209513637,-4156.136851325631
1712209513677,-1820.8072916967794
1712209513717,129.47935516992584
1712209513757,2565.4984479546547
1712209513797,5141.2913567747455
1712209513837,7184.0682515585795
1712209513877,9201.02702553221
1712209513917,7041.008434787858
1712209513957,-4211.500975274015
1712209513997,-12718.23755412735
1712209514037,-15954.57243815856
1712209514077,-15493.492791881086
1712209514117,-14104.091108208988
1712209514157,-12122.015115648974
1712209514197,-10578.791870228946
1712209514237,-10756.327645531623
1712209514277,-9531.340094169602
1712209514317,-8370.854556898586
1712209514357,-5668.468974457122
1712209514397,-2823.8816820858046
1712209514437,396.8845672076568
1712209514477,3145.5846043680795
1712209514517,5232.496303622378
1712209514557,7610.735767322592
1712209514597,8960.45428973576
1712209514637,3957.6555099235848
1712209514677,-9259.565267728642
1712209514717,-16139.254579732195
1712209514757,-18040.478571574204
1712209514797,-18452.263363575796
1712209514837,-17743.44469888322
1712209514877,-15823.209565870464
1712209514917,-14703.732092182618
1712209514957,-13783.637450898997
1712209514997,-12488.095731388777
1712209515037,-11144.970118234167
1712209515077,-8493.569139139261
1712209515117,-5560.954113027081
1712209515157,-2464.413145602448
1712209515197,551.1781314671971
1712209515237,2844.69689991232
1712209515277,5582.514760115184
1712209515317,8549.36313568009
1712209515357,8399.064150987193
1712209515397,-1193.8707660431974
1712209515437,-11808.262679536128
1712209515477,-15813.128595786635
1712209515517,-15892.575696678134
1712209515557,-15167.038717116695
1712209515597,-13506.191067820415
1712209515637,-11977.10141496174
1712209515677,-11325.394771507708
1712209515717,-11099.761139384704
1712209515757,-9385.63281913381
1712209515797,-7042.649107533507
1712209515837,-4457.010862196796
1712209515877,-1226.578004221199
1712209515917,1398.3957905459683
1712209515957,4011.869491319172
1712209515997,6444.553582140477
1712209516037,8644.376801657025
1712209516077,10622.54159126943
1712209516117,7930.147306458559
1712209516157,-2894.8929517734796
1712209516197,-10226.054948574863
1712209516237,-12298.284397140145
1712209516277,-11568.371749182465
1712209516317,-9565.90180821577
1712209516357,-7900.320906731766
1712209516397,-6549.722026157426
1712209516437,-6401.56345292693
1712209516477,-6251.956279629143
1712209516517,-4378.372367148753
1712209516557,-2587.7160436685663
1712209516597,-174.47288207290694
1712209516637,2812.664739303291
1712209516677,5361.3528133160435
1712209516717,7853.237057399936
1712209516757,9647.383983075153
1712209516797,10571.684261031449
1712209516837,2414.2134438178036
1712209516877,-8240.57972075534
1712209516917,-13203.428900299128
1712209516957,-13891.829958890798
1712209516997,-12611.238785977243
1712209517037,-10689.701182129793
1712209517077,-8699.189805917908
1712209517117,-8074.397876422619
1712209517157,-7582.2843969927635
1712209517197,-6494.979578641709
1712209517237,-4541.90143995313
1712209517277,-2033.0884517282248
1712209517317,1060.3249944783747
1712209517357,3657.363795375917
1712209517397,6433.130864305422
1712209517437,8379.448901085183
1712209517477,10622.718604986323
1712209517517,11185.340321242344
1712209517557,2534.649098828435
1712209517597,-9141.654400796164
1712209517637,-13958.68157941848
1712209517677,-15243.63660351513
1712209517717,-14410.24130046484
1712209517757,-12818.550642675953
1712209517797,-11422.341826085467
1712209517837,-9911.479508535005
1712209517877,-9280.476434901357
1712209517917,-7995.148357235594
1712209517957,-6074.681463695364
1712209517997,-3508.535167169757
1712209518037,-360.79512057383545
1712209518077,2540.863686756231
1712209518117,4931.478181356797
1712209518157,7805.359202321153
1712209518197,10597.070097884163
1712209518237,12607.86932940036
1712209518277,11568.112065298483
1712209518317,677.9867626870982
1712209518357,-9794.306481181178
1712209518397,-12946.665069191251
1712209518437,-12960.064586033579
1712209518477,-12285.93974940828
1712209518517,-10224.36757314112
1712209518557,-8373.528683476383
1712209518597,-7079.077513695927
1712209518637,-5933.516320628114
1712209518677,-4631.76799870492
1712209518717,-2336.462994182948
1712209518757,591.3007509994786
1712209518797,3391.3665875145234
1712209518837,8980.393030980835
1712209518877,11386.950530264992
1712209518917,13598.069310439285
1712209518957,15884.141648768215
1712209518997,17341.567783298902
1712209519037,12190.75014733756
1712209519077,347.4599232659675
1712209519117,-6086.161473419052
1712209519157,-7310.706027665641
1712209519197,-6099.608125332743
1712209519237,-4451.758613042301
1712209519277,-3135.8721925562713
1712209519317,-2609.9882655350957
1712209519357,-2180.5375004631933
1712209519397,-1335.2825185719412
1712209519437,-72.46036956924945
1712209519477,2441.8565241096076
1712209519517,5194.111422769958
1712209519557,8102.861797282007
1712209519597,10830.105869418476
1712209519637,13398.960085297003
1712209519677,15110.162602405064
1712209519717,15982.87683269754
1712209519757,9887.820169778075
1712209519797,-658.6543400776573
1712209519837,-5240.61911073816
1712209519877,-6590.718451140448
1712209519917,-4772.956443087431
1712209519957,-2078.658977027517
1712209519997,77.69546150765382
1712209520037,790.0336286569946
1712209520077,1037.55953786592
1712209520117,2035.665378626436
1712209520157,3721.737101961393
1712209520197,5958.48627133714
1712209520237,8445.976630000398
1712209520277,10504.897946207318
1712209520317,13443.5516137979
1712209520357,15468.203662130749
1712209520397,17865.660603682976
1712209520437,18607.97193671856
1712209520477,11796.776784408372
1712209520517,-845.7635394781828
1712209520557,-6745.52914200956
1712209520597,-7883.93548735627
1712209520637,-7400.514805828687
1712209520677,-6017.469223052729
1712209520717,-4640.513816646533
1712209520757,-4368.326431283029
1712209520797,-4061.2279985039495
1712209520837,-3394.546845544828
1712209520877,-2125.92968633119
1712209520917,182.4428370266687
1712209520957,2994.940179215744
1712209520997,5805.688111488242
1712209521037,8269.679932943312
1712209521077,10338.512149978662
1712209521117,12425.661162554286
1712209521157,12943.530743393581
1712209521197,2862.6402987129986
1712209521237,-8628.546758809593
1712209521277,-13296.985690137604
1712209521317,-13609.508021077141
1712209521357,-12638.053600014653
1712209521397,-10634.675595242996
1712209521437,-9211.422411868814
1712209521477,-8142.072969167028
1712209521517,-7538.303204715252
1712209521557,-6033.894329264294
1712209521597,-4311.014322363306
1712209521637,-1437.485320316162
1712209521677,1078.8207953909878
1712209521717,3897.2456254737917
1712209521757,6125.894442343619
1712209521797,8867.43474336993
1712209521837,10858.224333945895
1712209521877,11055.715952469967
1712209521917,2365.9922943194397
1712209521957,-8323.339143614285
1712209521997,-12088.170442386996
1712209522037,-11903.370553207584
1712209522077,-10628.190608075121
1712209522117,-8385.722305309027
1712209522157,-6831.716345665511
1712209522197,-6304.95398933813
1712209522237,-5807.257792503107
1712209522277,-4755.748338757083
1712209522317,-2733.462576485472
1712209522357,-401.59931957465596
1712209522397,2161.6269454257563
1712209522437,4926.829219424399
1712209522477,6868.360411297996
1712209522517,9802.71548366244
1712209522557,9267.588985325303
1712209522597,-1210.608147916384
1712209522637,-9366.736915494315
1712209522677,-11901.488529372029
1712209522717,-11507.649717823835
1712209522757,-9796.76188739622
1712209522797,-7381.185130940285
1712209522837,-6052.307240598369
1712209522877,-5474.002497783396
1712209522917,-4903.874868222978
1712209522957,-3500.23044780246
1712209522997,-1042.3390296483412
1712209523037,1368.9595908056945
1712209523077,4024.141843441408
1712209523117,6640.031960896216
1712209523157,9218.210590272909
1712209523197,11682.83607292734
1712209523237,12823.642993218964
1712209523277,5827.067479141522
1712209523317,-7508.1402793051675
1712209523357,-13682.293539933395
1712209523397,-15740.424635677598
1712209523437,-15436.213243326172
1712209523477,-14072.665415567812
1712209523517,-12529.72578394576
1712209523557,-11286.592365141492
1712209523597,-11041.839153981302
1712209523637,-10110.88620752655
1712209523677,-8528.602241018787
1712209523717,-6215.238562353421
1712209523757,-3208.754311242141
1712209523797,-1000.7960936680902
1712209523837,1771.4260671455413
1712209523877,4540.671619962901
1712209523917,6732.7671096250415
1712209523957,7745.485038870014
1712209523997,863.9937691958621
1712209524037,-11342.31663971208
1712209524077,-17036.22183892317
1712209524117,-17942.364653585013
1712209524157,-18043.836564660538
1712209524197,-16738.900847728364
1712209524237,-15181.780147320591
1712209524277,-14050.689030181617
1712209524317,-13047.187921691686
1712209524357,-12068.228416337864
1712209524397,-9935.70467492519
1712209524437,-6889.640713393688
1712209524477,-4054.674959642347
1712209524517,-896.5053672550712
1712209524557,1799.197938153986
1712209524597,4707.510593958199
1712209524637,7020.467016153503
1712209524677,9775.609739959473
1712209524717,9752.062809400028
1712209524757,-315.394003336085
1712209524797,-10540.052784027997
1712209524837,-14450.813523770077
1712209524879,-14808.820477686357
1712209524919,-13935.138235918712
1712209524959,-11985.667283918709
1712209524999,-10549.882664294448
1712209525039,-9944.35260679666
1712209525079,-9283.859462953173
1712209525120,-8012.806537582539
1712209525159,-6056.915740515105
1712209525199,-3381.2800509878434
1712209525240,-414.3713517470751
1712209525280,1875.8246499313973
1712209525320,4216.706123844255
1712209525360,6032.747093980666
1712209525400,7737.456676115282
1712209525440,4283.557769821025
1712209525480,-6748.261712417705
1712209525521,-12933.273724828847
1712209525560,-14764.342120175017
1712209525601,-13610.248896254227
1712209525640,-11719.548673504964
1712209525681,-9791.520842252532
1712209525721,-8738.830700619845
1712209525761,-8204.69022370316
1712209525801,-7313.100179200526
1712209525841,-5641.905237826053
1712209525881,-3270.094338113442
1712209525922,-315.3971905845683
1712209525961,2705.9200625133235
1712209526001,5898.566147027072
1712209526041,8263.428913536016
1712209526082,10181.12996360031
1712209526122,12349.15703127766
1712209526162,11852.194249747088
1712209526202,-96.44729246082716
1712209526242,-9886.897073351312
1712209526282,-13205.15317448834
1712209526323,-13608.746339262929
1712209526362,-13329.689912142698
1712209526402,-12062.634439674672
1712209526443,-10833.94469676842
1712209526483,-10028.018525848165
1712209526523,-8723.295170926722
1712209526563,-7219.778668082552
1712209526603,-4855.429112569895
1712209526643,-1939.6448121427093
1712209526683,823.7311984670814
1712209526724,3651.1873533548787
1712209526763,6030.557905727532
1712209526803,8200.138033551397
1712209526843,10717.284949231427
1712209526883,12468.288364678621
1712209526924,11037.066071878653
1712209526964,-588.9127717504743
1712209527004,-9409.398262158968
1712209527044,-12282.25620056782
1712209527084,-12398.71767693758
1712209527125,-11234.033249962144
1712209527164,-9568.330377553124
