dataReceived,timestamp,ppg,status
1712209392452,1712209380388,2097152,0
1712209392452,1712209380427,2369337,0
1712209392452,1712209380466,2369320,0
1712209392452,1712209380506,2369357,0
1712209392452,1712209380546,2369300,0
1712209392452,1712209380586,2369315,0
1712209392452,1712209380627,2369268,0
1712209392452,1712209380666,2369290,0
1712209392452,1712209380706,2369289,0
1712209392452,1712209380747,2369321,0
1712209392452,1712209380787,2118975,0
1712209392452,1712209380828,2118935,0
1712209392452,1712209380867,2119057,0
1712209392452,1712209380907,2119028,0
1712209392452,1712209380947,2118986,0
1712209392452,1712209380988,2109171,0
1712209392452,1712209381029,2109184,0
1712209392452,1712209381068,2109131,0
1712209392452,1712209381108,2108742,0
1712209392452,1712209381148,2108863,0
1712209392452,1712209381188,2127087,0
1712209392452,1712209381229,2125508,0
1712209392452,1712209381268,2124971,0
1712209392452,1712209381309,2125296,0
1712209392452,1712209381349,2128234,0
1712209392452,1712209381389,2128477,0
1712209392452,1712209381430,2127972,0
1712209392452,1712209381469,2128833,0
1712209392452,1712209381509,2126960,0
1712209392452,1712209381549,2127921,0
1712209392452,1712209381590,2126422,0
1712209392452,1712209381631,2126500,0
1712209392452,1712209381670,2125444,0
1712209392452,1712209381710,2123853,0
1712209392452,1712209381750,2122293,0
1712209392452,1712209381790,2121188,0
1712209392452,1712209381832,2120240,0
1712209392452,1712209381871,2119509,0
1712209392452,1712209381911,2119644,0
1712209392452,1712209381951,2119686,0
1712209392452,1712209381991,2120543,0
1712209392452,1712209382032,2121090,0
1712209392452,1712209382072,2122419,0
1712209392452,1712209382111,2123588,0
1712209392452,1712209382152,2123971,0
1712209392452,1712209382192,2124004,0
1712209392452,1712209382233,2124042,0
1712209392452,1712209382272,2124336,0
1712209392452,1712209382312,2124828,0
1712209392452,1712209382352,2125056,0
1712209392452,1712209382392,2124672,0
1712209392452,1712209382433,2123644,0
1712209392452,1712209382472,2121952,0
1712209392452,1712209382512,2118684,0
1712209392452,1712209382553,2117966,0
1712209392452,1712209382595,2118707,0
1712209392452,1712209382634,2122525,0
1712209392452,1712209382673,2124212,0
1712209392452,1712209382713,2125411,0
1712209392452,1712209382753,2123000,0
1712209392452,1712209382793,2122238,0
1712209392452,1712209382834,2121058,0
1712209392452,1712209382873,2118601,0
1712209392452,1712209382914,2112605,0
1712209392452,1712209382954,2106942,0
1712209392452,1712209382994,2104858,0
1712209392452,1712209383035,2102797,0
1712209392452,1712209383074,2101433,0
1712209392452,1712209383114,2100503,0
1712209392452,1712209383154,2095774,0
1712209392452,1712209383194,2086763,0
1712209392452,1712209383235,2078493,0
1712209392452,1712209383275,2073848,0
1712209392452,1712209383315,2071219,0
1712209392452,1712209383355,2070033,0
1712209392452,1712209383395,2069054,0
1712209392452,1712209383436,2068019,0
1712209392452,1712209383475,2066917,0
1712209392452,1712209383515,2066317,0
1712209392452,1712209383555,2066230,0
1712209392452,1712209383595,2066879,0
1712209392452,1712209383637,2067524,0
1712209392452,1712209383676,2068204,0
1712209392452,1712209383716,2068885,0
1712209392452,1712209383756,2069669,0
1712209392452,1712209383796,2070269,0
1712209392452,1712209383837,2070854,0
1712209392452,1712209383876,2069135,0
1712209392452,1712209383916,2061352,0
1712209392452,1712209383956,2053726,0
1712209392452,1712209383997,2050114,0
1712209392452,1712209384037,2048281,0
1712209392452,1712209384077,2047435,0
1712209392452,1712209384117,2047141,0
1712209392452,1712209384157,2046938,0
1712209392452,1712209384197,2046359,0
1712209392452,1712209384238,2045860,0
1712209392452,1712209384277,2045967,0
1712209392452,1712209384317,2046619,0
1712209392452,1712209384358,2047803,0
1712209392452,1712209384398,2049198,0
1712209392452,1712209384439,2050667,0
1712209392452,1712209384478,2052024,0
1712209392452,1712209384518,2053339,0
1712209392452,1712209384558,2054601,0
1712209392452,1712209384598,2055900,0
1712209392452,1712209384639,2057085,0
1712209392452,1712209384678,2056437,0
1712209392452,1712209384719,2049492,0
1712209392452,1712209384759,2041921,0
1712209392452,1712209384801,2038756,0
1712209392452,1712209384840,2037501,0
1712209392452,1712209384879,2037215,0
1712209392452,1712209384919,2037325,0
1712209392452,1712209384959,2037322,0
1712209392452,1712209384999,2037346,0
1712209392452,1712209385040,2037370,0
1712209392452,1712209385080,2037651,0
1712209392452,1712209385120,2038384,0
1712209392452,1712209385160,2039652,0
1712209392452,1712209385200,2040881,0
1712209392452,1712209385241,2042377,0
1712209392452,1712209385280,2043725,0
1712209392452,1712209385320,2045411,0
1712209392452,1712209385360,2046814,0
1712209392452,1712209385401,2048055,0
1712209392452,1712209385442,2049540,0
1712209392452,1712209385481,2049934,0
1712209392452,1712209385521,2044778,0
1712209392452,1712209385561,2036829,0
1712209392452,1712209385601,2033049,0
1712209392452,1712209385642,2031870,0
1712209392452,1712209385682,2031977,0
1712209392452,1712209385722,2032616,0
1712209392452,1712209385762,2032964,0
1712209392452,1712209385802,2032566,0
1712209392452,1712209385843,2032101,0
1712209392452,1712209385882,2032060,0
1712209392452,1712209385922,2032612,0
1712209392452,1712209385962,2033845,0
1712209392452,1712209386002,2035160,0
1712209392452,1712209386044,2036680,0
1712209392452,1712209386083,2038103,0
1712209392452,1712209386123,2039466,0
1712209392452,1712209386163,2040732,0
1712209392452,1712209386203,2040302,0
1712209392452,1712209386244,2032559,0
1712209392452,1712209386283,2023948,0
1712209392452,1712209386323,2019230,0
1712209392452,1712209386364,2017743,0
1712209392452,1712209386404,2017450,0
1712209392452,1712209386445,2017919,0
1712209392452,1712209386484,2018171,0
1712209392452,1712209386524,2017698,0
1712209392452,1712209386564,2017130,0
1712209392452,1712209386605,2017136,0
1712209392452,1712209386646,2018126,0
1712209392452,1712209386685,2019366,0
1712209392452,1712209386725,2020765,0
1712209392452,1712209386765,2022334,0
1712209392452,1712209386805,2023739,0
1712209392452,1712209386846,2025106,0
1712209392452,1712209386886,2026438,0
1712209392452,1712209386926,2027629,0
1712209392452,1712209386966,2028117,0
1712209392452,1712209387006,2021232,0
1712209392452,1712209387047,2010942,0
1712209392452,1712209387086,2004878,0
1712209392452,1712209387127,2001699,0
1712209392452,1712209387167,2000126,0
1712209392452,1712209387207,1999614,0
1712209392452,1712209387248,1999457,0
1712209392452,1712209387287,1998662,0
1712209392452,1712209387327,1997701,0
1712209392452,1712209387367,1997081,0
1712209392452,1712209387407,1997374,0
1712209392452,1712209387449,1998322,0
1712209392452,1712209387488,1999652,0
1712209392452,1712209387528,2001073,0
1712209392452,1712209387568,2002464,0
1712209392452,1712209387608,2003803,0
1712209392452,1712209387649,2004975,0
1712209392452,1712209387688,2006177,0
1712209392452,1712209387729,2007349,0
1712209392452,1712209387769,2005274,0
1712209392452,1712209387809,1995464,0
1712209392452,1712209387850,1986482,0
1712209392452,1712209387889,1981225,0
1712209392452,1712209387929,1979220,0
1712209392452,1712209387970,1978685,0
1712209392452,1712209388010,1979011,0
1712209392452,1712209388051,1978899,0
1712209392452,1712209388090,1977913,0
1712209392452,1712209388130,1976867,0
1712209392452,1712209388170,1976752,0
1712209392452,1712209388210,1977425,0
1712209392452,1712209388251,1978715,0
1712209392452,1712209388290,1980096,0
1712209392452,1712209388330,1981485,0
1712209392452,1712209388370,1982788,0
1712209392452,1712209388410,1983872,0
1712209392452,1712209388452,1985028,0
1712209392452,1712209388491,1986038,0
1712209392452,1712209388531,1985515,0
1712209392452,1712209388571,1977570,0
1712209392452,1712209388611,1968158,0
1712209392452,1712209388652,1962625,0
1712209392452,1712209388691,1960544,0
1712209392452,1712209388731,1960457,0
1712209392452,1712209388771,1961118,0
1712209392452,1712209388811,1961206,0
1712209392452,1712209388852,1960272,0
1712209392452,1712209388892,1959148,0
1712209392452,1712209388932,1958768,0
1712209392452,1712209388972,1959387,0
1712209392452,1712209389012,1960889,0
1712209392452,1712209389053,1962331,0
1712209392452,1712209389092,1963865,0
1712209392452,1712209389132,1965287,0
1712209392452,1712209389172,1966515,0
1712209392452,1712209389212,1967732,0
1712209392452,1712209389253,1967868,0
1712209392452,1712209389293,1960971,0
1712209392452,1712209389333,1949990,0
1712209392452,1712209389373,1942107,0
1712209392452,1712209389413,1938872,0
1712209392452,1712209389454,1937859,0
1712209392452,1712209389493,1938052,0
1712209392452,1712209389533,1938268,0
1712209392452,1712209389573,1937686,0
1712209392452,1712209389613,1936764,0
1712209392452,1712209389654,1936501,0
1712209392452,1712209389693,1937064,0
1712209392452,1712209389733,1938569,0
1712209392452,1712209389774,1940313,0
1712209392452,1712209389814,1942023,0
1712209392452,1712209389855,1943755,0
1712209392452,1712209389894,1945377,0
1712209392452,1712209389934,1946796,0
1712209392452,1712209389974,1948384,0
1712209392452,1712209390014,1950012,0
1712209392452,1712209390055,1950594,0
1712209392452,1712209390094,1943046,0
1712209392452,1712209390135,1930890,0
1712209392452,1712209390175,1922928,0
1712209392452,1712209390215,1919557,0
1712209392452,1712209390256,1918400,0
1712209392452,1712209390295,1918268,0
1712209392452,1712209390335,1918529,0
1712209392452,1712209390375,1918036,0
1712209392452,1712209390415,1917297,0
1712209392452,1712209390456,1917142,0
1712209392452,1712209390496,1917901,0
1712209392452,1712209390536,1919710,0
1712209392452,1712209390576,1921935,0
1712209392452,1712209390616,1924060,0
1712209392452,1712209390657,1925999,0
1712209392452,1712209390696,1927821,0
1712209392452,1712209390736,1929507,0
1712209392452,1712209390776,1931236,0
1712209392452,1712209390816,1933020,0
1712209392452,1712209390858,1934765,0
1712209392452,1712209390897,1936671,0
1712209392452,1712209390937,1935806,0
1712209392452,1712209390977,1925857,0
1712209392452,1712209391017,1914677,0
1712209392452,1712209391058,1908921,0
1712209392452,1712209391097,1906931,0
1712209392452,1712209391137,1906511,0
1712209392452,1712209391177,1906920,0
1712209392452,1712209391218,1907071,0
1712209392452,1712209391259,1906656,0
1712209392452,1712209391298,1906079,0
1712209392452,1712209391338,1906501,0
1712209392452,1712209391378,1907936,0
1712209392452,1712209391418,1909839,0
1712209392452,1712209391459,1912208,0
1712209392452,1712209391498,1914444,0
1712209392452,1712209391538,1916406,0
1712209392452,1712209391578,1918388,0
1712209392452,1712209391618,1920214,0
1712209392452,1712209391660,1922125,0
1712209392452,1712209391699,1924076,0
1712209392452,1712209391739,1925987,0
1712209392452,1712209391779,1927490,0
1712209392452,1712209391819,1922564,0
1712209392452,1712209391860,1912564,0
1712209392452,1712209391899,1905584,0
1712209392452,1712209391939,1903253,0
1712209392452,1712209391979,1903228,0
1712209392452,1712209392019,1904271,0
1712209392452,1712209392061,1905356,0
1712209392452,1712209392100,1905530,0
1712209392452,1712209392140,1905075,0
1712209392452,1712209392180,1905139,0
1712209392452,1712209392220,1906222,0
1712209392452,1712209392261,1907993,0
1712209392452,1712209392300,1910423,0
1712209392452,1712209392340,1912695,0
1712209392452,1712209392381,1915041,0
1712209404474,1712209392418,1917148,0
1712209404474,1712209392459,1919135,0
1712209404474,1712209392498,1921046,0
1712209404474,1712209392538,1922823,0
1712209404474,1712209392578,1924736,0
1712209404474,1712209392618,1923932,0
1712209404474,1712209392659,1916305,0
1712209404474,1712209392698,1908609,0
1712209404474,1712209392739,1905264,0
1712209404474,1712209392779,1905009,0
1712209404474,1712209392819,1906334,0
1712209404474,1712209392860,1907942,0
1712209404474,1712209392899,1908777,0
1712209404474,1712209392939,1908555,0
1712209404474,1712209392979,1908266,0
1712209404474,1712209393019,1909616,0
1712209404474,1712209393060,1912552,0
1712209404474,1712209393100,1915355,0
1712209404474,1712209393140,1917767,0
1712209404474,1712209393180,1919609,0
1712209404474,1712209393220,1921364,0
1712209404474,1712209393261,1922964,0
1712209404474,1712209393300,1924536,0
1712209404474,1712209393340,1925756,0
1712209404474,1712209393381,1921467,0
1712209404474,1712209393421,1912086,0
1712209404474,1712209393462,1905865,0
1712209404474,1712209393501,1903911,0
1712209404474,1712209393541,1904147,0
1712209404474,1712209393581,1905876,0
1712209404474,1712209393622,1908419,0
1712209404474,1712209393663,1909609,0
1712209404474,1712209393702,1908952,0
1712209404474,1712209393742,1908125,0
1712209404474,1712209393782,1908244,0
1712209404474,1712209393822,1909850,0
1712209404474,1712209393863,1911835,0
1712209404474,1712209393902,1913965,0
1712209404474,1712209393943,1916261,0
1712209404474,1712209393983,1918098,0
1712209404474,1712209394023,1919949,0
1712209404474,1712209394064,1921666,0
1712209404474,1712209394103,1923409,0
1712209404474,1712209394143,1925039,0
1712209404474,1712209394183,1922566,0
1712209404474,1712209394224,1911546,0
1712209404474,1712209394265,1901114,0
1712209404474,1712209394304,1896008,0
1712209404474,1712209394344,1894042,0
1712209404474,1712209394384,1893674,0
1712209404474,1712209394424,1893844,0
1712209404474,1712209394466,1893822,0
1712209404474,1712209394505,1893416,0
1712209404474,1712209394545,1893181,0
1712209404474,1712209394585,1893492,0
1712209404474,1712209394625,1894902,0
1712209404474,1712209394666,1897108,0
1712209404474,1712209394705,1899536,0
1712209404474,1712209394745,1901994,0
1712209404474,1712209394786,1904170,0
1712209404474,1712209394826,1906427,0
1712209404474,1712209394867,1908350,0
1712209404474,1712209394906,1910256,0
1712209404474,1712209394946,1912328,0
1712209404474,1712209394986,1914312,0
1712209404474,1712209395026,1916028,0
1712209404474,1712209395067,1911421,0
1712209404474,1712209395106,1899041,0
1712209404474,1712209395146,1889820,0
1712209404474,1712209395187,1885849,0
1712209404474,1712209395227,1884776,0
1712209404474,1712209395268,1884688,0
1712209404474,1712209395307,1885105,0
1712209404474,1712209395347,1885055,0
1712209404474,1712209395387,1884506,0
1712209404474,1712209395427,1884157,0
1712209404474,1712209395468,1884886,0
1712209404474,1712209395507,1886616,0
1712209404474,1712209395548,1889079,0
1712209404474,1712209395588,1891567,0
1712209404474,1712209395628,1893882,0
1712209404474,1712209395669,1896119,0
1712209404474,1712209395708,1898314,0
1712209404474,1712209395748,1900285,0
1712209404474,1712209395788,1902419,0
1712209404474,1712209395828,1904516,0
1712209404474,1712209395869,1906725,0
1712209404474,1712209395908,1908876,0
1712209404474,1712209395948,1907400,0
1712209404474,1712209395989,1896439,0
1712209404474,1712209396029,1885647,0
1712209404474,1712209396070,1880666,0
1712209404474,1712209396109,1879568,0
1712209404474,1712209396149,1879963,0
1712209404474,1712209396189,1880930,0
1712209404474,1712209396229,1881521,0
1712209404474,1712209396270,1881422,0
1712209404474,1712209396309,1881178,0
1712209404474,1712209396349,1881714,0
1712209404474,1712209396390,1883401,0
1712209404474,1712209396430,1885897,0
1712209404474,1712209396471,1888651,0
1712209404474,1712209396510,1891435,0
1712209404474,1712209396550,1894144,0
1712209404474,1712209396590,1896684,0
1712209404474,1712209396630,1898941,0
1712209404474,1712209396671,1901217,0
1712209404474,1712209396710,1903459,0
1712209404474,1712209396751,1905839,0
1712209404474,1712209396791,1907901,0
1712209404474,1712209396831,1904208,0
1712209404474,1712209396872,1893583,0
1712209404474,1712209396911,1885724,0
1712209404474,1712209396951,1883154,0
1712209404474,1712209396991,1883455,0
1712209404474,1712209397031,1884883,0
1712209404474,1712209397072,1886568,0
1712209404474,1712209397112,1887023,0
1712209404474,1712209397152,1886567,0
1712209404474,1712209397192,1886313,0
1712209404474,1712209397232,1887209,0
1712209404474,1712209397273,1889093,0
1712209404474,1712209397312,1891719,0
1712209404474,1712209397352,1894498,0
1712209404474,1712209397392,1897141,0
1712209404474,1712209397432,1899508,0
1712209404474,1712209397473,1901850,0
1712209404474,1712209397513,1903968,0
1712209404474,1712209397553,1906055,0
1712209404474,1712209397593,1905079,0
1712209404474,1712209397633,1895639,0
1712209404474,1712209397674,1885694,0
1712209404474,1712209397713,1881686,0
1712209404474,1712209397753,1881141,0
1712209404474,1712209397793,1882282,0
1712209404474,1712209397834,1883978,0
1712209404474,1712209397874,1885006,0
1712209404474,1712209397914,1885024,0
1712209404474,1712209397954,1884569,0
1712209404474,1712209397994,1885196,0
1712209404474,1712209398034,1887084,0
1712209404474,1712209398075,1889442,0
1712209404474,1712209398114,1892300,0
1712209404474,1712209398155,1895177,0
1712209404474,1712209398195,1897887,0
1712209404474,1712209398235,1900361,0
1712209404474,1712209398276,1902680,0
1712209404474,1712209398315,1905014,0
1712209404474,1712209398355,1907268,0
1712209404474,1712209398395,1907564,0
1712209404474,1712209398436,1898443,0
1712209404474,1712209398476,1886399,0
1712209404474,1712209398516,1880551,0
1712209404474,1712209398556,1879081,0
1712209404474,1712209398596,1879083,0
1712209404474,1712209398636,1879929,0
1712209404474,1712209398677,1880515,0
1712209404474,1712209398717,1880442,0
1712209404474,1712209398757,1879954,0
1712209404474,1712209398797,1880184,0
1712209404474,1712209398837,1881654,0
1712209404474,1712209398878,1883989,0
1712209404474,1712209398917,1886606,0
1712209404474,1712209398957,1889271,0
1712209404474,1712209398997,1891887,0
1712209404474,1712209399038,1894415,0
1712209404474,1712209399078,1896670,0
1712209404474,1712209399118,1898918,0
1712209404474,1712209399158,1901268,0
1712209404474,1712209399198,1902880,0
1712209404474,1712209399238,1896778,0
1712209404474,1712209399279,1883918,0
1712209404474,1712209399319,1876077,0
1712209404474,1712209399359,1873682,0
1712209404474,1712209399399,1873239,0
1712209404474,1712209399439,1873760,0
1712209404474,1712209399480,1874519,0
1712209404474,1712209399519,1874414,0
1712209404474,1712209399559,1874027,0
1712209404474,1712209399600,1873917,0
1712209404474,1712209399640,1874874,0
1712209404474,1712209399681,1876961,0
1712209404474,1712209399720,1879611,0
1712209404474,1712209399760,1882389,0
1712209404474,1712209399800,1884948,0
1712209404474,1712209399841,1887342,0
1712209404474,1712209399882,1889746,0
1712209404474,1712209399921,1891995,0
1712209404474,1712209399961,1894448,0
1712209404474,1712209400001,1896753,0
1712209404474,1712209400041,1897315,0
1712209404474,1712209400082,1888090,0
1712209404474,1712209400122,1875961,0
1712209404474,1712209400162,1870176,0
1712209404474,1712209400202,1868820,0
1712209404474,1712209400242,1868854,0
1712209404474,1712209400283,1869766,0
1712209404474,1712209400322,1870342,0
1712209404474,1712209400363,1870119,0
1712209404474,1712209400403,1869665,0
1712209404474,1712209400443,1869911,0
1712209404474,1712209400484,1871382,0
1712209404474,1712209400523,1873605,0
1712209404474,1712209400563,1876273,0
1712209404474,1712209400603,1879068,0
1712209404474,1712209400644,1881777,0
1712209404474,1712209400684,1884231,0
1712209404474,1712209400724,1886562,0
1712209404474,1712209400764,1888802,0
1712209404474,1712209400804,1891228,0
1712209404474,1712209400844,1893677,0
1712209404474,1712209400885,1895672,0
1712209404474,1712209400924,1890574,0
1712209404474,1712209400964,1878674,0
1712209404474,1712209401004,1871638,0
1712209404474,1712209401044,1869610,0
1712209404474,1712209401085,1869883,0
1712209404474,1712209401125,1871041,0
1712209404474,1712209401165,1872382,0
1712209404474,1712209401205,1872425,0
1712209404474,1712209401245,1871621,0
1712209404474,1712209401286,1871356,0
1712209404474,1712209401325,1872500,0
1712209404474,1712209401365,1874559,0
1712209404474,1712209401405,1877209,0
1712209404474,1712209401446,1880082,0
1712209404474,1712209401486,1882659,0
1712209404474,1712209401526,1885054,0
1712209404474,1712209401566,1887280,0
1712209404474,1712209401606,1889554,0
1712209404474,1712209401646,1892032,0
1712209404474,1712209401687,1893002,0
1712209404474,1712209401726,1885513,0
1712209404474,1712209401766,1874737,0
1712209404474,1712209401806,1869534,0
1712209404474,1712209401846,1868462,0
1712209404474,1712209401887,1869313,0
1712209404474,1712209401927,1871023,0
1712209404474,1712209401967,1872096,0
1712209404474,1712209402007,1872146,0
1712209404474,1712209402047,1871886,0
1712209404474,1712209402088,1872202,0
1712209404474,1712209402127,1873868,0
1712209404474,1712209402167,1876261,0
1712209404474,1712209402207,1879074,0
1712209404474,1712209402247,1882110,0
1712209404474,1712209402288,1884913,0
1712209404474,1712209402328,1887669,0
1712209404474,1712209402368,1890084,0
1712209404474,1712209402408,1892573,0
1712209404474,1712209402448,1895065,0
1712209404474,1712209402489,1897556,0
1712209404474,1712209402528,1896283,0
1712209404474,1712209402568,1884563,0
1712209404474,1712209402609,1874021,0
1712209404474,1712209402649,1869842,0
1712209404474,1712209402690,1868776,0
1712209404474,1712209402729,1868666,0
1712209404474,1712209402769,1869394,0
1712209404474,1712209402809,1869731,0
1712209404474,1712209402849,1869596,0
1712209404474,1712209402890,1869315,0
1712209404474,1712209402929,1869907,0
1712209404474,1712209402969,1871554,0
1712209404474,1712209403010,1874054,0
1712209404474,1712209403050,1876832,0
1712209404474,1712209403091,1879644,0
1712209404474,1712209403130,1882416,0
1712209404474,1712209403170,1884892,0
1712209404474,1712209403210,1887283,0
1712209404474,1712209403250,1889781,0
1712209404474,1712209403291,1892371,0
1712209404474,1712209403331,1894655,0
1712209404474,1712209403371,1896779,0
1712209404474,1712209403411,1892977,0
1712209404474,1712209403451,1881243,0
1712209404474,1712209403492,1873179,0
1712209404474,1712209403531,1870470,0
1712209404474,1712209403571,1870505,0
1712209404474,1712209403612,1871364,0
1712209404474,1712209403651,1872781,0
1712209404474,1712209403692,1873494,0
1712209404474,1712209403732,1873932,0
1712209404474,1712209403772,1874367,0
1712209404474,1712209403812,1875620,0
1712209404474,1712209403852,1877741,0
1712209404474,1712209403893,1880278,0
1712209404474,1712209403932,1883195,0
1712209404474,1712209403972,1886100,0
1712209404474,1712209404012,1888796,0
1712209404474,1712209404052,1891074,0
1712209404474,1712209404093,1893439,0
1712209404474,1712209404133,1895630,0
1712209404474,1712209404173,1898016,0
1712209404474,1712209404213,1900030,0
1712209404474,1712209404253,1897911,0
1712209404474,1712209404294,1888732,0
1712209404474,1712209404333,1881556,0
1712209404474,1712209404373,1879427,0
1712209404474,1712209404414,1879725,0
1712209416484,1712209404452,1881276,0
1712209416484,1712209404493,1883237,0
1712209416484,1712209404532,1883963,0
1712209416484,1712209404572,1883835,0
1712209416484,1712209404612,1883760,0
1712209416484,1712209404652,1884784,0
1712209416484,1712209404693,1886854,0
1712209416484,1712209404733,1889426,0
1712209416484,1712209404773,1892276,0
1712209416484,1712209404813,1895068,0
1712209416484,1712209404853,1897662,0
1712209416484,1712209404894,1900208,0
1712209416484,1712209404933,1902545,0
1712209416484,1712209404973,1904105,0
1712209416484,1712209405013,1898533,0
1712209416484,1712209405053,1887651,0
1712209416484,1712209405094,1881469,0
1712209416484,1712209405134,1879725,0
1712209416484,1712209405174,1880203,0
1712209416484,1712209405214,1881483,0
1712209416484,1712209405254,1882622,0
1712209416484,1712209405295,1883363,0
1712209416484,1712209405334,1883251,0
1712209416484,1712209405374,1883680,0
1712209416484,1712209405415,1885095,0
1712209416484,1712209405455,1887225,0
1712209416484,1712209405496,1890006,0
1712209416484,1712209405535,1893037,0
1712209416484,1712209405575,1896087,0
1712209416484,1712209405615,1898898,0
1712209416484,1712209405655,1901475,0
1712209416484,1712209405696,1903826,0
1712209416484,1712209405736,1905264,0
1712209416484,1712209405776,1899256,0
1712209416484,1712209405816,1887647,0
1712209416484,1712209405856,1881140,0
1712209416484,1712209405897,1879270,0
1712209416484,1712209405936,1879474,0
1712209416484,1712209405976,1880565,0
1712209416484,1712209406017,1882031,0
1712209416484,1712209406057,1882769,0
1712209416484,1712209406097,1882634,0
1712209416484,1712209406137,1882854,0
1712209416484,1712209406177,1883788,0
1712209416484,1712209406217,1885680,0
1712209416484,1712209406257,1888391,0
1712209416484,1712209406298,1891281,0
1712209416484,1712209406337,1894144,0
1712209416484,1712209406378,1896805,0
1712209416484,1712209406418,1899043,0
1712209416484,1712209406458,1901107,0
1712209416484,1712209406499,1901461,0
1712209416484,1712209406538,1892746,0
1712209416484,1712209406578,1881838,0
1712209416484,1712209406619,1876661,0
1712209416484,1712209406659,1875216,0
1712209416484,1712209406699,1875376,0
1712209416484,1712209406739,1876486,0
1712209416484,1712209406779,1877012,0
1712209416484,1712209406819,1876715,0
1712209416484,1712209406859,1876111,0
1712209416484,1712209406900,1876325,0
1712209416484,1712209406940,1877771,0
1712209416484,1712209406980,1879938,0
1712209416484,1712209407020,1882618,0
1712209416484,1712209407060,1885125,0
1712209416484,1712209407101,1890012,0
1712209416484,1712209407140,1892207,0
1712209416484,1712209407180,1891907,0
1712209416484,1712209407220,1881664,0
1712209416484,1712209407260,1870259,0
1712209416484,1712209407301,1865090,0
1712209416484,1712209407341,1863540,0
1712209416484,1712209407380,1863280,0
1712209416484,1712209407421,1863849,0
1712209416484,1712209407461,1864142,0
1712209416484,1712209407501,1863651,0
1712209416484,1712209407541,1863021,0
1712209416484,1712209407581,1863129,0
1712209416484,1712209407621,1864378,0
1712209416484,1712209407661,1866665,0
1712209416484,1712209407702,1869087,0
1712209416484,1712209407741,1871653,0
1712209416484,1712209407781,1874092,0
1712209416484,1712209407822,1876395,0
1712209416484,1712209407862,1878442,0
1712209416484,1712209407902,1880308,0
1712209416484,1712209407942,1877128,0
1712209416484,1712209407982,1865102,0
1712209416484,1712209408022,1855980,0
1712209416484,1712209408062,1852068,0
1712209416484,1712209408103,1850835,0
1712209416484,1712209408142,1850509,0
1712209416484,1712209408182,1850821,0
1712209416484,1712209408222,1850530,0
1712209416484,1712209408263,1849698,0
1712209416484,1712209408303,1849536,0
1712209416484,1712209408343,1850703,0
1712209416484,1712209408383,1852821,0
1712209416484,1712209408423,1855309,0
1712209416484,1712209408463,1858270,0
1712209416484,1712209408504,1861150,0
1712209416484,1712209408543,1863701,0
1712209416484,1712209408583,1865986,0
1712209416484,1712209408623,1867861,0
1712209416484,1712209408664,1869670,0
1712209416484,1712209408704,1870869,0
1712209416484,1712209408744,1865806,0
1712209416484,1712209408784,1855706,0
1712209416484,1712209408824,1849418,0
1712209416484,1712209408864,1847757,0
1712209416484,1712209408905,1848105,0
1712209416484,1712209408944,1849650,0
1712209416484,1712209408984,1851119,0
1712209416484,1712209409024,1851413,0
1712209416484,1712209409064,1851202,0
1712209416484,1712209409105,1851551,0
1712209416484,1712209409145,1852729,0
1712209416484,1712209409185,1855056,0
1712209416484,1712209409225,1857907,0
1712209416484,1712209409265,1860880,0
1712209416484,1712209409306,1863831,0
1712209416484,1712209409345,1866257,0
1712209416484,1712209409385,1868350,0
1712209416484,1712209409425,1865730,0
1712209416484,1712209409465,1855729,0
1712209416484,1712209409506,1848418,0
1712209416484,1712209409546,1846222,0
1712209416484,1712209409586,1846573,0
1712209416484,1712209409626,1848376,0
1712209416484,1712209409666,1850296,0
1712209416484,1712209409707,1851043,0
1712209416484,1712209409746,1850967,0
1712209416484,1712209409786,1850883,0
1712209416484,1712209409826,1852004,0
1712209416484,1712209409867,1854252,0
1712209416484,1712209409907,1857128,0
1712209416484,1712209409947,1859945,0
1712209416484,1712209409987,1862668,0
1712209416484,1712209410027,1865740,0
1712209416484,1712209410067,1868423,0
1712209416484,1712209410108,1867689,0
1712209416484,1712209410147,1856726,0
1712209416484,1712209410187,1846793,0
1712209416484,1712209410228,1843413,0
1712209416484,1712209410267,1843172,0
1712209416484,1712209410308,1844227,0
1712209416484,1712209410348,1845860,0
1712209416484,1712209410388,1846903,0
1712209416484,1712209410428,1847070,0
1712209416484,1712209410468,1847078,0
1712209416484,1712209410509,1847921,0
1712209416484,1712209410548,1849948,0
1712209416484,1712209410588,1852881,0
1712209416484,1712209410628,1855871,0
1712209416484,1712209410669,1858969,0
1712209416484,1712209410709,1862131,0
1712209416484,1712209410749,1864813,0
1712209416484,1712209410789,1866614,0
1712209416484,1712209410829,1859064,0
1712209416484,1712209410869,1846737,0
1712209416484,1712209410910,1840876,0
1712209416484,1712209410949,1839481,0
1712209416484,1712209410989,1839882,0
1712209416484,1712209411030,1841196,0
1712209416484,1712209411070,1842407,0
1712209416484,1712209411110,1842921,0
1712209416484,1712209411150,1842817,0
1712209416484,1712209411190,1843348,0
1712209416484,1712209411230,1845020,0
1712209416484,1712209411270,1847578,0
1712209416484,1712209411311,1850660,0
1712209416484,1712209411350,1853795,0
1712209416484,1712209411390,1856931,0
1712209416484,1712209411431,1859789,0
1712209416484,1712209411471,1862226,0
1712209416484,1712209411512,1864028,0
1712209416484,1712209411551,1858225,0
1712209416484,1712209411591,1847293,0
1712209416484,1712209411631,1842300,0
1712209416484,1712209411672,1841940,0
1712209416484,1712209411712,1843342,0
1712209416484,1712209411752,1845251,0
1712209416484,1712209411792,1847055,0
1712209416484,1712209411832,1847742,0
1712209416484,1712209411872,1847706,0
1712209416484,1712209411913,1848383,0
1712209416484,1712209411952,1850294,0
1712209416484,1712209411992,1852966,0
1712209416484,1712209412033,1856009,0
1712209416484,1712209412073,1859234,0
1712209416484,1712209412114,1862203,0
1712209416484,1712209412153,1864926,0
1712209416484,1712209412193,1867415,0
1712209416484,1712209412233,1863842,0
1712209416484,1712209412274,1852745,0
1712209416484,1712209412314,1847212,0
1712209416484,1712209412354,1846579,0
1712209416484,1712209412394,1848125,0
1712209416484,1712209412434,1850548,0
1712209416484,1712209412474,1852787,0
1712209416484,1712209412515,1853537,0
1712209416484,1712209412554,1853475,0
1712209416484,1712209412594,1853736,0
1712209416484,1712209412635,1855381,0
1712209416484,1712209412675,1857938,0
1712209416484,1712209412715,1861058,0
1712209416484,1712209412755,1864195,0
1712209416484,1712209412795,1867190,0
1712209416484,1712209412835,1869972,0
1712209416484,1712209412875,1872303,0
1712209416484,1712209412916,1867660,0
1712209416484,1712209412955,1854882,0
1712209416484,1712209412996,1848706,0
1712209416484,1712209413036,1847579,0
1712209416484,1712209413076,1848664,0
1712209416484,1712209413117,1850377,0
1712209416484,1712209413156,1852087,0
1712209416484,1712209413196,1852805,0
1712209416484,1712209413236,1852746,0
1712209416484,1712209413276,1853196,0
1712209416484,1712209413317,1854587,0
1712209416484,1712209413357,1857093,0
1712209416484,1712209413397,1859923,0
1712209416484,1712209413437,1863030,0
1712209416484,1712209413477,1865951,0
1712209416484,1712209413518,1868809,0
1712209416484,1712209413557,1871169,0
1712209416484,1712209413598,1873277,0
1712209416484,1712209413638,1867164,0
1712209416484,1712209413678,1853982,0
1712209416484,1712209413719,1848115,0
1712209416484,1712209413758,1846989,0
1712209416484,1712209413798,1847931,0
1712209416484,1712209413838,1849356,0
1712209416484,1712209413878,1850779,0
1712209416484,1712209413919,1851245,0
1712209416484,1712209413958,1851094,0
1712209416484,1712209413998,1851391,0
1712209416484,1712209414039,1852902,0
1712209416484,1712209414079,1855436,0
1712209416484,1712209414119,1858388,0
1712209416484,1712209414159,1861586,0
1712209416484,1712209414199,1864521,0
1712209416484,1712209414239,1867330,0
1712209416484,1712209414279,1869929,0
1712209416484,1712209414320,1872306,0
1712209416484,1712209414359,1874871,0
1712209416484,1712209414399,1873791,0
1712209416484,1712209414440,1861937,0
1712209416484,1712209414480,1852685,0
1712209416484,1712209414520,1850468,0
1712209416484,1712209414560,1851094,0
1712209416484,1712209414600,1852865,0
1712209416484,1712209414640,1854747,0
1712209416484,1712209414680,1855664,0
1712209416484,1712209414721,1855387,0
1712209416484,1712209414760,1855342,0
1712209416484,1712209414800,1856391,0
1712209416484,1712209414840,1858511,0
1712209416484,1712209414881,1861265,0
1712209416484,1712209414921,1864271,0
1712209416484,1712209414961,1867206,0
1712209416484,1712209415001,1869933,0
1712209416484,1712209415041,1872323,0
1712209416484,1712209415081,1874759,0
1712209416484,1712209415122,1875914,0
1712209416484,1712209415161,1868404,0
1712209416484,1712209415201,1857888,0
1712209416484,1712209415241,1854030,0
1712209416484,1712209415282,1854236,0
1712209416484,1712209415322,1856072,0
1712209416484,1712209415362,1858481,0
1712209416484,1712209415402,1860323,0
1712209416484,1712209415442,1860685,0
1712209416484,1712209415482,1860183,0
1712209416484,1712209415523,1860650,0
1712209416484,1712209415562,1862341,0
1712209416484,1712209415602,1864931,0
1712209416484,1712209415642,1867702,0
1712209416484,1712209415682,1870615,0
1712209416484,1712209415723,1873335,0
1712209416484,1712209415763,1875807,0
1712209416484,1712209415803,1878195,0
1712209416484,1712209415843,1880219,0
1712209416484,1712209415883,1877587,0
1712209416484,1712209415924,1865392,0
1712209416484,1712209415963,1856569,0
1712209416484,1712209416003,1854206,0
1712209416484,1712209416043,1854479,0
1712209416484,1712209416083,1855816,0
1712209416484,1712209416124,1857439,0
1712209416484,1712209416164,1858202,0
1712209416484,1712209416204,1857978,0
1712209416484,1712209416244,1858046,0
1712209416484,1712209416284,1859086,0
1712209416484,1712209416325,1861604,0
1712209416484,1712209416364,1864499,0
1712209416484,1712209416404,1867484,0
1712209416484,1712209416444,1870505,0
1712209428562,1712209416487,1873245,0
1712209428562,1712209416527,1875613,0
1712209428562,1712209416567,1877962,0
1712209428562,1712209416607,1880258,0
1712209428562,1712209416647,1879310,0
1712209428562,1712209416687,1867714,0
1712209428562,1712209416728,1857263,0
1712209428562,1712209416767,1853892,0
1712209428562,1712209416807,1853971,0
1712209428562,1712209416848,1854932,0
1712209428562,1712209416888,1856554,0
1712209428562,1712209416928,1857307,0
1712209428562,1712209416968,1857451,0
1712209428562,1712209417008,1857309,0
1712209428562,1712209417048,1858419,0
1712209428562,1712209417088,1860578,0
1712209428562,1712209417129,1863277,0
1712209428562,1712209417168,1866453,0
1712209428562,1712209417209,1869596,0
1712209428562,1712209417249,1872657,0
1712209428562,1712209417289,1875513,0
1712209428562,1712209417330,1878074,0
1712209428562,1712209417369,1880732,0
1712209428562,1712209417409,1883077,0
1712209428562,1712209417449,1878418,0
1712209428562,1712209417489,1865387,0
1712209428562,1712209417530,1858493,0
1712209428562,1712209417570,1857423,0
1712209428562,1712209417610,1858381,0
1712209428562,1712209417650,1860319,0
1712209428562,1712209417690,1861875,0
1712209428562,1712209417731,1862225,0
1712209428562,1712209417770,1861603,0
1712209428562,1712209417810,1861295,0
1712209428562,1712209417851,1862131,0
1712209428562,1712209417891,1864219,0
1712209428562,1712209417931,1866933,0
1712209428562,1712209417971,1869927,0
1712209428562,1712209418011,1873018,0
1712209428562,1712209418051,1875908,0
1712209428562,1712209418091,1878584,0
1712209428562,1712209418132,1880512,0
1712209428562,1712209418172,1874678,0
1712209428562,1712209418211,1863068,0
1712209428562,1712209418252,1857611,0
1712209428562,1712209418292,1856923,0
1712209428562,1712209418332,1858362,0
1712209428562,1712209418372,1860664,0
1712209428562,1712209418412,1862649,0
1712209428562,1712209418452,1863198,0
1712209428562,1712209418492,1862649,0
1712209428562,1712209418533,1862846,0
1712209428562,1712209418573,1864354,0
1712209428562,1712209418613,1866692,0
1712209428562,1712209418653,1869531,0
1712209428562,1712209418693,1872542,0
1712209428562,1712209418734,1875564,0
1712209428562,1712209418773,1878478,0
1712209428562,1712209418813,1881032,0
1712209428562,1712209418853,1883511,0
1712209428562,1712209418894,1880669,0
1712209428562,1712209418934,1866754,0
1712209428562,1712209418974,1857694,0
1712209428562,1712209419014,1855002,0
1712209428562,1712209419054,1855031,0
1712209428562,1712209419094,1855808,0
1712209428562,1712209419135,1857010,0
1712209428562,1712209419174,1857277,0
1712209428562,1712209419215,1856520,0
1712209428562,1712209419255,1856147,0
1712209428562,1712209419295,1856954,0
1712209428562,1712209419336,1858766,0
1712209428562,1712209419375,1861310,0
1712209428562,1712209419415,1864034,0
1712209428562,1712209419455,1866732,0
1712209428562,1712209419496,1869340,0
1712209428562,1712209419536,1871828,0
1712209428562,1712209419576,1874157,0
1712209428562,1712209419616,1872041,0
1712209428562,1712209419656,1858225,0
1712209428562,1712209419696,1848234,0
1712209428562,1712209419737,1844756,0
1712209428562,1712209419776,1844160,0
1712209428562,1712209419816,1844552,0
1712209428562,1712209419857,1845343,0
1712209428562,1712209419897,1845443,0
1712209428562,1712209419937,1844785,0
1712209428562,1712209419977,1844245,0
1712209428562,1712209420017,1844851,0
1712209428562,1712209420057,1846587,0
1712209428562,1712209420097,1849023,0
1712209428562,1712209420138,1851853,0
1712209428562,1712209420177,1854626,0
1712209428562,1712209420218,1857417,0
1712209428562,1712209420258,1859892,0
1712209428562,1712209420298,1862067,0
1712209428562,1712209420339,1863264,0
1712209428562,1712209420378,1853719,0
1712209428562,1712209420418,1841467,0
1712209428562,1712209420458,1835629,0
1712209428562,1712209420498,1836162,0
1712209428562,1712209420539,1837243,0
1712209428562,1712209420579,1837898,0
1712209428562,1712209420618,1837251,0
1712209428562,1712209420659,1836221,0
1712209428562,1712209420699,1836279,0
1712209428562,1712209420739,1837637,0
1712209428562,1712209420779,1839734,0
1712209428562,1712209420819,1842345,0
1712209428562,1712209420859,1845024,0
1712209428562,1712209420899,1847423,0
1712209428562,1712209420940,1849545,0
1712209428562,1712209420979,1851690,0
1712209428562,1712209421019,1850728,0
1712209428562,1712209421060,1838916,0
1712209428562,1712209421099,1829650,0
1712209428562,1712209421140,1826437,0
1712209428562,1712209421180,1826352,0
1712209428562,1712209421220,1827559,0
1712209428562,1712209421260,1829086,0
1712209428562,1712209421300,1829208,0
1712209428562,1712209421341,1828244,0
1712209428562,1712209421380,1827378,0
1712209428562,1712209421421,1827974,0
1712209428562,1712209421460,1829787,0
1712209428562,1712209421501,1832214,0
1712209428562,1712209421542,1834821,0
1712209428562,1712209421581,1837461,0
1712209428562,1712209421621,1839828,0
1712209428562,1712209421661,1842022,0
1712209428562,1712209421701,1844254,0
1712209428562,1712209421742,1843344,0
1712209428562,1712209421781,1830440,0
1712209428562,1712209421821,1820202,0
1712209428562,1712209421861,1816354,0
1712209428562,1712209421902,1815546,0
1712209428562,1712209421942,1815670,0
1712209428562,1712209421982,1816356,0
1712209428562,1712209422022,1816422,0
1712209428562,1712209422062,1815667,0
1712209428562,1712209422102,1814970,0
1712209428562,1712209422143,1815367,0
1712209428562,1712209422182,1817035,0
1712209428562,1712209422222,1819376,0
1712209428562,1712209422262,1821814,0
1712209428562,1712209422302,1824376,0
1712209428562,1712209422343,1826706,0
1712209428562,1712209422383,1828821,0
1712209428562,1712209422423,1830808,0
1712209428562,1712209422463,1832752,0
1712209428562,1712209422503,1827671,0
1712209428562,1712209422544,1814413,0
1712209428562,1712209422583,1807152,0
1712209428562,1712209422623,1804939,0
1712209428562,1712209422663,1804485,0
1712209428562,1712209422704,1804924,0
1712209428562,1712209422744,1805576,0
1712209428562,1712209422784,1805313,0
1712209428562,1712209422824,1804611,0
1712209428562,1712209422864,1804777,0
1712209428562,1712209422904,1806264,0
1712209428562,1712209422945,1808701,0
1712209428562,1712209422984,1811525,0
1712209428562,1712209423024,1814117,0
1712209428562,1712209423064,1816302,0
1712209428562,1712209423105,1818254,0
1712209428562,1712209423145,1820289,0
1712209428562,1712209423185,1822418,0
1712209428562,1712209423225,1824372,0
1712209428562,1712209423265,1825022,0
1712209428562,1712209423305,1818288,0
1712209428562,1712209423346,1812181,0
1712209428562,1712209423385,1809968,0
1712209428562,1712209423425,1810665,0
1712209428562,1712209423465,1811844,0
1712209428562,1712209423505,1813417,0
1712209428562,1712209423546,1814622,0
1712209428562,1712209423586,1815448,0
1712209428562,1712209423626,1816103,0
1712209428562,1712209423666,1817328,0
1712209428562,1712209423706,1819903,0
1712209428562,1712209423747,1823076,0
1712209428562,1712209423786,1826515,0
1712209428562,1712209423826,1831339,0
1712209428562,1712209423866,1836593,0
1712209428562,1712209423907,1843309,0
1712209428562,1712209423947,1853283,0
1712209428562,1712209423987,1862116,0
1712209428562,1712209424027,1865728,0
1712209428562,1712209424067,1863994,0
1712209428562,1712209424107,1865528,0
1712209428562,1712209424148,1870905,0
1712209428562,1712209424187,1879556,0
1712209428562,1712209424227,1887371,0
1712209428562,1712209424268,1893132,0
1712209428562,1712209424308,1896868,0
1712209428562,1712209424348,1899346,0
1712209428562,1712209424388,1901722,0
1712209428562,1712209424428,1904081,0
1712209428562,1712209424468,1906212,0
1712209428562,1712209424508,1908153,0
1712209428562,1712209424549,1909487,0
1712209428562,1712209424588,1909607,0
1712209428562,1712209424629,1909440,0
1712209428562,1712209424669,1909941,0
1712209428562,1712209424709,1910343,0
1712209428562,1712209424750,1911474,0
1712209428562,1712209424789,1913192,0
1712209428562,1712209424829,1909387,0
1712209428562,1712209424869,1901333,0
1712209428562,1712209424909,1904402,0
1712209428562,1712209424950,1910344,0
1712209428562,1712209424990,1917335,0
1712209428562,1712209425030,1923586,0
1712209428562,1712209425070,1929219,0
1712209428562,1712209425110,1933251,0
1712209428562,1712209425151,1935182,0
1712209428562,1712209425190,1936895,0
1712209428562,1712209425230,1938346,0
1712209428562,1712209425271,1938002,0
1712209428562,1712209425311,1937857,0
1712209428562,1712209425351,1938766,0
1712209428562,1712209425391,1941808,0
1712209428562,1712209425431,1945666,0
1712209428562,1712209425471,1951572,0
1712209428562,1712209425511,1957148,0
1712209428562,1712209425552,1960291,0
1712209428562,1712209425591,1963320,0
1712209428562,1712209425632,1959661,0
1712209428562,1712209425672,1948688,0
1712209428562,1712209425712,1944623,0
1712209428562,1712209425753,1946161,0
1712209428562,1712209425792,1949317,0
1712209428562,1712209425832,1952531,0
1712209428562,1712209425873,1954375,0
1712209428562,1712209425912,1956142,0
1712209428562,1712209425953,1958385,0
1712209428562,1712209425993,1960538,0
1712209428562,1712209426033,1962394,0
1712209428562,1712209426073,1964587,0
1712209428562,1712209426113,1968410,0
1712209428562,1712209426154,1971890,0
1712209428562,1712209426193,1974281,0
1712209428562,1712209426234,1976865,0
1712209428562,1712209426274,1979404,0
1712209428562,1712209426314,1981796,0
1712209428562,1712209426355,1984139,0
1712209428562,1712209426394,1985562,0
1712209428562,1712209426434,1980909,0
1712209428562,1712209426475,1973285,0
1712209428562,1712209426515,1972549,0
1712209428562,1712209426555,1974662,0
1712209428562,1712209426595,1977388,0
1712209428562,1712209426635,1980425,0
1712209428562,1712209426675,1982662,0
1712209428562,1712209426715,1984113,0
1712209428562,1712209426756,1985151,0
1712209428562,1712209426796,1986931,0
1712209428562,1712209426836,1989102,0
1712209428562,1712209426876,1991728,0
1712209428562,1712209426916,1993740,0
1712209428562,1712209426957,1995442,0
1712209428562,1712209426996,1997200,0
1712209428562,1712209427036,1998994,0
1712209428562,1712209427077,2000415,0
1712209428562,1712209427117,2001618,0
1712209428562,1712209427157,1997021,0
1712209428562,1712209427197,1986705,0
1712209428562,1712209427237,1984203,0
1712209428562,1712209427277,1985308,0
1712209428562,1712209427317,1986834,0
1712209428562,1712209427358,1988271,0
1712209428562,1712209427397,1989209,0
1712209428562,1712209427437,1989295,0
1712209428562,1712209427477,1988818,0
1712209428562,1712209427517,1989278,0
1712209428562,1712209427558,1990895,0
1712209428562,1712209427598,1992899,0
1712209428562,1712209427638,1994784,0
1712209428562,1712209427678,1996832,0
1712209428562,1712209427718,1999049,0
1712209428562,1712209427759,2001151,0
1712209428562,1712209427798,2003077,0
1712209428562,1712209427838,2004678,0
1712209428562,1712209427878,2006034,0
1712209428562,1712209427918,2001997,0
1712209428562,1712209427959,1991596,0
1712209428562,1712209427998,1988888,0
1712209428562,1712209428039,1989316,0
1712209428562,1712209428079,1990297,0
1712209428562,1712209428119,1991110,0
1712209428562,1712209428160,1992740,0
1712209428562,1712209428199,1993834,0
1712209428562,1712209428239,1994278,0
1712209428562,1712209428279,1995324,0
1712209428562,1712209428319,1996684,0
1712209428562,1712209428360,1996810,0
1712209428562,1712209428399,1995674,0
1712209428562,1712209428439,1994804,0
1712209428562,1712209428480,1994912,0
1712209440598,1712209428520,1995215,0
1712209440598,1712209428560,1995685,0
1712209440598,1712209428600,1996067,0
1712209440598,1712209428640,1996799,0
1712209440598,1712209428680,1994031,0
1712209440598,1712209428720,1982732,0
1712209440598,1712209428761,1975708,0
1712209440598,1712209428800,1972609,0
1712209440598,1712209428840,1971567,0
1712209440598,1712209428881,1971567,0
1712209440598,1712209428921,1971930,0
1712209440598,1712209428962,1971692,0
1712209440598,1712209429001,1970820,0
1712209440598,1712209429041,1970136,0
1712209440598,1712209429081,1970477,0
1712209440598,1712209429122,1971605,0
1712209440598,1712209429162,1973099,0
1712209440598,1712209429201,1974547,0
1712209440598,1712209429242,1976143,0
1712209440598,1712209429282,1977599,0
1712209440598,1712209429322,1978901,0
1712209440598,1712209429363,1980340,0
1712209440598,1712209429402,1981518,0
1712209440598,1712209429442,1978023,0
1712209440598,1712209429482,1968452,0
1712209440598,1712209429522,1961558,0
1712209440598,1712209429563,1959064,0
1712209440598,1712209429603,1958924,0
1712209440598,1712209429643,1959713,0
1712209440598,1712209429683,1960462,0
1712209440598,1712209429723,1960119,0
1712209440598,1712209429764,1959129,0
1712209440598,1712209429803,1958542,0
1712209440598,1712209429843,1959114,0
1712209440598,1712209429883,1960381,0
1712209440598,1712209429923,1962061,0
1712209440598,1712209429964,1963819,0
1712209440598,1712209430004,1965371,0
1712209440598,1712209430044,1966864,0
1712209440598,1712209430084,1968126,0
1712209440598,1712209430124,1969347,0
1712209440598,1712209430165,1968709,0
1712209440598,1712209430204,1959346,0
1712209440598,1712209430244,1949833,0
1712209440598,1712209430285,1945621,0
1712209440598,1712209430325,1944528,0
1712209440598,1712209430365,1944609,0
1712209440598,1712209430405,1944929,0
1712209440598,1712209430445,1944256,0
1712209440598,1712209430485,1942830,0
1712209440598,1712209430525,1941671,0
1712209440598,1712209430566,1941817,0
1712209440598,1712209430606,1942899,0
1712209440598,1712209430646,1944795,0
1712209440598,1712209430686,1946903,0
1712209440598,1712209430726,1949050,0
1712209440598,1712209430767,1951269,0
1712209440598,1712209430806,1953775,0
1712209440598,1712209430846,1957172,0
1712209440598,1712209430886,1960792,0
1712209440598,1712209430927,1963664,0
1712209440598,1712209430967,1960718,0
1712209440598,1712209431007,1950484,0
1712209440598,1712209431047,1944467,0
1712209440598,1712209431087,1941687,0
1712209440598,1712209431127,1940603,0
1712209440598,1712209431168,1940545,0
1712209440598,1712209431207,1940807,0
1712209440598,1712209431247,1940777,0
1712209440598,1712209431288,1940235,0
1712209440598,1712209431328,1939848,0
1712209440598,1712209431368,1940491,0
1712209440598,1712209431408,1941982,0
1712209440598,1712209431448,1943876,0
1712209440598,1712209431488,1945842,0
1712209440598,1712209431529,1947676,0
1712209440598,1712209431569,1949359,0
1712209440598,1712209431609,1950979,0
1712209440598,1712209431649,1952431,0
1712209440598,1712209431689,1953893,0
1712209440598,1712209431729,1954725,0
1712209440598,1712209431770,1948225,0
1712209440598,1712209431809,1938721,0
1712209440598,1712209431849,1933693,0
1712209440598,1712209431890,1932378,0
1712209440598,1712209431930,1932531,0
1712209440598,1712209431970,1933366,0
1712209440598,1712209432010,1934161,0
1712209440598,1712209432050,1934292,0
1712209440598,1712209432090,1934024,0
1712209440598,1712209432131,1934487,0
1712209440598,1712209432171,1935676,0
1712209440598,1712209432211,1937490,0
1712209440598,1712209432251,1939762,0
1712209440598,1712209432291,1941789,0
1712209440598,1712209432331,1943750,0
1712209440598,1712209432372,1945567,0
1712209440598,1712209432411,1947133,0
1712209440598,1712209432451,1948740,0
1712209440598,1712209432492,1949790,0
1712209440598,1712209432532,1944765,0
1712209440598,1712209432573,1935889,0
1712209440598,1712209432612,1931394,0
1712209440598,1712209432652,1930385,0
1712209440598,1712209432692,1931097,0
1712209440598,1712209432733,1932740,0
1712209440598,1712209432773,1933857,0
1712209440598,1712209432813,1933645,0
1712209440598,1712209432853,1933110,0
1712209440598,1712209432893,1933430,0
1712209440598,1712209432933,1934682,0
1712209440598,1712209432974,1936446,0
1712209440598,1712209433014,1938489,0
1712209440598,1712209433054,1940570,0
1712209440598,1712209433094,1942478,0
1712209440598,1712209433134,1944199,0
1712209440598,1712209433175,1945868,0
1712209440598,1712209433214,1945581,0
1712209440598,1712209433254,1936763,0
1712209440598,1712209433294,1927920,0
1712209440598,1712209433335,1923476,0
1712209440598,1712209433375,1924101,0
1712209440598,1712209433415,1925343,0
1712209440598,1712209433455,1925906,0
1712209440598,1712209433495,1925883,0
1712209440598,1712209433535,1925760,0
1712209440598,1712209433576,1926334,0
1712209440598,1712209433615,1927809,0
1712209440598,1712209433655,1929750,0
1712209440598,1712209433695,1931919,0
1712209440598,1712209433735,1933870,0
1712209440598,1712209433776,1935984,0
1712209440598,1712209433816,1937741,0
1712209440598,1712209433856,1939474,0
1712209440598,1712209433896,1940644,0
1712209440598,1712209433936,1935318,0
1712209440598,1712209433977,1924235,0
1712209440598,1712209434016,1917624,0
1712209440598,1712209434056,1915366,0
1712209440598,1712209434096,1915181,0
1712209440598,1712209434136,1915564,0
1712209440598,1712209434177,1916448,0
1712209440598,1712209434217,1916506,0
1712209440598,1712209434257,1916275,0
1712209440598,1712209434297,1916544,0
1712209440598,1712209434337,1917707,0
1712209440598,1712209434378,1919479,0
1712209440598,1712209434417,1921747,0
1712209440598,1712209434457,1924090,0
1712209440598,1712209434497,1926152,0
1712209440598,1712209434538,1928023,0
1712209440598,1712209434578,1929779,0
1712209440598,1712209434618,1931586,0
1712209440598,1712209434658,1933237,0
1712209440598,1712209434698,1932132,0
1712209440598,1712209434738,1922190,0
1712209440598,1712209434779,1913597,0
1712209440598,1712209434818,1910313,0
1712209440598,1712209434858,1909901,0
1712209440598,1712209434898,1910480,0
1712209440598,1712209434938,1911533,0
1712209440598,1712209434979,1912028,0
1712209440598,1712209435019,1911791,0
1712209440598,1712209435059,1911852,0
1712209440598,1712209435099,1912810,0
1712209440598,1712209435139,1914605,0
1712209440598,1712209435180,1916897,0
1712209440598,1712209435219,1919480,0
1712209440598,1712209435259,1921885,0
1712209440598,1712209435299,1923965,0
1712209440598,1712209435339,1926008,0
1712209440598,1712209435380,1927859,0
1712209440598,1712209435420,1929741,0
1712209440598,1712209435460,1931670,0
1712209440598,1712209435500,1932840,0
1712209440598,1712209435543,1926221,0
1712209440598,1712209435581,1916281,0
1712209440598,1712209435620,1911566,0
1712209440598,1712209435660,1910892,0
1712209440598,1712209435700,1911855,0
1712209440598,1712209435741,1913441,0
1712209440598,1712209435781,1913866,0
1712209440598,1712209435821,1913350,0
1712209440598,1712209435861,1912362,0
1712209440598,1712209435901,1912433,0
1712209440598,1712209435941,1913707,0
1712209440598,1712209435982,1915680,0
1712209440598,1712209436021,1917937,0
1712209440598,1712209436061,1920175,0
1712209440598,1712209436102,1922258,0
1712209440598,1712209436142,1924255,0
1712209440598,1712209436182,1926123,0
1712209440598,1712209436222,1928037,0
1712209440598,1712209436262,1927413,0
1712209440598,1712209436302,1917669,0
1712209440598,1712209436342,1907956,0
1712209440598,1712209436383,1903589,0
1712209440598,1712209436422,1902815,0
1712209440598,1712209436463,1902965,0
1712209440598,1712209436503,1903869,0
1712209440598,1712209436543,1904422,0
1712209440598,1712209436584,1904278,0
1712209440598,1712209436623,1903950,0
1712209440598,1712209436663,1904672,0
1712209440598,1712209436703,1906320,0
1712209440598,1712209436743,1908622,0
1712209440598,1712209436784,1911099,0
1712209440598,1712209436824,1913399,0
1712209440598,1712209436864,1915699,0
1712209440598,1712209436904,1917606,0
1712209440598,1712209436944,1919426,0
1712209440598,1712209436985,1921263,0
1712209440598,1712209437024,1922179,0
1712209440598,1712209437064,1915029,0
1712209440598,1712209437104,1903949,0
1712209440598,1712209437145,1898231,0
1712209440598,1712209437185,1896762,0
1712209440598,1712209437225,1896950,0
1712209440598,1712209437265,1897885,0
1712209440598,1712209437305,1898869,0
1712209440598,1712209437345,1899262,0
1712209440598,1712209437386,1899142,0
1712209440598,1712209437426,1899840,0
1712209440598,1712209437466,1901301,0
1712209440598,1712209437506,1903497,0
1712209440598,1712209437546,1906106,0
1712209440598,1712209437587,1908598,0
1712209440598,1712209437626,1911163,0
1712209440598,1712209437666,1913232,0
1712209440598,1712209437706,1915403,0
1712209440598,1712209437749,1917373,0
1712209440598,1712209437787,1919376,0
1712209440598,1712209437827,1920210,0
1712209440598,1712209437867,1913436,0
1712209440598,1712209437907,1903688,0
1712209440598,1712209437947,1899077,0
1712209440598,1712209437988,1898378,0
1712209440598,1712209438027,1899162,0
1712209440598,1712209438067,1900646,0
1712209440598,1712209438108,1901625,0
1712209440598,1712209438148,1901741,0
1712209440598,1712209438189,1901336,0
1712209440598,1712209438228,1901788,0
1712209440598,1712209438268,1903330,0
1712209440598,1712209438308,1905430,0
1712209440598,1712209438348,1907827,0
1712209440598,1712209438389,1910189,0
1712209440598,1712209438429,1912374,0
1712209440598,1712209438469,1914383,0
1712209440598,1712209438509,1916338,0
1712209440598,1712209438549,1918112,0
1712209440598,1712209438590,1916364,0
1712209440598,1712209438629,1906891,0
1712209440598,1712209438670,1899143,0
1712209440598,1712209438710,1896419,0
1712209440598,1712209438750,1896396,0
1712209440598,1712209438791,1897773,0
1712209440598,1712209438830,1899422,0
1712209440598,1712209438870,1900183,0
1712209440598,1712209438910,1900165,0
1712209440598,1712209438951,1900150,0
1712209440598,1712209438991,1901283,0
1712209440598,1712209439031,1903332,0
1712209440598,1712209439071,1905803,0
1712209440598,1712209439111,1908494,0
1712209440598,1712209439151,1911081,0
1712209440598,1712209439192,1913804,0
1712209440598,1712209439231,1916028,0
1712209440598,1712209439271,1918260,0
1712209440598,1712209439312,1920342,0
1712209440598,1712209439352,1919991,0
1712209440598,1712209439393,1910027,0
1712209440598,1712209439432,1899633,0
1712209440598,1712209439472,1895505,0
1712209440598,1712209439512,1894728,0
1712209440598,1712209439553,1894935,0
1712209440598,1712209439594,1895905,0
1712209440598,1712209439633,1896314,0
1712209440598,1712209439673,1896290,0
1712209440598,1712209439713,1896271,0
1712209440598,1712209439753,1897065,0
1712209440598,1712209439794,1898703,0
1712209440598,1712209439833,1901122,0
1712209440598,1712209439873,1903821,0
1712209440598,1712209439913,1906592,0
1712209440598,1712209439956,1909369,0
1712209440598,1712209439994,1912107,0
1712209440598,1712209440034,1914806,0
1712209440598,1712209440074,1917485,0
1712209440598,1712209440114,1919942,0
1712209440598,1712209440154,1919815,0
1712209440598,1712209440195,1909330,0
1712209440598,1712209440234,1898206,0
1712209440598,1712209440274,1893717,0
1712209440598,1712209440314,1892689,0
1712209440598,1712209440354,1892883,0
1712209440598,1712209440395,1893872,0
1712209440598,1712209440435,1894303,0
1712209440598,1712209440475,1894165,0
1712209440598,1712209440515,1894035,0
1712209452638,1712209440555,1894691,0
1712209452638,1712209440596,1896311,0
1712209452638,1712209440635,1898619,0
1712209452638,1712209440675,1901431,0
1712209452638,1712209440715,1904225,0
1712209452638,1712209440755,1906817,0
1712209452638,1712209440796,1909435,0
1712209452638,1712209440836,1911964,0
1712209452638,1712209440876,1914296,0
1712209452638,1712209440916,1916764,0
1712209452638,1712209440956,1917967,0
1712209452638,1712209440997,1910361,0
1712209452638,1712209441036,1899329,0
1712209452638,1712209441076,1894392,0
1712209452638,1712209441116,1893371,0
1712209452638,1712209441157,1893858,0
1712209452638,1712209441197,1895304,0
1712209452638,1712209441237,1896050,0
1712209452638,1712209441277,1895834,0
1712209452638,1712209441317,1895170,0
1712209452638,1712209441357,1895503,0
1712209452638,1712209441398,1896755,0
1712209452638,1712209441437,1899062,0
1712209452638,1712209441477,1901574,0
1712209452638,1712209441518,1904160,0
1712209452638,1712209441558,1906722,0
1712209452638,1712209441598,1909064,0
1712209452638,1712209441638,1911297,0
1712209452638,1712209441678,1913646,0
1712209452638,1712209441718,1913786,0
1712209452638,1712209441758,1904805,0
1712209452638,1712209441799,1894464,0
1712209452638,1712209441838,1890306,0
1712209452638,1712209441879,1889467,0
1712209452638,1712209441918,1890196,0
1712209452638,1712209441959,1891633,0
1712209452638,1712209442000,1892476,0
1712209452638,1712209442039,1892206,0
1712209452638,1712209442079,1891882,0
1712209452638,1712209442119,1892433,0
1712209452638,1712209442159,1893952,0
1712209452638,1712209442200,1896270,0
1712209452638,1712209442240,1899045,0
1712209452638,1712209442280,1901674,0
1712209452638,1712209442320,1904453,0
1712209452638,1712209442360,1907044,0
1712209452638,1712209442401,1909372,0
1712209452638,1712209442440,1911793,0
1712209452638,1712209442480,1914213,0
1712209452638,1712209442520,1913280,0
1712209452638,1712209442560,1901805,0
1712209452638,1712209442601,1891142,0
1712209452638,1712209442641,1887148,0
1712209452638,1712209442681,1886092,0
1712209452638,1712209442721,1886033,0
1712209452638,1712209442761,1886724,0
1712209452638,1712209442802,1886775,0
1712209452638,1712209442841,1886309,0
1712209452638,1712209442881,1885966,0
1712209452638,1712209442921,1886492,0
1712209452638,1712209442962,1888132,0
1712209452638,1712209443002,1890161,0
1712209452638,1712209443042,1892718,0
1712209452638,1712209443082,1895266,0
1712209452638,1712209443122,1897861,0
1712209452638,1712209443162,1900325,0
1712209452638,1712209443203,1902601,0
1712209452638,1712209443242,1904858,0
1712209452638,1712209443282,1907218,0
1712209452638,1712209443323,1908635,0
1712209452638,1712209443363,1901366,0
1712209452638,1712209443403,1888880,0
1712209452638,1712209443443,1882975,0
1712209452638,1712209443483,1881288,0
1712209452638,1712209443523,1881122,0
1712209452638,1712209443563,1881779,0
1712209452638,1712209443604,1882378,0
1712209452638,1712209443643,1882330,0
1712209452638,1712209443684,1881894,0
1712209452638,1712209443724,1882008,0
1712209452638,1712209443764,1883255,0
1712209452638,1712209443805,1885217,0
1712209452638,1712209443844,1887835,0
1712209452638,1712209443884,1890496,0
1712209452638,1712209443924,1893181,0
1712209452638,1712209443964,1895733,0
1712209452638,1712209444005,1898154,0
1712209452638,1712209444045,1900365,0
1712209452638,1712209444085,1902791,0
1712209452638,1712209444125,1903604,0
1712209452638,1712209444165,1895572,0
1712209452638,1712209444206,1884942,0
1712209452638,1712209444245,1880413,0
1712209452638,1712209444285,1879474,0
1712209452638,1712209444325,1879935,0
1712209452638,1712209444366,1881215,0
1712209452638,1712209444407,1881762,0
1712209452638,1712209444446,1881421,0
1712209452638,1712209444486,1880642,0
1712209452638,1712209444526,1881061,0
1712209452638,1712209444566,1882322,0
1712209452638,1712209444607,1884397,0
1712209452638,1712209444647,1886941,0
1712209452638,1712209444687,1889405,0
1712209452638,1712209444727,1891942,0
1712209452638,1712209444767,1894323,0
1712209452638,1712209444808,1896585,0
1712209452638,1712209444847,1898673,0
1712209452638,1712209444887,1896611,0
1712209452638,1712209444927,1885211,0
1712209452638,1712209444968,1876837,0
1712209452638,1712209445008,1873975,0
1712209452638,1712209445048,1873639,0
1712209452638,1712209445088,1874252,0
1712209452638,1712209445128,1875483,0
1712209452638,1712209445168,1875769,0
1712209452638,1712209445209,1875270,0
1712209452638,1712209445249,1875215,0
1712209452638,1712209445289,1875897,0
1712209452638,1712209445329,1877753,0
1712209452638,1712209445369,1880198,0
1712209452638,1712209445410,1882820,0
1712209452638,1712209445449,1885576,0
1712209452638,1712209445489,1888138,0
1712209452638,1712209445529,1890539,0
1712209452638,1712209445570,1892881,0
1712209452638,1712209445611,1895249,0
1712209452638,1712209445650,1896996,0
1712209452638,1712209445690,1890518,0
1712209452638,1712209445730,1877408,0
1712209452638,1712209445770,1870549,0
1712209452638,1712209445811,1868157,0
1712209452638,1712209445851,1867482,0
1712209452638,1712209445891,1867682,0
1712209452638,1712209445931,1867970,0
1712209452638,1712209445971,1867775,0
1712209452638,1712209446012,1867182,0
1712209452638,1712209446051,1868187,0
1712209452638,1712209446091,1870033,0
1712209452638,1712209446131,1872567,0
1712209452638,1712209446171,1875201,0
1712209452638,1712209446212,1877804,0
1712209452638,1712209446251,1880445,0
1712209452638,1712209446291,1882871,0
1712209452638,1712209446331,1885234,0
1712209452638,1712209446371,1887769,0
1712209452638,1712209446412,1889606,0
1712209452638,1712209446452,1883955,0
1712209452638,1712209446492,1871673,0
1712209452638,1712209446532,1865305,0
1712209452638,1712209446572,1863223,0
1712209452638,1712209446613,1862825,0
1712209452638,1712209446652,1863231,0
1712209452638,1712209446692,1863706,0
1712209452638,1712209446732,1863369,0
1712209452638,1712209446772,1862707,0
1712209452638,1712209446813,1862638,0
1712209452638,1712209446852,1863619,0
1712209452638,1712209446893,1865486,0
1712209452638,1712209446933,1867828,0
1712209452638,1712209446973,1870280,0
1712209452638,1712209447014,1872803,0
1712209452638,1712209447053,1875172,0
1712209452638,1712209447093,1877427,0
1712209452638,1712209447133,1879597,0
1712209452638,1712209447173,1877648,0
1712209452638,1712209447214,1866414,0
1712209452638,1712209447253,1858099,0
1712209452638,1712209447293,1855141,0
1712209452638,1712209447333,1854543,0
1712209452638,1712209447374,1855003,0
1712209452638,1712209447414,1856143,0
1712209452638,1712209447454,1856370,0
1712209452638,1712209447494,1855851,0
1712209452638,1712209447534,1855480,0
1712209452638,1712209447574,1856327,0
1712209452638,1712209447615,1858090,0
1712209452638,1712209447654,1860485,0
1712209452638,1712209447694,1863108,0
1712209452638,1712209447735,1865852,0
1712209452638,1712209447775,1868429,0
1712209452638,1712209447815,1870686,0
1712209452638,1712209447855,1872934,0
1712209452638,1712209447895,1875300,0
1712209452638,1712209447935,1875491,0
1712209452638,1712209447975,1865823,0
1712209452638,1712209448016,1854922,0
1712209452638,1712209448055,1850598,0
1712209452638,1712209448095,1849199,0
1712209452638,1712209448136,1849135,0
1712209452638,1712209448176,1849812,0
1712209452638,1712209448216,1850305,0
1712209452638,1712209448256,1850011,0
1712209452638,1712209448296,1849801,0
1712209452638,1712209448336,1850229,0
1712209452638,1712209448376,1851761,0
1712209452638,1712209448417,1853961,0
1712209452638,1712209448456,1856467,0
1712209452638,1712209448497,1859133,0
1712209452638,1712209448536,1861694,0
1712209452638,1712209448577,1864344,0
1712209452638,1712209448618,1866650,0
1712209452638,1712209448657,1869038,0
1712209452638,1712209448697,1871418,0
1712209452638,1712209448737,1869324,0
1712209452638,1712209448777,1857379,0
1712209452638,1712209448818,1848629,0
1712209452638,1712209448857,1845546,0
1712209452638,1712209448897,1844836,0
1712209452638,1712209448938,1845175,0
1712209452638,1712209448978,1846052,0
1712209452638,1712209449019,1846204,0
1712209452638,1712209449058,1846050,0
1712209452638,1712209449098,1845979,0
1712209452638,1712209449138,1846837,0
1712209452638,1712209449178,1848713,0
1712209452638,1712209449219,1851228,0
1712209452638,1712209449259,1854096,0
1712209452638,1712209449299,1856977,0
1712209452638,1712209449339,1859881,0
1712209452638,1712209449379,1862531,0
1712209452638,1712209449420,1865312,0
1712209452638,1712209449459,1867883,0
1712209452638,1712209449499,1869827,0
1712209452638,1712209449539,1864832,0
1712209452638,1712209449580,1853859,0
1712209452638,1712209449620,1847956,0
1712209452638,1712209449660,1846434,0
1712209452638,1712209449700,1846780,0
1712209452638,1712209449740,1848077,0
1712209452638,1712209449780,1849259,0
1712209452638,1712209449821,1849613,0
1712209452638,1712209449860,1849476,0
1712209452638,1712209449900,1850057,0
1712209452638,1712209449941,1851406,0
1712209452638,1712209449980,1853520,0
1712209452638,1712209450021,1856081,0
1712209452638,1712209450061,1858931,0
1712209452638,1712209450101,1861738,0
1712209452638,1712209450141,1864366,0
1712209452638,1712209450181,1866978,0
1712209452638,1712209450222,1869460,0
1712209452638,1712209450261,1868367,0
1712209452638,1712209450301,1859233,0
1712209452638,1712209450342,1851615,0
1712209452638,1712209450382,1849254,0
1712209452638,1712209450423,1849522,0
1712209452638,1712209450462,1851102,0
1712209452638,1712209450502,1853081,0
1712209452638,1712209450542,1854091,0
1712209452638,1712209450582,1854137,0
1712209452638,1712209450623,1854532,0
1712209452638,1712209450663,1855457,0
1712209452638,1712209450702,1857509,0
1712209452638,1712209450743,1860166,0
1712209452638,1712209450783,1863031,0
1712209452638,1712209450824,1866041,0
1712209452638,1712209450863,1868794,0
1712209452638,1712209450903,1871673,0
1712209452638,1712209450943,1874301,0
1712209452638,1712209450983,1876595,0
1712209452638,1712209451024,1873152,0
1712209452638,1712209451064,1861417,0
1712209452638,1712209451104,1853806,0
1712209452638,1712209451144,1851646,0
1712209452638,1712209451184,1851605,0
1712209452638,1712209451225,1852500,0
1712209452638,1712209451264,1853790,0
1712209452638,1712209451304,1854326,0
1712209452638,1712209451345,1854346,0
1712209452638,1712209451385,1854683,0
1712209452638,1712209451425,1856008,0
1712209452638,1712209451465,1857952,0
1712209452638,1712209451505,1860708,0
1712209452638,1712209451545,1863454,0
1712209452638,1712209451585,1866495,0
1712209452638,1712209451626,1869274,0
1712209452638,1712209451666,1872084,0
1712209452638,1712209451706,1874811,0
1712209452638,1712209451746,1877227,0
1712209452638,1712209451786,1874263,0
1712209452638,1712209451827,1862543,0
1712209452638,1712209451866,1854804,0
1712209452638,1712209451906,1852345,0
1712209452638,1712209451947,1852166,0
1712209452638,1712209451987,1852974,0
1712209452638,1712209452028,1854253,0
1712209452638,1712209452067,1854858,0
1712209452638,1712209452107,1854816,0
1712209452638,1712209452147,1855038,0
1712209452638,1712209452187,1856245,0
1712209452638,1712209452228,1858283,0
1712209452638,1712209452268,1860680,0
1712209452638,1712209452308,1863640,0
1712209452638,1712209452348,1866525,0
1712209452638,1712209452388,1869445,0
1712209452638,1712209452429,1872191,0
1712209452638,1712209452469,1874780,0
1712209452638,1712209452508,1877405,0
1712209452638,1712209452549,1876580,0
1712209464716,1712209452648,1866399,0
1712209464716,1712209452689,1857777,0
1712209464716,1712209452728,1855003,0
1712209464716,1712209452768,1854834,0
1712209464716,1712209452808,1855923,0
1712209464716,1712209452848,1857505,0
1712209464716,1712209452889,1858411,0
1712209464716,1712209452929,1858670,0
1712209464716,1712209452969,1858998,0
1712209464716,1712209453009,1859986,0
1712209464716,1712209453049,1862038,0
1712209464716,1712209453090,1864475,0
1712209464716,1712209453129,1867438,0
1712209464716,1712209453169,1870163,0
1712209464716,1712209453209,1873163,0
1712209464716,1712209453249,1875866,0
1712209464716,1712209453290,1878484,0
1712209464716,1712209453329,1880555,0
1712209464716,1712209453370,1876455,0
1712209464716,1712209453410,1866582,0
1712209464716,1712209453450,1861132,0
1712209464716,1712209453491,1859940,0
1712209464716,1712209453530,1860850,0
1712209464716,1712209453570,1862599,0
1712209464716,1712209453610,1864344,0
1712209464716,1712209453650,1864758,0
1712209464716,1712209453691,1864559,0
1712209464716,1712209453731,1864841,0
1712209464716,1712209453771,1866187,0
1712209464716,1712209453811,1868347,0
1712209464716,1712209453851,1870964,0
1712209464716,1712209453892,1873757,0
1712209464716,1712209453931,1876550,0
1712209464716,1712209453971,1879395,0
1712209464716,1712209454011,1881918,0
1712209464716,1712209454051,1881853,0
1712209464716,1712209454092,1872432,0
1712209464716,1712209454131,1862827,0
1712209464716,1712209454172,1859333,0
1712209464716,1712209454212,1858987,0
1712209464716,1712209454252,1859950,0
1712209464716,1712209454293,1861521,0
1712209464716,1712209454332,1862499,0
1712209464716,1712209454372,1862697,0
1712209464716,1712209454412,1862746,0
1712209464716,1712209454453,1863553,0
1712209464716,1712209454493,1865476,0
1712209464716,1712209454533,1867871,0
1712209464716,1712209454573,1870539,0
1712209464716,1712209454613,1873423,0
1712209464716,1712209454653,1876134,0
1712209464716,1712209454694,1878921,0
1712209464716,1712209454733,1881480,0
1712209464716,1712209454773,1883003,0
1712209464716,1712209454813,1875444,0
1712209464716,1712209454853,1863296,0
1712209464716,1712209454894,1857500,0
1712209464716,1712209454934,1855879,0
1712209464716,1712209454974,1855729,0
1712209464716,1712209455014,1856506,0
1712209464716,1712209455054,1857262,0
1712209464716,1712209455095,1857316,0
1712209464716,1712209455134,1857136,0
1712209464716,1712209455174,1857425,0
1712209464716,1712209455214,1858682,0
1712209464716,1712209455254,1860844,0
1712209464716,1712209455295,1863477,0
1712209464716,1712209455335,1866122,0
1712209464716,1712209455375,1868898,0
1712209464716,1712209455415,1871457,0
1712209464716,1712209455455,1874032,0
1712209464716,1712209455496,1876485,0
1712209464716,1712209455535,1877178,0
1712209464716,1712209455575,1868119,0
1712209464716,1712209455615,1857288,0
1712209464716,1712209455656,1852952,0
1712209464716,1712209455696,1852016,0
1712209464716,1712209455736,1852270,0
1712209464716,1712209455776,1853366,0
1712209464716,1712209455816,1854202,0
1712209464716,1712209455856,1854162,0
1712209464716,1712209455897,1854159,0
1712209464716,1712209455936,1854799,0
1712209464716,1712209455976,1856308,0
1712209464716,1712209456017,1858680,0
1712209464716,1712209456056,1861435,0
1712209464716,1712209456097,1864172,0
1712209464716,1712209456137,1866976,0
1712209464716,1712209456177,1869574,0
1712209464716,1712209456217,1872233,0
1712209464716,1712209456257,1874745,0
1712209464716,1712209456298,1876003,0
1712209464716,1712209456337,1868441,0
1712209464716,1712209456377,1858035,0
1712209464716,1712209456417,1853775,0
1712209464716,1712209456457,1853159,0
1712209464716,1712209456498,1853908,0
1712209464716,1712209456538,1855599,0
1712209464716,1712209456578,1856504,0
1712209464716,1712209456618,1856484,0
1712209464716,1712209456658,1856016,0
1712209464716,1712209456699,1856487,0
1712209464716,1712209456738,1858091,0
1712209464716,1712209456778,1860435,0
1712209464716,1712209456818,1863097,0
1712209464716,1712209456859,1865847,0
1712209464716,1712209456899,1868555,0
1712209464716,1712209456939,1871091,0
1712209464716,1712209456979,1873457,0
1712209464716,1712209457019,1872889,0
1712209464716,1712209457059,1862669,0
1712209464716,1712209457100,1853838,0
1712209464716,1712209457139,1850792,0
1712209464716,1712209457179,1850427,0
1712209464716,1712209457220,1851518,0
1712209464716,1712209457260,1853097,0
1712209464716,1712209457300,1853921,0
1712209464716,1712209457340,1853947,0
1712209464716,1712209457380,1854132,0
1712209464716,1712209457420,1855018,0
1712209464716,1712209457460,1857003,0
1712209464716,1712209457501,1859465,0
1712209464716,1712209457540,1862369,0
1712209464716,1712209457581,1865332,0
1712209464716,1712209457621,1867982,0
1712209464716,1712209457661,1870874,0
1712209464716,1712209457702,1873628,0
1712209464716,1712209457741,1875918,0
1712209464716,1712209457781,1871768,0
1712209464716,1712209457821,1858915,0
1712209464716,1712209457861,1851243,0
1712209464716,1712209457902,1848695,0
1712209464716,1712209457942,1848215,0
1712209464716,1712209457982,1848674,0
1712209464716,1712209458022,1849584,0
1712209464716,1712209458062,1849804,0
1712209464716,1712209458103,1849496,0
1712209464716,1712209458142,1849639,0
1712209464716,1712209458183,1850795,0
1712209464716,1712209458223,1852752,0
1712209464716,1712209458263,1855194,0
1712209464716,1712209458304,1857948,0
1712209464716,1712209458345,1860721,0
1712209464716,1712209458386,1863494,0
1712209464716,1712209458426,1865895,0
1712209464716,1712209458466,1868653,0
1712209464716,1712209458507,1866727,0
1712209464716,1712209458547,1854760,0
1712209464716,1712209458587,1847689,0
1712209464716,1712209458627,1845680,0
1712209464716,1712209458668,1845510,0
1712209464716,1712209458709,1846439,0
1712209464716,1712209458748,1847506,0
1712209464716,1712209458789,1848027,0
1712209464716,1712209458829,1848049,0
1712209464716,1712209458869,1848306,0
1712209464716,1712209458910,1849443,0
1712209464716,1712209458949,1851342,0
1712209464716,1712209458989,1853979,0
1712209464716,1712209459029,1856826,0
1712209464716,1712209459070,1859660,0
1712209464716,1712209459110,1862403,0
1712209464716,1712209459150,1864784,0
1712209464716,1712209459190,1867575,0
1712209464716,1712209459230,1868545,0
1712209464716,1712209459271,1860440,0
1712209464716,1712209459311,1850155,0
1712209464716,1712209459351,1845958,0
1712209464716,1712209459391,1845307,0
1712209464716,1712209459431,1846013,0
1712209464716,1712209459471,1847717,0
1712209464716,1712209459512,1848630,0
1712209464716,1712209459552,1848491,0
1712209464716,1712209459592,1848239,0
1712209464716,1712209459632,1848706,0
1712209464716,1712209459672,1850217,0
1712209464716,1712209459713,1852596,0
1712209464716,1712209459753,1855271,0
1712209464716,1712209459793,1858142,0
1712209464716,1712209459833,1861041,0
1712209464716,1712209459874,1863659,0
1712209464716,1712209459914,1866247,0
1712209464716,1712209459954,1864595,0
1712209464716,1712209459994,1852829,0
1712209464716,1712209460035,1843874,0
1712209464716,1712209460075,1840783,0
1712209464716,1712209460116,1840448,0
1712209464716,1712209460155,1841065,0
1712209464716,1712209460196,1842506,0
1712209464716,1712209460236,1843103,0
1712209464716,1712209460276,1842941,0
1712209464716,1712209460317,1842973,0
1712209464716,1712209460357,1843848,0
1712209464716,1712209460397,1845652,0
1712209464716,1712209460437,1848136,0
1712209464716,1712209460477,1851024,0
1712209464716,1712209460518,1854048,0
1712209464716,1712209460558,1856919,0
1712209464716,1712209460598,1859461,0
1712209464716,1712209460638,1862048,0
1712209464716,1712209460679,1864551,0
1712209464716,1712209460720,1861311,0
1712209464716,1712209460759,1848050,0
1712209464716,1712209460799,1839312,0
1712209464716,1712209460840,1836307,0
1712209464716,1712209460880,1835797,0
1712209464716,1712209460921,1836381,0
1712209464716,1712209460961,1837293,0
1712209464716,1712209461001,1837646,0
1712209464716,1712209461041,1837776,0
1712209464716,1712209461082,1837675,0
1712209464716,1712209461123,1838708,0
1712209464716,1712209461162,1840676,0
1712209464716,1712209461203,1843091,0
1712209464716,1712209461243,1845943,0
1712209464716,1712209461283,1848888,0
1712209464716,1712209461324,1851780,0
1712209464716,1712209461363,1854537,0
1712209464716,1712209461404,1857193,0
1712209464716,1712209461444,1859887,0
1712209464716,1712209461484,1859101,0
1712209464716,1712209461525,1847717,0
1712209464716,1712209461565,1838064,0
1712209464716,1712209461605,1834751,0
1712209464716,1712209461645,1834283,0
1712209464716,1712209461686,1835196,0
1712209464716,1712209461726,1836826,0
1712209464716,1712209461766,1837689,0
1712209464716,1712209461806,1837930,0
1712209464716,1712209461846,1838124,0
1712209464716,1712209461887,1839037,0
1712209464716,1712209461928,1840972,0
1712209464716,1712209461967,1843517,0
1712209464716,1712209462007,1846409,0
1712209464716,1712209462048,1849466,0
1712209464716,1712209462088,1852588,0
1712209464716,1712209462129,1855423,0
1712209464716,1712209462169,1858219,0
1712209464716,1712209462209,1860911,0
1712209464716,1712209462249,1861420,0
1712209464716,1712209462289,1852333,0
1712209464716,1712209462330,1842568,0
1712209464716,1712209462370,1839130,0
1712209464716,1712209462410,1838955,0
1712209464716,1712209462450,1840347,0
1712209464716,1712209462490,1842514,0
1712209464716,1712209462531,1843681,0
1712209464716,1712209462570,1843783,0
1712209464716,1712209462611,1843609,0
1712209464716,1712209462651,1844393,0
1712209464716,1712209462691,1846178,0
1712209464716,1712209462732,1848673,0
1712209464716,1712209462772,1851541,0
1712209464716,1712209462812,1854559,0
1712209464716,1712209462852,1857389,0
1712209464716,1712209462892,1860358,0
1712209464716,1712209462933,1863036,0
1712209464716,1712209462973,1864720,0
1712209464716,1712209463013,1857807,0
1712209464716,1712209463053,1846217,0
1712209464716,1712209463093,1841027,0
1712209464716,1712209463134,1840140,0
1712209464716,1712209463174,1840972,0
1712209464716,1712209463214,1842790,0
1712209464716,1712209463254,1844407,0
1712209464716,1712209463295,1845231,0
1712209464716,1712209463336,1845385,0
1712209464716,1712209463375,1846042,0
1712209464716,1712209463415,1847743,0
1712209464716,1712209463456,1850183,0
1712209464716,1712209463496,1853140,0
1712209464716,1712209463537,1856255,0
1712209464716,1712209463576,1859400,0
1712209464716,1712209463617,1862407,0
1712209464716,1712209463657,1865378,0
1712209464716,1712209463697,1868175,0
1712209464716,1712209463738,1870385,0
1712209464716,1712209463778,1864912,0
1712209464716,1712209463818,1852143,0
1712209464716,1712209463858,1845634,0
1712209464716,1712209463898,1844014,0
1712209464716,1712209463939,1844467,0
1712209464716,1712209463979,1845884,0
1712209464716,1712209464019,1847313,0
1712209464716,1712209464059,1848137,0
1712209464716,1712209464100,1848184,0
1712209464716,1712209464141,1848830,0
1712209464716,1712209464180,1850213,0
1712209464716,1712209464221,1852439,0
1712209464716,1712209464261,1855393,0
1712209464716,1712209464301,1858598,0
1712209464716,1712209464342,1861698,0
1712209464716,1712209464381,1864930,0
1712209464716,1712209464422,1867843,0
1712209464716,1712209464462,1870782,0
1712209464716,1712209464502,1873686,0
1712209464716,1712209464543,1876020,0
1712209464716,1712209464583,1870768,0
1712209464716,1712209464623,1858944,0
1712209464716,1712209464663,1852872,0
1712209476700,1712209464702,1851572,0
1712209476700,1712209464741,1852392,0
1712209476700,1712209464780,1854179,0
1712209476700,1712209464819,1855908,0
1712209476700,1712209464858,1856609,0
1712209476700,1712209464897,1856852,0
1712209476700,1712209464936,1857249,0
1712209476700,1712209464975,1858733,0
1712209476700,1712209465014,1861027,0
1712209476700,1712209465053,1863777,0
1712209476700,1712209465092,1866809,0
1712209476700,1712209465131,1872821,0
1712209476700,1712209465170,1875460,0
1712209476700,1712209465209,1878173,0
1712209476700,1712209465248,1879189,0
1712209476700,1712209465287,1872009,0
1712209476700,1712209465326,1862263,0
1712209476700,1712209465365,1858405,0
1712209476700,1712209465404,1858246,0
1712209476700,1712209465443,1859601,0
1712209476700,1712209465482,1862077,0
1712209476700,1712209465521,1863872,0
1712209476700,1712209465560,1864395,0
1712209476700,1712209465599,1864554,0
1712209476700,1712209465638,1865284,0
1712209476700,1712209465677,1867002,0
1712209476700,1712209465716,1869403,0
1712209476700,1712209465755,1872228,0
1712209476700,1712209465794,1875253,0
1712209476700,1712209465833,1878271,0
1712209476700,1712209465872,1881133,0
1712209476700,1712209465911,1884023,0
1712209476700,1712209465950,1886117,0
1712209476700,1712209465989,1880876,0
1712209476700,1712209466028,1867988,0
1712209476700,1712209466067,1861076,0
1712209476700,1712209466107,1859242,0
1712209476700,1712209466147,1859485,0
1712209476700,1712209466187,1860704,0
1712209476700,1712209466227,1862151,0
1712209476700,1712209466267,1862514,0
1712209476700,1712209466307,1862311,0
1712209476700,1712209466347,1862612,0
1712209476700,1712209466387,1863704,0
1712209476700,1712209466427,1865799,0
1712209476700,1712209466467,1868461,0
1712209476700,1712209466507,1871372,0
1712209476700,1712209466547,1874387,0
1712209476700,1712209466587,1877369,0
1712209476700,1712209466627,1879938,0
1712209476700,1712209466667,1882651,0
1712209476700,1712209466707,1883180,0
1712209476700,1712209466747,1872988,0
1712209476700,1712209466787,1861784,0
1712209476700,1712209466827,1857443,0
1712209476700,1712209466867,1856669,0
1712209476700,1712209466907,1857192,0
1712209476700,1712209466947,1858617,0
1712209476700,1712209466987,1859655,0
1712209476700,1712209467027,1859751,0
1712209476700,1712209467067,1859718,0
1712209476700,1712209467107,1860301,0
1712209476700,1712209467147,1861965,0
1712209476700,1712209467187,1864208,0
1712209476700,1712209467227,1866961,0
1712209476700,1712209467267,1869887,0
1712209476700,1712209467307,1872771,0
1712209476700,1712209467347,1875471,0
1712209476700,1712209467387,1878048,0
1712209476700,1712209467427,1880429,0
1712209476700,1712209467467,1877863,0
1712209476700,1712209467507,1866025,0
1712209476700,1712209467547,1857971,0
1712209476700,1712209467587,1855541,0
1712209476700,1712209467627,1855670,0
1712209476700,1712209467667,1856810,0
1712209476700,1712209467707,1858121,0
1712209476700,1712209467747,1858423,0
1712209476700,1712209467787,1857993,0
1712209476700,1712209467827,1857710,0
1712209476700,1712209467867,1858580,0
1712209476700,1712209467907,1860595,0
1712209476700,1712209467947,1863121,0
1712209476700,1712209467987,1865692,0
1712209476700,1712209468027,1868396,0
1712209476700,1712209468067,1870844,0
1712209476700,1712209468107,1873212,0
1712209476700,1712209468147,1875544,0
1712209476700,1712209468187,1876072,0
1712209476700,1712209468227,1866218,0
1712209476700,1712209468267,1855154,0
1712209476700,1712209468307,1850570,0
1712209476700,1712209468347,1849464,0
1712209476700,1712209468387,1849953,0
1712209476700,1712209468427,1851112,0
1712209476700,1712209468467,1851658,0
1712209476700,1712209468507,1851289,0
1712209476700,1712209468547,1850759,0
1712209476700,1712209468587,1851182,0
1712209476700,1712209468627,1852586,0
1712209476700,1712209468667,1854800,0
1712209476700,1712209468707,1857502,0
1712209476700,1712209468747,1860289,0
1712209476700,1712209468787,1862981,0
1712209476700,1712209468827,1865427,0
1712209476700,1712209468867,1867921,0
1712209476700,1712209468907,1870330,0
1712209476700,1712209468947,1872580,0
1712209476700,1712209468987,1868283,0
1712209476700,1712209469027,1854656,0
1712209476700,1712209469067,1846544,0
1712209476700,1712209469107,1843735,0
1712209476700,1712209469147,1843051,0
1712209476700,1712209469187,1843364,0
1712209476700,1712209469227,1843920,0
1712209476700,1712209469267,1843772,0
1712209476700,1712209469307,1843232,0
1712209476700,1712209469347,1842955,0
1712209476700,1712209469387,1843620,0
1712209476700,1712209469427,1845237,0
1712209476700,1712209469467,1847548,0
1712209476700,1712209469507,1849761,0
1712209476700,1712209469547,1851948,0
1712209476700,1712209469587,1854106,0
1712209476700,1712209469627,1856262,0
1712209476700,1712209469667,1858375,0
1712209476700,1712209469707,1860555,0
1712209476700,1712209469747,1863133,0
1712209476700,1712209469787,1862068,0
1712209476700,1712209469827,1849473,0
1712209476700,1712209469867,1839328,0
1712209476700,1712209469907,1835461,0
1712209476700,1712209469947,1834317,0
1712209476700,1712209469987,1834354,0
1712209476700,1712209470027,1834939,0
1712209476700,1712209470067,1835129,0
1712209476700,1712209470107,1834800,0
1712209476700,1712209470147,1834338,0
1712209476700,1712209470187,1834949,0
1712209476700,1712209470227,1836363,0
1712209476700,1712209470267,1838649,0
1712209476700,1712209470307,1841309,0
1712209476700,1712209470347,1843918,0
1712209476700,1712209470387,1846643,0
1712209476700,1712209470427,1849117,0
1712209476700,1712209470467,1851606,0
1712209476700,1712209470507,1853960,0
1712209476700,1712209470547,1856695,0
1712209476700,1712209470587,1858559,0
1712209476700,1712209470627,1852359,0
1712209476700,1712209470667,1840642,0
1712209476700,1712209470707,1835136,0
1712209476700,1712209470747,1833765,0
1712209476700,1712209470787,1834221,0
1712209476700,1712209470827,1835307,0
1712209476700,1712209470867,1836502,0
1712209476700,1712209470907,1836890,0
1712209476700,1712209470947,1836671,0
1712209476700,1712209470987,1837030,0
1712209476700,1712209471027,1838583,0
1712209476700,1712209471067,1840737,0
1712209476700,1712209471107,1843576,0
1712209476700,1712209471147,1846392,0
1712209476700,1712209471187,1849357,0
1712209476700,1712209471227,1852183,0
1712209476700,1712209471267,1854895,0
1712209476700,1712209471307,1857499,0
1712209476700,1712209471347,1860081,0
1712209476700,1712209471387,1859713,0
1712209476700,1712209471427,1850025,0
1712209476700,1712209471467,1841614,0
1712209476700,1712209471507,1838936,0
1712209476700,1712209471547,1839259,0
1712209476700,1712209471587,1840710,0
1712209476700,1712209471627,1842588,0
1712209476700,1712209471667,1843563,0
1712209476700,1712209471707,1843338,0
1712209476700,1712209471747,1843449,0
1712209476700,1712209471787,1844101,0
1712209476700,1712209471827,1846090,0
1712209476700,1712209471867,1848523,0
1712209476700,1712209471907,1851149,0
1712209476700,1712209471947,1853920,0
1712209476700,1712209471987,1856587,0
1712209476700,1712209472027,1859280,0
1712209476700,1712209472067,1861021,0
1712209476700,1712209472107,1854372,0
1712209476700,1712209472147,1842931,0
1712209476700,1712209472187,1837501,0
1712209476700,1712209472227,1836319,0
1712209476700,1712209472267,1836859,0
1712209476700,1712209472307,1838343,0
1712209476700,1712209472347,1839734,0
1712209476700,1712209472387,1840076,0
1712209476700,1712209472427,1839721,0
1712209476700,1712209472467,1840251,0
1712209476700,1712209472507,1841431,0
1712209476700,1712209472547,1843729,0
1712209476700,1712209472587,1846372,0
1712209476700,1712209472627,1849310,0
1712209476700,1712209472667,1852108,0
1712209476700,1712209472707,1855094,0
1712209476700,1712209472747,1857609,0
1712209476700,1712209472787,1859995,0
1712209476700,1712209472827,1855227,0
1712209476700,1712209472867,1841726,0
1712209476700,1712209472907,1834342,0
1712209476700,1712209472947,1831720,0
1712209476700,1712209472987,1831554,0
1712209476700,1712209473027,1832028,0
1712209476700,1712209473067,1832982,0
1712209476700,1712209473107,1833329,0
1712209476700,1712209473147,1832962,0
1712209476700,1712209473187,1832988,0
1712209476700,1712209473227,1833951,0
1712209476700,1712209473267,1835859,0
1712209476700,1712209473307,1838318,0
1712209476700,1712209473347,1841211,0
1712209476700,1712209473387,1843933,0
1712209476700,1712209473427,1846676,0
1712209476700,1712209473467,1849323,0
1712209476700,1712209473507,1851888,0
1712209476700,1712209473547,1854388,0
1712209476700,1712209473587,1855294,0
1712209476700,1712209473627,1845405,0
1712209476700,1712209473667,1833451,0
1712209476700,1712209473707,1828422,0
1712209476700,1712209473747,1827012,0
1712209476700,1712209473787,1826907,0
1712209476700,1712209473827,1827799,0
1712209476700,1712209473867,1828448,0
1712209476700,1712209473907,1828165,0
1712209476700,1712209473947,1827861,0
1712209476700,1712209473987,1828009,0
1712209476700,1712209474027,1829302,0
1712209476700,1712209474067,1831393,0
1712209476700,1712209474107,1834011,0
1712209476700,1712209474147,1836809,0
1712209476700,1712209474187,1839605,0
1712209476700,1712209474227,1842142,0
1712209476700,1712209474267,1844678,0
1712209476700,1712209474307,1847209,0
1712209476700,1712209474347,1849685,0
1712209476700,1712209474387,1852300,0
1712209476700,1712209474427,1853402,0
1712209476700,1712209474467,1843825,0
1712209476700,1712209474507,1832014,0
1712209476700,1712209474547,1827230,0
1712209476700,1712209474587,1826072,0
1712209476700,1712209474627,1826553,0
1712209476700,1712209474667,1827815,0
1712209476700,1712209474707,1828489,0
1712209476700,1712209474747,1828324,0
1712209476700,1712209474787,1827979,0
1712209476700,1712209474827,1828074,0
1712209476700,1712209474867,1829507,0
1712209476700,1712209474907,1831749,0
1712209476700,1712209474947,1834486,0
1712209476700,1712209474987,1837299,0
1712209476700,1712209475027,1839936,0
1712209476700,1712209475067,1842583,0
1712209476700,1712209475107,1844890,0
1712209476700,1712209475147,1847362,0
1712209476700,1712209475187,1849754,0
1712209476700,1712209475227,1852138,0
1712209476700,1712209475267,1849015,0
1712209476700,1712209475307,1837806,0
1712209476700,1712209475347,1831313,0
1712209476700,1712209475387,1829635,0
1712209476700,1712209475427,1830403,0
1712209476700,1712209475467,1832453,0
1712209476700,1712209475507,1834322,0
1712209476700,1712209475547,1834995,0
1712209476700,1712209475587,1834523,0
1712209476700,1712209475627,1834413,0
1712209476700,1712209475667,1835305,0
1712209476700,1712209475707,1837408,0
1712209476700,1712209475747,1840011,0
1712209476700,1712209475787,1842988,0
1712209476700,1712209475827,1845793,0
1712209476700,1712209475867,1848607,0
1712209476700,1712209475907,1851267,0
1712209476700,1712209475947,1853674,0
1712209476700,1712209475987,1856108,0
1712209476700,1712209476027,1854654,0
1712209476700,1712209476067,1842841,0
1712209476700,1712209476107,1833902,0
1712209476700,1712209476147,1830901,0
1712209476700,1712209476187,1830846,0
1712209476700,1712209476227,1831935,0
1712209476700,1712209476267,1833548,0
1712209476700,1712209476307,1834265,0
1712209476700,1712209476347,1834119,0
1712209476700,1712209476387,1833929,0
1712209476700,1712209476427,1834690,0
1712209476700,1712209476467,1836557,0
1712209476700,1712209476507,1838999,0
1712209476700,1712209476547,1841845,0
1712209476700,1712209476587,1844869,0
1712209476700,1712209476627,1847738,0
1712209488781,1712209476667,1850365,0
1712209488781,1712209476707,1852980,0
1712209488781,1712209476747,1855376,0
1712209488781,1712209476787,1857963,0
1712209488781,1712209476827,1859628,0
1712209488781,1712209476867,1851911,0
1712209488781,1712209476907,1838695,0
1712209488781,1712209476947,1832939,0
1712209488781,1712209476987,1831396,0
1712209488781,1712209477027,1831459,0
1712209488781,1712209477067,1832202,0
1712209488781,1712209477107,1832990,0
1712209488781,1712209477147,1833082,0
1712209488781,1712209477187,1833006,0
1712209488781,1712209477227,1833087,0
1712209488781,1712209477267,1834254,0
1712209488781,1712209477307,1836408,0
1712209488781,1712209477347,1839009,0
1712209488781,1712209477387,1841815,0
1712209488781,1712209477427,1844599,0
1712209488781,1712209477467,1847181,0
1712209488781,1712209477507,1849635,0
1712209488781,1712209477547,1852066,0
1712209488781,1712209477587,1854498,0
1712209488781,1712209477627,1857230,0
1712209488781,1712209477667,1858759,0
1712209488781,1712209477707,1850933,0
1712209488781,1712209477747,1838207,0
1712209488781,1712209477787,1832531,0
1712209488781,1712209477827,1831043,0
1712209488781,1712209477867,1831271,0
1712209488781,1712209477907,1832079,0
1712209488781,1712209477947,1833028,0
1712209488781,1712209477987,1833133,0
1712209488781,1712209478027,1832884,0
1712209488781,1712209478067,1833108,0
1712209488781,1712209478107,1834285,0
1712209488781,1712209478147,1836412,0
1712209488781,1712209478187,1838947,0
1712209488781,1712209478227,1841743,0
1712209488781,1712209478267,1844505,0
1712209488781,1712209478307,1847129,0
1712209488781,1712209478347,1849557,0
1712209488781,1712209478387,1851940,0
1712209488781,1712209478427,1854400,0
1712209488781,1712209478467,1858811,0
1712209488781,1712209478507,1852917,0
1712209488781,1712209478547,1841098,0
1712209488781,1712209478587,1835459,0
1712209488781,1712209478627,1834398,0
1712209488781,1712209478667,1834943,0
1712209488781,1712209478707,1836223,0
1712209488781,1712209478747,1837391,0
1712209488781,1712209478787,1837567,0
1712209488781,1712209478827,1836993,0
1712209488781,1712209478867,1837005,0
1712209488781,1712209478907,1838229,0
1712209488781,1712209478947,1840254,0
1712209488781,1712209478987,1842771,0
1712209488781,1712209479027,1845417,0
1712209488781,1712209479067,1848113,0
1712209488781,1712209479107,1850588,0
1712209488781,1712209479147,1853025,0
1712209488781,1712209479187,1855403,0
1712209488781,1712209479227,1857655,0
1712209488781,1712209479267,1857339,0
1712209488781,1712209479307,1847277,0
1712209488781,1712209479347,1837950,0
1712209488781,1712209479387,1834898,0
1712209488781,1712209479427,1834648,0
1712209488781,1712209479467,1835670,0
1712209488781,1712209479507,1837280,0
1712209488781,1712209479547,1838124,0
1712209488781,1712209479587,1838070,0
1712209488781,1712209479627,1837904,0
1712209488781,1712209479667,1838609,0
1712209488781,1712209479707,1840267,0
1712209488781,1712209479747,1842645,0
1712209488781,1712209479787,1845560,0
1712209488781,1712209479827,1848191,0
1712209488781,1712209479867,1850989,0
1712209488781,1712209479907,1853708,0
1712209488781,1712209479947,1856181,0
1712209488781,1712209479987,1858613,0
1712209488781,1712209480027,1861133,0
1712209488781,1712209480067,1863537,0
1712209488781,1712209480107,1860219,0
1712209488781,1712209480147,1846896,0
1712209488781,1712209480187,1838427,0
1712209488781,1712209480227,1835691,0
1712209488781,1712209480267,1835193,0
1712209488781,1712209480307,1835520,0
1712209488781,1712209480347,1836313,0
1712209488781,1712209480387,1836542,0
1712209488781,1712209480427,1836215,0
1712209488781,1712209480467,1836221,0
1712209488781,1712209480507,1837045,0
1712209488781,1712209480547,1838937,0
1712209488781,1712209480587,1841372,0
1712209488781,1712209480627,1844075,0
1712209488781,1712209480667,1846812,0
1712209488781,1712209480707,1849554,0
1712209488781,1712209480747,1851980,0
1712209488781,1712209480787,1854470,0
1712209488781,1712209480827,1856982,0
1712209488781,1712209480867,1859590,0
1712209488781,1712209480907,1862168,0
1712209488781,1712209480947,1863293,0
1712209488781,1712209480987,1853773,0
1712209488781,1712209481027,1841611,0
1712209488781,1712209481067,1836512,0
1712209488781,1712209481107,1835241,0
1712209488781,1712209481147,1835295,0
1712209488781,1712209481187,1835890,0
1712209488781,1712209481227,1836585,0
1712209488781,1712209481267,1836527,0
1712209488781,1712209481307,1836216,0
1712209488781,1712209481347,1836565,0
1712209488781,1712209481387,1837918,0
1712209488781,1712209481427,1840083,0
1712209488781,1712209481467,1842716,0
1712209488781,1712209481507,1845575,0
1712209488781,1712209481547,1848340,0
1712209488781,1712209481587,1851042,0
1712209488781,1712209481627,1853524,0
1712209488781,1712209481667,1856085,0
1712209488781,1712209481707,1858656,0
1712209488781,1712209481747,1861306,0
1712209488781,1712209481787,1864090,0
1712209488781,1712209481827,1864383,0
1712209488781,1712209481867,1853832,0
1712209488781,1712209481907,1843098,0
1712209488781,1712209481947,1839095,0
1712209488781,1712209481987,1838401,0
1712209488781,1712209482027,1838827,0
1712209488781,1712209482067,1839913,0
1712209488781,1712209482107,1840598,0
1712209488781,1712209482147,1840475,0
1712209488781,1712209482187,1840226,0
1712209488781,1712209482227,1840719,0
1712209488781,1712209482267,1842301,0
1712209488781,1712209482307,1844616,0
1712209488781,1712209482347,1847296,0
1712209488781,1712209482387,1850054,0
1712209488781,1712209482427,1852705,0
1712209488781,1712209482467,1855437,0
1712209488781,1712209482507,1857966,0
1712209488781,1712209482547,1860418,0
1712209488781,1712209482587,1862947,0
1712209488781,1712209482627,1865675,0
1712209488781,1712209482667,1867231,0
1712209488781,1712209482707,1860560,0
1712209488781,1712209482747,1849940,0
1712209488781,1712209482787,1845225,0
1712209488781,1712209482827,1844371,0
1712209488781,1712209482867,1845273,0
1712209488781,1712209482907,1846953,0
1712209488781,1712209482947,1848212,0
1712209488781,1712209482987,1848270,0
1712209488781,1712209483027,1847737,0
1712209488781,1712209483067,1848110,0
1712209488781,1712209483107,1849465,0
1712209488781,1712209483147,1851697,0
1712209488781,1712209483187,1854452,0
1712209488781,1712209483227,1857194,0
1712209488781,1712209483267,1860033,0
1712209488781,1712209483307,1862466,0
1712209488781,1712209483347,1865080,0
1712209488781,1712209483387,1867362,0
1712209488781,1712209483427,1869823,0
1712209488781,1712209483467,1868269,0
1712209488781,1712209483507,1856900,0
1712209488781,1712209483547,1847979,0
1712209488781,1712209483587,1845098,0
1712209488781,1712209483627,1844661,0
1712209488781,1712209483667,1845246,0
1712209488781,1712209483707,1846555,0
1712209488781,1712209483747,1846951,0
1712209488781,1712209483787,1846770,0
1712209488781,1712209483827,1846478,0
1712209488781,1712209483867,1847162,0
1712209488781,1712209483907,1849008,0
1712209488781,1712209483947,1851427,0
1712209488781,1712209483987,1854076,0
1712209488781,1712209484028,1856756,0
1712209488781,1712209484069,1859506,0
1712209488781,1712209484110,1862022,0
1712209488781,1712209484151,1864462,0
1712209488781,1712209484192,1866879,0
1712209488781,1712209484233,1869491,0
1712209488781,1712209484274,1871236,0
1712209488781,1712209484315,1864737,0
1712209488781,1712209484356,1851619,0
1712209488781,1712209484397,1844980,0
1712209488781,1712209484438,1842848,0
1712209488781,1712209484479,1842440,0
1712209488781,1712209484520,1842593,0
1712209488781,1712209484561,1843087,0
1712209488781,1712209484602,1842967,0
1712209488781,1712209484643,1842570,0
1712209488781,1712209484684,1842564,0
1712209488781,1712209484725,1843669,0
1712209488781,1712209484766,1845658,0
1712209488781,1712209484807,1848029,0
1712209488781,1712209484848,1850543,0
1712209488781,1712209484889,1853366,0
1712209488781,1712209484930,1855772,0
1712209488781,1712209484971,1858217,0
1712209488781,1712209485012,1860621,0
1712209488781,1712209485053,1863072,0
1712209488781,1712209485094,1865536,0
1712209488781,1712209485135,1867195,0
1712209488781,1712209485176,1859319,0
1712209488781,1712209485217,1846440,0
1712209488781,1712209485258,1840501,0
1712209488781,1712209485299,1838553,0
1712209488781,1712209485340,1838012,0
1712209488781,1712209485381,1838283,0
1712209488781,1712209485422,1838749,0
1712209488781,1712209485463,1838787,0
1712209488781,1712209485504,1838538,0
1712209488781,1712209485545,1838726,0
1712209488781,1712209485586,1839949,0
1712209488781,1712209485627,1842022,0
1712209488781,1712209485668,1844518,0
1712209488781,1712209485709,1847117,0
1712209488781,1712209485750,1849849,0
1712209488781,1712209485791,1852529,0
1712209488781,1712209485832,1854980,0
1712209488781,1712209485873,1857479,0
1712209488781,1712209485914,1859933,0
1712209488781,1712209485955,1862628,0
1712209488781,1712209485996,1865153,0
1712209488781,1712209486037,1863049,0
1712209488781,1712209486078,1851233,0
1712209488781,1712209486119,1842743,0
1712209488781,1712209486160,1839852,0
1712209488781,1712209486201,1839448,0
1712209488781,1712209486242,1839868,0
1712209488781,1712209486283,1840889,0
1712209488781,1712209486324,1841048,0
1712209488781,1712209486365,1840416,0
1712209488781,1712209486406,1840048,0
1712209488781,1712209486447,1840720,0
1712209488781,1712209486488,1842387,0
1712209488781,1712209486529,1844660,0
1712209488781,1712209486570,1847091,0
1712209488781,1712209486611,1849412,0
1712209488781,1712209486652,1851735,0
1712209488781,1712209486693,1853946,0
1712209488781,1712209486734,1856771,0
1712209488781,1712209486775,1859126,0
1712209488781,1712209486816,1842491,0
1712209488781,1712209486857,1836403,0
1712209488781,1712209486898,1834474,0
1712209488781,1712209486939,1834518,0
1712209488781,1712209486980,1835412,0
1712209488781,1712209487021,1836301,0
1712209488781,1712209487062,1836317,0
1712209488781,1712209487103,1835848,0
1712209488781,1712209487144,1835893,0
1712209488781,1712209487185,1837098,0
1712209488781,1712209487226,1838992,0
1712209488781,1712209487267,1841556,0
1712209488781,1712209487308,1844063,0
1712209488781,1712209487349,1846708,0
1712209488781,1712209487390,1849277,0
1712209488781,1712209487431,1851627,0
1712209488781,1712209487472,1854025,0
1712209488781,1712209487513,1856504,0
1712209488781,1712209487554,1855263,0
1712209488781,1712209487595,1843175,0
1712209488781,1712209487636,1833307,0
1712209488781,1712209487677,1829340,0
1712209488781,1712209487718,1827991,0
1712209488781,1712209487759,1827569,0
1712209488781,1712209487800,1827763,0
1712209488781,1712209487841,1827672,0
1712209488781,1712209487882,1827265,0
1712209488781,1712209487923,1826939,0
1712209488781,1712209487964,1827356,0
1712209488781,1712209488005,1828646,0
1712209488781,1712209488046,1830648,0
1712209488781,1712209488087,1832953,0
1712209488781,1712209488128,1835322,0
1712209488781,1712209488169,1837508,0
1712209488781,1712209488210,1839666,0
1712209488781,1712209488251,1841709,0
1712209488781,1712209488292,1843951,0
1712209488781,1712209488333,1846217,0
1712209488781,1712209488374,1843243,0
1712209488781,1712209488415,1830786,0
1712209488781,1712209488456,1822430,0
1712209488781,1712209488497,1819126,0
1712209488781,1712209488538,1818109,0
1712209488781,1712209488579,1817648,0
1712209488781,1712209488620,1818013,0
1712209488781,1712209488661,1817930,0
1712209488781,1712209488702,1817520,0
1712209488781,1712209488743,1817333,0
1712209500853,1712209488782,1817945,0
1712209500853,1712209488823,1819538,0
1712209500853,1712209488862,1821751,0
1712209500853,1712209488902,1824295,0
1712209500853,1712209488942,1826807,0
1712209500853,1712209488982,1829324,0
1712209500853,1712209489023,1831640,0
1712209500853,1712209489063,1834038,0
1712209500853,1712209489103,1836552,0
1712209500853,1712209489143,1839071,0
1712209500853,1712209489183,1841106,0
1712209500853,1712209489224,1835156,0
1712209500853,1712209489263,1823088,0
1712209500853,1712209489303,1817169,0
1712209500853,1712209489344,1815251,0
1712209500853,1712209489384,1815021,0
1712209500853,1712209489424,1815488,0
1712209500853,1712209489464,1816248,0
1712209500853,1712209489504,1816243,0
1712209500853,1712209489544,1816199,0
1712209500853,1712209489584,1816412,0
1712209500853,1712209489625,1817626,0
1712209500853,1712209489665,1819647,0
1712209500853,1712209489705,1822162,0
1712209500853,1712209489745,1824864,0
1712209500853,1712209489785,1827677,0
1712209500853,1712209489826,1830338,0
1712209500853,1712209489865,1832937,0
1712209500853,1712209489905,1835426,0
1712209500853,1712209489946,1837974,0
1712209500853,1712209489986,1840709,0
1712209500853,1712209490026,1841039,0
1712209500853,1712209490066,1832066,0
1712209500853,1712209490106,1822870,0
1712209500853,1712209490146,1819456,0
1712209500853,1712209490186,1819001,0
1712209500853,1712209490227,1819897,0
1712209500853,1712209490267,1821368,0
1712209500853,1712209490307,1822060,0
1712209500853,1712209490347,1821800,0
1712209500853,1712209490387,1821686,0
1712209500853,1712209490428,1822391,0
1712209500853,1712209490467,1823938,0
1712209500853,1712209490507,1826300,0
1712209500853,1712209490548,1829049,0
1712209500853,1712209490588,1831719,0
1712209500853,1712209490629,1834495,0
1712209500853,1712209490668,1837019,0
1712209500853,1712209490708,1839588,0
1712209500853,1712209490748,1841743,0
1712209500853,1712209490789,1837350,0
1712209500853,1712209490830,1826644,0
1712209500853,1712209490869,1820905,0
1712209500853,1712209490909,1819566,0
1712209500853,1712209490949,1820035,0
1712209500853,1712209490989,1821549,0
1712209500853,1712209491030,1823066,0
1712209500853,1712209491070,1823463,0
1712209500853,1712209491110,1823649,0
1712209500853,1712209491150,1823981,0
1712209500853,1712209491190,1825454,0
1712209500853,1712209491231,1827629,0
1712209500853,1712209491270,1830311,0
1712209500853,1712209491311,1833266,0
1712209500853,1712209491351,1836369,0
1712209500853,1712209491391,1839199,0
1712209500853,1712209491432,1842014,0
1712209500853,1712209491471,1844618,0
1712209500853,1712209491511,1847319,0
1712209500853,1712209491551,1847697,0
1712209500853,1712209491591,1837462,0
1712209500853,1712209491632,1827053,0
1712209500853,1712209491672,1823062,0
1712209500853,1712209491712,1822110,0
1712209500853,1712209491752,1822113,0
1712209500853,1712209491792,1822874,0
1712209500853,1712209491832,1823515,0
1712209500853,1712209491872,1823694,0
1712209500853,1712209491912,1823702,0
1712209500853,1712209491952,1824257,0
1712209500853,1712209491992,1826125,0
1712209500853,1712209492033,1828348,0
1712209500853,1712209492072,1831116,0
1712209500853,1712209492112,1834016,0
1712209500853,1712209492153,1836780,0
1712209500853,1712209492193,1839444,0
1712209500853,1712209492233,1842064,0
1712209500853,1712209492273,1844647,0
1712209500853,1712209492313,1847463,0
1712209500853,1712209492353,1847912,0
1712209500853,1712209492393,1838108,0
1712209500853,1712209492434,1827460,0
1712209500853,1712209492473,1823327,0
1712209500853,1712209492514,1822150,0
1712209500853,1712209492554,1822186,0
1712209500853,1712209492594,1822875,0
1712209500853,1712209492635,1823609,0
1712209500853,1712209492674,1823734,0
1712209500853,1712209492714,1824000,0
1712209500853,1712209492754,1824800,0
1712209500853,1712209492794,1826323,0
1712209500853,1712209492835,1828659,0
1712209500853,1712209492875,1831456,0
1712209500853,1712209492915,1834359,0
1712209500853,1712209492955,1837219,0
1712209500853,1712209492995,1839986,0
1712209500853,1712209493035,1842624,0
1712209500853,1712209493075,1845341,0
1712209500853,1712209493115,1848066,0
1712209500853,1712209493155,1850817,0
1712209500853,1712209493195,1850171,0
1712209500853,1712209493236,1839807,0
1712209500853,1712209493276,1831007,0
1712209500853,1712209493316,1828080,0
1712209500853,1712209493356,1827817,0
1712209500853,1712209493396,1828426,0
1712209500853,1712209493437,1829654,0
1712209500853,1712209493476,1830282,0
1712209500853,1712209493516,1830369,0
1712209500853,1712209493556,1830289,0
1712209500853,1712209493596,1831289,0
1712209500853,1712209493637,1833211,0
1712209500853,1712209493676,1835613,0
1712209500853,1712209493717,1838320,0
1712209500853,1712209493757,1841146,0
1712209500853,1712209493797,1843805,0
1712209500853,1712209493838,1846399,0
1712209500853,1712209493877,1848874,0
1712209500853,1712209493917,1851338,0
1712209500853,1712209493957,1851497,0
1712209500853,1712209493997,1842998,0
1712209500853,1712209494038,1834382,0
1712209500853,1712209494078,1831261,0
1712209500853,1712209494118,1831058,0
1712209500853,1712209494158,1832141,0
1712209500853,1712209494198,1833905,0
1712209500853,1712209494238,1834973,0
1712209500853,1712209494278,1835020,0
1712209500853,1712209494318,1835125,0
1712209500853,1712209494358,1835964,0
1712209500853,1712209494398,1837822,0
1712209500853,1712209494439,1840318,0
1712209500853,1712209494478,1843123,0
1712209500853,1712209494519,1846080,0
1712209500853,1712209494559,1848869,0
1712209500853,1712209494599,1851618,0
1712209500853,1712209494640,1854412,0
1712209500853,1712209494679,1857148,0
1712209500853,1712209494719,1855496,0
1712209500853,1712209494759,1843791,0
1712209500853,1712209494800,1835073,0
1712209500853,1712209494840,1831692,0
1712209500853,1712209494880,1830819,0
1712209500853,1712209494920,1831023,0
1712209500853,1712209494960,1831795,0
1712209500853,1712209495000,1832182,0
1712209500853,1712209495041,1832150,0
1712209500853,1712209495080,1832155,0
1712209500853,1712209495120,1833090,0
1712209500853,1712209495160,1834884,0
1712209500853,1712209495201,1837354,0
1712209500853,1712209495241,1840127,0
1712209500853,1712209495281,1842946,0
1712209500853,1712209495321,1845671,0
1712209500853,1712209495361,1848409,0
1712209500853,1712209495401,1850862,0
1712209500853,1712209495442,1853492,0
1712209500853,1712209495481,1855738,0
1712209500853,1712209495522,1851001,0
1712209500853,1712209495562,1838373,0
1712209500853,1712209495602,1831341,0
1712209500853,1712209495643,1829022,0
1712209500853,1712209495682,1828474,0
1712209500853,1712209495722,1828682,0
1712209500853,1712209495762,1829224,0
1712209500853,1712209495805,1829480,0
1712209500853,1712209495843,1829403,0
1712209500853,1712209495883,1829702,0
1712209500853,1712209495923,1830835,0
1712209500853,1712209495963,1832898,0
1712209500853,1712209496003,1835278,0
1712209500853,1712209496044,1838100,0
1712209500853,1712209496083,1840820,0
1712209500853,1712209496124,1843641,0
1712209500853,1712209496164,1846426,0
1712209500853,1712209496204,1849126,0
1712209500853,1712209496245,1851725,0
1712209500853,1712209496284,1854554,0
1712209500853,1712209496324,1854975,0
1712209500853,1712209496364,1845385,0
1712209500853,1712209496404,1835245,0
1712209500853,1712209496445,1831214,0
1712209500853,1712209496485,1830262,0
1712209500853,1712209496525,1830603,0
1712209500853,1712209496565,1831725,0
1712209500853,1712209496606,1832365,0
1712209500853,1712209496646,1832417,0
1712209500853,1712209496686,1832315,0
1712209500853,1712209496726,1833160,0
1712209500853,1712209496766,1834753,0
1712209500853,1712209496807,1837254,0
1712209500853,1712209496848,1839927,0
1712209500853,1712209496887,1842703,0
1712209500853,1712209496927,1845508,0
1712209500853,1712209496968,1848136,0
1712209500853,1712209497008,1850645,0
1712209500853,1712209497049,1853235,0
1712209500853,1712209497089,1855861,0
1712209500853,1712209497129,1857203,0
1712209500853,1712209497169,1850474,0
1712209500853,1712209497210,1836735,0
1712209500853,1712209497250,1836135,0
1712209500853,1712209497290,1837121,0
1712209500853,1712209497330,1838932,0
1712209500853,1712209497370,1840237,0
1712209500853,1712209497410,1840556,0
1712209500853,1712209497451,1840482,0
1712209500853,1712209497491,1841260,0
1712209500853,1712209497531,1842859,0
1712209500853,1712209497571,1845303,0
1712209500853,1712209497611,1848151,0
1712209500853,1712209497652,1851151,0
1712209500853,1712209497692,1854042,0
1712209500853,1712209497732,1856781,0
1712209500853,1712209497772,1859483,0
1712209500853,1712209497812,1862157,0
1712209500853,1712209497853,1864155,0
1712209500853,1712209497892,1858453,0
1712209500853,1712209497933,1846833,0
1712209500853,1712209497973,1840671,0
1712209500853,1712209498016,1839164,0
1712209500853,1712209498054,1839226,0
1712209500853,1712209498093,1840358,0
1712209500853,1712209498133,1841511,0
1712209500853,1712209498174,1841953,0
1712209500853,1712209498214,1842011,0
1712209500853,1712209498255,1842626,0
1712209500853,1712209498294,1843958,0
1712209500853,1712209498334,1846368,0
1712209500853,1712209498375,1849016,0
1712209500853,1712209498415,1851998,0
1712209500853,1712209498456,1855021,0
1712209500853,1712209498495,1857853,0
1712209500853,1712209498536,1860689,0
1712209500853,1712209498576,1863565,0
1712209500853,1712209498616,1866263,0
1712209500853,1712209498657,1868795,0
1712209500853,1712209498696,1866285,0
1712209500853,1712209498737,1854279,0
1712209500853,1712209498777,1845893,0
1712209500853,1712209498817,1842968,0
1712209500853,1712209498858,1842545,0
1712209500853,1712209498898,1843072,0
1712209500853,1712209498938,1844138,0
1712209500853,1712209498978,1844858,0
1712209500853,1712209499019,1845128,0
1712209500853,1712209499060,1845533,0
1712209500853,1712209499099,1846821,0
1712209500853,1712209499140,1848801,0
1712209500853,1712209499180,1851419,0
1712209500853,1712209499220,1854462,0
1712209500853,1712209499261,1857346,0
1712209500853,1712209499300,1860323,0
1712209500853,1712209499341,1863200,0
1712209500853,1712209499381,1866115,0
1712209500853,1712209499421,1868833,0
1712209500853,1712209499462,1871675,0
1712209500853,1712209499502,1872404,0
1712209500853,1712209499542,1863952,0
1712209500853,1712209499582,1853462,0
1712209500853,1712209499623,1849119,0
1712209500853,1712209499663,1848347,0
1712209500853,1712209499703,1848850,0
1712209500853,1712209499743,1850094,0
1712209500853,1712209499783,1851299,0
1712209500853,1712209499824,1851839,0
1712209500853,1712209499865,1852266,0
1712209500853,1712209499904,1853257,0
1712209500853,1712209499944,1855050,0
1712209500853,1712209499985,1857601,0
1712209500853,1712209500025,1860505,0
1712209500853,1712209500066,1863443,0
1712209500853,1712209500106,1866659,0
1712209500853,1712209500146,1869534,0
1712209500853,1712209500186,1872496,0
1712209500853,1712209500229,1875223,0
1712209500853,1712209500267,1877994,0
1712209500853,1712209500307,1878125,0
1712209500853,1712209500347,1869852,0
1712209500853,1712209500387,1860844,0
1712209500853,1712209500427,1857544,0
1712209500853,1712209500469,1857194,0
1712209500853,1712209500508,1858475,0
1712209500853,1712209500548,1860207,0
1712209500853,1712209500589,1861468,0
1712209500853,1712209500629,1861751,0
1712209500853,1712209500670,1861854,0
1712209500853,1712209500709,1862655,0
1712209500853,1712209500749,1864407,0
1712209500853,1712209500789,1866714,0
1712209512921,1712209500822,1869551,0
1712209512921,1712209500862,1872389,0
1712209512921,1712209500902,1875228,0
1712209512921,1712209500942,1877994,0
1712209512921,1712209500982,1880616,0
1712209512921,1712209501022,1880884,0
1712209512921,1712209501063,1872543,0
1712209512921,1712209501102,1863002,0
1712209512921,1712209501142,1859324,0
1712209512921,1712209501183,1858662,0
1712209512921,1712209501222,1859584,0
1712209512921,1712209501263,1861163,0
1712209512921,1712209501303,1862353,0
1712209512921,1712209501343,1862630,0
1712209512921,1712209501383,1862685,0
1712209512921,1712209501423,1863498,0
1712209512921,1712209501464,1865303,0
1712209512921,1712209501504,1867559,0
1712209512921,1712209501544,1870314,0
1712209512921,1712209501585,1872990,0
1712209512921,1712209501625,1876004,0
1712209512921,1712209501666,1878664,0
1712209512921,1712209501706,1881395,0
1712209512921,1712209501746,1883431,0
1712209512921,1712209501786,1878068,0
1712209512921,1712209501826,1865280,0
1712209512921,1712209501867,1858085,0
1712209512921,1712209501907,1855587,0
1712209512921,1712209501947,1854950,0
1712209512921,1712209501987,1855275,0
1712209512921,1712209502028,1856104,0
1712209512921,1712209502069,1856272,0
1712209512921,1712209502108,1856146,0
1712209512921,1712209502148,1856317,0
1712209512921,1712209502189,1857206,0
1712209512921,1712209502229,1859141,0
1712209512921,1712209502270,1861471,0
1712209512921,1712209502309,1864131,0
1712209512921,1712209502350,1866868,0
1712209512921,1712209502390,1869460,0
1712209512921,1712209502430,1872020,0
1712209512921,1712209502471,1874532,0
1712209512921,1712209502511,1876434,0
1712209512921,1712209502551,1870091,0
1712209512921,1712209502591,1857318,0
1712209512921,1712209502631,1850379,0
1712209512921,1712209502672,1847911,0
1712209512921,1712209502712,1847024,0
1712209512921,1712209502752,1847151,0
1712209512921,1712209502792,1847629,0
1712209512921,1712209502833,1847616,0
1712209512921,1712209502874,1847310,0
1712209512921,1712209502913,1847349,0
1712209512921,1712209502953,1848396,0
1712209512921,1712209502994,1850296,0
1712209512921,1712209503034,1852682,0
1712209512921,1712209503075,1855354,0
1712209512921,1712209503115,1858077,0
1712209512921,1712209503155,1860610,0
1712209512921,1712209503195,1863196,0
1712209512921,1712209503235,1865609,0
1712209512921,1712209503276,1868205,0
1712209512921,1712209503316,1869888,0
1712209512921,1712209503356,1862944,0
1712209512921,1712209503396,1850932,0
1712209512921,1712209503436,1844986,0
1712209512921,1712209503478,1842984,0
1712209512921,1712209503517,1842734,0
1712209512921,1712209503557,1843313,0
1712209512921,1712209503598,1843765,0
1712209512921,1712209503638,1843692,0
1712209512921,1712209503679,1843152,0
1712209512921,1712209503718,1843248,0
1712209512921,1712209503758,1844313,0
1712209512921,1712209503799,1846309,0
1712209512921,1712209503839,1851151,0
1712209512921,1712209503880,1853729,0
1712209512921,1712209503920,1856015,0
1712209512921,1712209503960,1858488,0
1712209512921,1712209504000,1860836,0
1712209512921,1712209504040,1859597,0
1712209512921,1712209504083,1849645,0
1712209512921,1712209504122,1841418,0
1712209512921,1712209504162,1838386,0
1712209512921,1712209504203,1837904,0
1712209512921,1712209504243,1838742,0
1712209512921,1712209504284,1840240,0
1712209512921,1712209504323,1840516,0
1712209512921,1712209504363,1840361,0
1712209512921,1712209504403,1840118,0
1712209512921,1712209504444,1840873,0
1712209512921,1712209504484,1842551,0
1712209512921,1712209504524,1844842,0
1712209512921,1712209504564,1847423,0
1712209512921,1712209504604,1850065,0
1712209512921,1712209504645,1852619,0
1712209512921,1712209504686,1855159,0
1712209512921,1712209504725,1857682,0
1712209512921,1712209504765,1857921,0
1712209512921,1712209504806,1847809,0
1712209512921,1712209504846,1837088,0
1712209512921,1712209504887,1832540,0
1712209512921,1712209504926,1830883,0
1712209512921,1712209504967,1830627,0
1712209512921,1712209505007,1831127,0
1712209512921,1712209505047,1831439,0
1712209512921,1712209505088,1831264,0
1712209512921,1712209505128,1830980,0
1712209512921,1712209505168,1831427,0
1712209512921,1712209505208,1832831,0
1712209512921,1712209505248,1835122,0
1712209512921,1712209505289,1837426,0
1712209512921,1712209505329,1840172,0
1712209512921,1712209505369,1842784,0
1712209512921,1712209505409,1845265,0
1712209512921,1712209505450,1847732,0
1712209512921,1712209505490,1850214,0
1712209512921,1712209505530,1852577,0
1712209512921,1712209505570,1848865,0
1712209512921,1712209505611,1836229,0
1712209512921,1712209505651,1827972,0
1712209512921,1712209505692,1824645,0
1712209512921,1712209505731,1823399,0
1712209512921,1712209505772,1822977,0
1712209512921,1712209505812,1823276,0
1712209512921,1712209505852,1823427,0
1712209512921,1712209505893,1823100,0
1712209512921,1712209505932,1823136,0
1712209512921,1712209505973,1824009,0
1712209512921,1712209506013,1825686,0
1712209512921,1712209506053,1827967,0
1712209512921,1712209506095,1830589,0
1712209512921,1712209506135,1833235,0
1712209512921,1712209506175,1835893,0
1712209512921,1712209506215,1838392,0
1712209512921,1712209506255,1840906,0
1712209512921,1712209506296,1843523,0
1712209512921,1712209506336,1846235,0
1712209512921,1712209506376,1847976,0
1712209512921,1712209506416,1840377,0
1712209512921,1712209506456,1828525,0
1712209512921,1712209506497,1822818,0
1712209512921,1712209506537,1820949,0
1712209512921,1712209506577,1820316,0
1712209512921,1712209506618,1820876,0
1712209512921,1712209506658,1821494,0
1712209512921,1712209506699,1821727,0
1712209512921,1712209506738,1821650,0
1712209512921,1712209506778,1822237,0
1712209512921,1712209506819,1823618,0
1712209512921,1712209506859,1825845,0
1712209512921,1712209506900,1828439,0
1712209512921,1712209506939,1831112,0
1712209512921,1712209506980,1833929,0
1712209512921,1712209507020,1836712,0
1712209512921,1712209507060,1839301,0
1712209512921,1712209507101,1842015,0
