dataReceived,timestamp,ppg,status
1710985801940,1710985789878,2097152,0
1710985801940,1710985789921,2427762,0
1710985801940,1710985789959,2427618,0
1710985801940,1710985789999,2427650,0
1710985801940,1710985790039,2427671,0
1710985801940,1710985790079,2427845,0
1710985801940,1710985790119,2428044,0
1710985801940,1710985790160,2428284,0
1710985801940,1710985790199,2428497,0
1710985801940,1710985790239,2428708,0
1710985801940,1710985790279,2130671,0
1710985801940,1710985790320,2130319,0
1710985801940,1710985790361,2129235,0
1710985801940,1710985790400,2128108,0
1710985801940,1710985790440,2127434,0
1710985801940,1710985790480,2092406,0
1710985801940,1710985790520,2092180,0
1710985801940,1710985790561,2092467,0
1710985801940,1710985790601,2092690,0
1710985801940,1710985790641,2092620,0
1710985801940,1710985790681,2085954,0
1710985801940,1710985790721,2086549,0
1710985801940,1710985790762,2088326,0
1710985801940,1710985790801,2090994,0
1710985801940,1710985790841,2093350,0
1710985801940,1710985790881,2099156,0
1710985801940,1710985790922,2108522,0
1710985801940,1710985790963,2118688,0
1710985801940,1710985791002,2127317,0
1710985801940,1710985791042,2134465,0
1710985801940,1710985791082,2139217,0
1710985801940,1710985791122,2142119,0
1710985801940,1710985791163,2144897,0
1710985801940,1710985791203,2147560,0
1710985801940,1710985791243,2151337,0
1710985801940,1710985791283,2155061,0
1710985801940,1710985791323,2159262,0
1710985801940,1710985791364,2162817,0
1710985801940,1710985791403,2165823,0
1710985801940,1710985791443,2169010,0
1710985801940,1710985791483,2171394,0
1710985801940,1710985791523,2174198,0
1710985801940,1710985791564,2176941,0
1710985801940,1710985791603,2179687,0
1710985801940,1710985791643,2182261,0
1710985801940,1710985791684,2185032,0
1710985801940,1710985791724,2187652,0
1710985801940,1710985791765,2190036,0
1710985801940,1710985791804,2192362,0
1710985801940,1710985791844,2192557,0
1710985801940,1710985791884,2192657,0
1710985801940,1710985791924,2192522,0
1710985801940,1710985791965,2191876,0
1710985801940,1710985792004,2192589,0
1710985801940,1710985792045,2195221,0
1710985801940,1710985792085,2201137,0
1710985801940,1710985792127,2203536,0
1710985801940,1710985792166,2204619,0
1710985801940,1710985792205,2205567,0
1710985801940,1710985792245,2207660,0
1710985801940,1710985792285,2208961,0
1710985801940,1710985792325,2212478,0
1710985801940,1710985792366,2213982,0
1710985801940,1710985792405,2216915,0
1710985801940,1710985792445,2219421,0
1710985801940,1710985792485,2222462,0
1710985801940,1710985792526,2220203,0
1710985801940,1710985792567,2208339,0
1710985801940,1710985792606,2211328,0
1710985801940,1710985792646,2211272,0
1710985801940,1710985792686,2212951,0
1710985801940,1710985792726,2213025,0
1710985801940,1710985792767,2213727,0
1710985801940,1710985792806,2213755,0
1710985801940,1710985792846,2214841,0
1710985801940,1710985792887,2219708,0
1710985801940,1710985792927,2225317,0
1710985801940,1710985792968,2230261,0
1710985801940,1710985793007,2236859,0
1710985801940,1710985793047,2238892,0
1710985801940,1710985793087,2241235,0
1710985801940,1710985793127,2244260,0
1710985801940,1710985793168,2246408,0
1710985801940,1710985793207,2248466,0
1710985801940,1710985793248,2248606,0
1710985801940,1710985793288,2250233,0
1710985801940,1710985793328,2250190,0
1710985801940,1710985793369,2253532,0
1710985801940,1710985793408,2257538,0
1710985801940,1710985793448,2264133,0
1710985801940,1710985793488,2270340,0
1710985801940,1710985793528,2276485,0
1710985801940,1710985793569,2282708,0
1710985801940,1710985793608,2289281,0
1710985801940,1710985793648,2295688,0
1710985801940,1710985793689,2301216,0
1710985801940,1710985793729,2308544,0
1710985801940,1710985793769,2312755,0
1710985801940,1710985793809,2318758,0
1710985801940,1710985793849,2320489,0
1710985801940,1710985793889,2318310,0
1710985801940,1710985793929,2317550,0
1710985801940,1710985793970,2313205,0
1710985801940,1710985794009,2302273,0
1710985801940,1710985794049,2289939,0
1710985801940,1710985794090,2283841,0
1710985801940,1710985794130,2286854,0
1710985801940,1710985794171,2294326,0
1710985801940,1710985794210,2303769,0
1710985801940,1710985794250,2313725,0
1710985801940,1710985794290,2322953,0
1710985801940,1710985794333,2332458,0
1710985801940,1710985794371,2338911,0
1710985801940,1710985794410,2347846,0
1710985801940,1710985794451,2357048,0
1710985801940,1710985794491,2364465,0
1710985801940,1710985794531,2374668,0
1710985801940,1710985794572,2380100,0
1710985801940,1710985794611,2381508,0
1710985801940,1710985794651,2381805,0
1710985801940,1710985794692,2381403,0
1710985801940,1710985794731,2381279,0
1710985801940,1710985794772,2381393,0
1710985801940,1710985794812,2379665,0
1710985801940,1710985794852,2378216,0
1710985801940,1710985794892,2374469,0
1710985801940,1710985794932,2364200,0
1710985801940,1710985794973,2347763,0
1710985801940,1710985795012,2344188,0
1710985801940,1710985795053,2342112,0
1710985801940,1710985795093,2342595,0
1710985801940,1710985795133,2345632,0
1710985801940,1710985795174,2348150,0
1710985801940,1710985795213,2348890,0
1710985801940,1710985795253,2349199,0
1710985801940,1710985795293,2347324,0
1710985801940,1710985795333,2345646,0
1710985801940,1710985795374,2344011,0
1710985801940,1710985795414,2342760,0
1710985801940,1710985795454,2338342,0
1710985801940,1710985795494,2337020,0
1710985801940,1710985795534,2340431,0
1710985801940,1710985795575,2344846,0
1710985801940,1710985795614,2341563,0
1710985801940,1710985795655,2343440,0
1710985801940,1710985795695,2343995,0
1710985801940,1710985795735,2343902,0
1710985801940,1710985795776,2343611,0
1710985801940,1710985795815,2343484,0
1710985801940,1710985795855,2345162,0
1710985801940,1710985795895,2346448,0
1710985801940,1710985795935,2344059,0
1710985801940,1710985795976,2340459,0
1710985801940,1710985796016,2341281,0
1710985801940,1710985796056,2344305,0
1710985801940,1710985796096,2348627,0
1710985801940,1710985796136,2354266,0
1710985801940,1710985796177,2357501,0
1710985801940,1710985796216,2356732,0
1710985801940,1710985796256,2354881,0
1710985801940,1710985796296,2354688,0
1710985801940,1710985796337,2359345,0
1710985801940,1710985796378,2359462,0
1710985801940,1710985796417,2358239,0
1710985801940,1710985796457,2357888,0
1710985801940,1710985796497,2360185,0
1710985801940,1710985796537,2367774,0
1710985801940,1710985796578,2367044,0
1710985801940,1710985796618,2368496,0
1710985801940,1710985796658,2369350,0
1710985801940,1710985796698,2369926,0
1710985801940,1710985796738,2372223,0
1710985801940,1710985796779,2373884,0
1710985801940,1710985796818,2376761,0
1710985801940,1710985796859,2380611,0
1710985801940,1710985796899,2384256,0
1710985801940,1710985796939,2389609,0
1710985801940,1710985796980,2393719,0
1710985801940,1710985797019,2398558,0
1710985801940,1710985797059,2401872,0
1710985801940,1710985797099,2405374,0
1710985801940,1710985797139,2403628,0
1710985801940,1710985797180,2405859,0
1710985801940,1710985797220,2407089,0
1710985801940,1710985797260,2408415,0
1710985801940,1710985797300,2409215,0
1710985801940,1710985797340,2409370,0
1710985801940,1710985797381,2410150,0
1710985801940,1710985797420,2410558,0
1710985801940,1710985797461,2409767,0
1710985801940,1710985797501,2409172,0
1710985801940,1710985797541,2406235,0
1710985801940,1710985797582,2402214,0
1710985801940,1710985797621,2402194,0
1710985801940,1710985797661,2400160,0
1710985801940,1710985797701,2394038,0
1710985801940,1710985797741,2391258,0
1710985801940,1710985797782,2387117,0
1710985801940,1710985797821,2383556,0
1710985801940,1710985797861,2381499,0
1710985801940,1710985797901,2385274,0
1710985801940,1710985797942,2392362,0
1710985801940,1710985797982,2401215,0
1710985801940,1710985798022,2403331,0
1710985801940,1710985798062,2406831,0
1710985801940,1710985798102,2410660,0
1710985801940,1710985798142,2416596,0
1710985801940,1710985798183,2422872,0
1710985801940,1710985798222,2425605,0
1710985801940,1710985798262,2425779,0
1710985801940,1710985798302,2424866,0
1710985801940,1710985798342,2423297,0
1710985801940,1710985798383,2421833,0
1710985801940,1710985798423,2417753,0
1710985801940,1710985798463,2414958,0
1710985801940,1710985798503,2413161,0
1710985801940,1710985798543,2411040,0
1710985801940,1710985798584,2410382,0
1710985801940,1710985798623,2408005,0
1710985801940,1710985798663,2407391,0
1710985801940,1710985798703,2408764,0
1710985801940,1710985798743,2409879,0
1710985801940,1710985798784,2402086,0
1710985801940,1710985798824,2391257,0
1710985801940,1710985798864,2377793,0
1710985801940,1710985798904,2372261,0
1710985801940,1710985798944,2358703,0
1710985801940,1710985798985,2338996,0
1710985801940,1710985799024,2323340,0
1710985801940,1710985799064,2320140,0
1710985801940,1710985799104,2318804,0
1710985801940,1710985799144,2312490,0
1710985801940,1710985799185,2305842,0
1710985801940,1710985799224,2300211,0
1710985801940,1710985799265,2297256,0
1710985801940,1710985799305,2296280,0
1710985801940,1710985799345,2296932,0
1710985801940,1710985799386,2298918,0
1710985801940,1710985799425,2299380,0
1710985801940,1710985799465,2298985,0
1710985801940,1710985799505,2296818,0
1710985801940,1710985799545,2294470,0
1710985801940,1710985799586,2293231,0
1710985801940,1710985799626,2292644,0
1710985801940,1710985799666,2292472,0
1710985801940,1710985799706,2292198,0
1710985801940,1710985799746,2291811,0
1710985801940,1710985799787,2290376,0
1710985801940,1710985799826,2288754,0
1710985801940,1710985799866,2287270,0
1710985801940,1710985799906,2286282,0
1710985801940,1710985799946,2283978,0
1710985801940,1710985799987,2281279,0
1710985801940,1710985800027,2278731,0
1710985801940,1710985800067,2274423,0
1710985801940,1710985800107,2268690,0
1710985801940,1710985800147,2262851,0
1710985801940,1710985800188,2255647,0
1710985801940,1710985800227,2247885,0
1710985801940,1710985800267,2240065,0
1710985801940,1710985800307,2231646,0
1710985801940,1710985800348,2223688,0
1710985801940,1710985800388,2217017,0
1710985801940,1710985800428,2214199,0
1710985801940,1710985800468,2215505,0
1710985801940,1710985800508,2220955,0
1710985801940,1710985800548,2224850,0
1710985801940,1710985800589,2226309,0
1710985801940,1710985800628,2229830,0
1710985801940,1710985800669,2236261,0
1710985801940,1710985800709,2244078,0
1710985801940,1710985800749,2255644,0
1710985801940,1710985800790,2254854,0
1710985801940,1710985800829,2254346,0
1710985801940,1710985800869,2257050,0
1710985801940,1710985800909,2263397,0
1710985801940,1710985800950,2270146,0
1710985801940,1710985800990,2274081,0
1710985801940,1710985801030,2275942,0
1710985801940,1710985801070,2277746,0
1710985801940,1710985801110,2279629,0
1710985801940,1710985801150,2281453,0
1710985801940,1710985801191,2283405,0
1710985801940,1710985801230,2285337,0
1710985801940,1710985801270,2287574,0
1710985801940,1710985801311,2289848,0
1710985801940,1710985801351,2292044,0
1710985801940,1710985801391,2294172,0
1710985801940,1710985801431,2296046,0
1710985801940,1710985801471,2297481,0
1710985801940,1710985801511,2298650,0
1710985801940,1710985801552,2298894,0
1710985801940,1710985801592,2298787,0
1710985801940,1710985801632,2298706,0
1710985801940,1710985801672,2298897,0
1710985801940,1710985801712,2299207,0
1710985801940,1710985801752,2300336,0
1710985801940,1710985801793,2302292,0
1710985801940,1710985801832,2305225,0
1710985801940,1710985801872,2308538,0
1710985814019,1710985801966,2311577,0
1710985814019,1710985802006,2315313,0
1710985814019,1710985802046,2318865,0
1710985814019,1710985802086,2321968,0
1710985814019,1710985802126,2324136,0
1710985814019,1710985802166,2325782,0
1710985814019,1710985802206,2327237,0
1710985814019,1710985802247,2328585,0
1710985814019,1710985802287,2330442,0
1710985814019,1710985802327,2331295,0
1710985814019,1710985802367,2332214,0
1710985814019,1710985802407,2333143,0
1710985814019,1710985802448,2333864,0
1710985814019,1710985802487,2334843,0
1710985814019,1710985802527,2335290,0
1710985814019,1710985802568,2335406,0
1710985814019,1710985802607,2335808,0
1710985814019,1710985802649,2336239,0
1710985814019,1710985802688,2336795,0
1710985814019,1710985802728,2337573,0
1710985814019,1710985802768,2338277,0
1710985814019,1710985802808,2338849,0
1710985814019,1710985802849,2339687,0
1710985814019,1710985802888,2340318,0
1710985814019,1710985802929,2341163,0
1710985814019,1710985802969,2341831,0
1710985814019,1710985803009,2342575,0
1710985814019,1710985803050,2343321,0
1710985814019,1710985803089,2344009,0
1710985814019,1710985803129,2344697,0
1710985814019,1710985803170,2345233,0
1710985814019,1710985803210,2346100,0
1710985814019,1710985803251,2346785,0
1710985814019,1710985803290,2347585,0
1710985814019,1710985803330,2348208,0
1710985814019,1710985803370,2348825,0
1710985814019,1710985803411,2349341,0
1710985814019,1710985803452,2349704,0
1710985814019,1710985803491,2349803,0
1710985814019,1710985803531,2350083,0
1710985814019,1710985803571,2350423,0
1710985814019,1710985803611,2350822,0
1710985814019,1710985803653,2351483,0
1710985814019,1710985803692,2352137,0
1710985814019,1710985803732,2352775,0
1710985814019,1710985803772,2353274,0
1710985814019,1710985803812,2353863,0
1710985814019,1710985803853,2354388,0
1710985814019,1710985803893,2355019,0
1710985814019,1710985803933,2355473,0
1710985814019,1710985803973,2356088,0
1710985814019,1710985804013,2356645,0
1710985814019,1710985804054,2357174,0
1710985814019,1710985804093,2357704,0
1710985814019,1710985804133,2358278,0
1710985814019,1710985804173,2358906,0
1710985814019,1710985804213,2359390,0
1710985814019,1710985804254,2359887,0
1710985814019,1710985804293,2360451,0
1710985814019,1710985804334,2360989,0
1710985814019,1710985804374,2361277,0
1710985814019,1710985804414,2361201,0
1710985814019,1710985804455,2361009,0
1710985814019,1710985804494,2361167,0
1710985814019,1710985804534,2361267,0
1710985814019,1710985804574,2361297,0
1710985814019,1710985804614,2361033,0
1710985814019,1710985804655,2360220,0
1710985814019,1710985804694,2358768,0
1710985814019,1710985804735,2358197,0
1710985814019,1710985804775,2360159,0
1710985814019,1710985804815,2364432,0
1710985814019,1710985804856,2369147,0
1710985814019,1710985804895,2370601,0
1710985814019,1710985804935,2373855,0
1710985814019,1710985804975,2375804,0
1710985814019,1710985805015,2375449,0
1710985814019,1710985805056,2374101,0
1710985814019,1710985805096,2375345,0
1710985814019,1710985805136,2375125,0
1710985814019,1710985805176,2374798,0
1710985814019,1710985805216,2375595,0
1710985814019,1710985805257,2375990,0
1710985814019,1710985805296,2375387,0
1710985814019,1710985805336,2376492,0
1710985814019,1710985805376,2376446,0
1710985814019,1710985805416,2376575,0
1710985814019,1710985805458,2376184,0
1710985814019,1710985805497,2375712,0
1710985814019,1710985805537,2376109,0
1710985814019,1710985805577,2374892,0
1710985814019,1710985805617,2373930,0
1710985814019,1710985805658,2371662,0
1710985814019,1710985805697,2370201,0
1710985814019,1710985805737,2369074,0
1710985814019,1710985805777,2368372,0
1710985814019,1710985805817,2367980,0
1710985814019,1710985805858,2367969,0
1710985814019,1710985805898,2367812,0
1710985814019,1710985805938,2368099,0
1710985814019,1710985805978,2368244,0
1710985814019,1710985806018,2368683,0
1710985814019,1710985806059,2368506,0
1710985814019,1710985806098,2368868,0
1710985814019,1710985806138,2368449,0
1710985814019,1710985806179,2363582,0
1710985814019,1710985806219,2356156,0
1710985814019,1710985806259,2348834,0
1710985814019,1710985806299,2342612,0
1710985814019,1710985806339,2338282,0
1710985814019,1710985806379,2335297,0
1710985814019,1710985806419,2333202,0
1710985814019,1710985806460,2331578,0
1710985814019,1710985806499,2329289,0
1710985814019,1710985806540,2326692,0
1710985814019,1710985806580,2324666,0
1710985814019,1710985806620,2323248,0
1710985814019,1710985806661,2322493,0
1710985814019,1710985806700,2322276,0
1710985814019,1710985806740,2322293,0
1710985814019,1710985806781,2322676,0
1710985814019,1710985806820,2323311,0
1710985814019,1710985806861,2324044,0
1710985814019,1710985806901,2324867,0
1710985814019,1710985806941,2325920,0
1710985814019,1710985806981,2327232,0
1710985814019,1710985807021,2327441,0
1710985814019,1710985807062,2322124,0
1710985814019,1710985807101,2314990,0
1710985814019,1710985807142,2308460,0
1710985814019,1710985807182,2303272,0
1710985814019,1710985807222,2299645,0
1710985814019,1710985807263,2297419,0
1710985814019,1710985807302,2296452,0
1710985814019,1710985807342,2295284,0
1710985814019,1710985807382,2293485,0
1710985814019,1710985807422,2292045,0
1710985814019,1710985807463,2290532,0
1710985814019,1710985807503,2289701,0
1710985814019,1710985807543,2289390,0
1710985814019,1710985807583,2289405,0
1710985814019,1710985807623,2289888,0
1710985814019,1710985807664,2290390,0
1710985814019,1710985807703,2291032,0
1710985814019,1710985807743,2291532,0
1710985814019,1710985807783,2292449,0
1710985814019,1710985807824,2293355,0
1710985814019,1710985807865,2293179,0
1710985814019,1710985807904,2287556,0
1710985814019,1710985807944,2279589,0
1710985814019,1710985807984,2271975,0
1710985814019,1710985808024,2265840,0
1710985814019,1710985808065,2261450,0
1710985814019,1710985808105,2258482,0
1710985814019,1710985808145,2256903,0
1710985814019,1710985808185,2255071,0
1710985814019,1710985808225,2252783,0
1710985814019,1710985808266,2250162,0
1710985814019,1710985808305,2248185,0
1710985814019,1710985808345,2246902,0
1710985814019,1710985808385,2246306,0
1710985814019,1710985808426,2246094,0
1710985814019,1710985808467,2246325,0
1710985814019,1710985808506,2246793,0
1710985814019,1710985808546,2247343,0
1710985814019,1710985808586,2247944,0
1710985814019,1710985808626,2248713,0
1710985814019,1710985808667,2249144,0
1710985814019,1710985808707,2245581,0
1710985814019,1710985808747,2236797,0
1710985814019,1710985808787,2227668,0
1710985814019,1710985808827,2219605,0
1710985814019,1710985808868,2213625,0
1710985814019,1710985808907,2209120,0
1710985814019,1710985808947,2206772,0
1710985814019,1710985808987,2205023,0
1710985814019,1710985809028,2202835,0
1710985814019,1710985809069,2200122,0
1710985814019,1710985809108,2197773,0
1710985814019,1710985809148,2196009,0
1710985814019,1710985809188,2194817,0
1710985814019,1710985809228,2194408,0
1710985814019,1710985809269,2194343,0
1710985814019,1710985809309,2194589,0
1710985814019,1710985809349,2195003,0
1710985814019,1710985809389,2195459,0
1710985814019,1710985809429,2196132,0
1710985814019,1710985809470,2196791,0
1710985814019,1710985809509,2196622,0
1710985814019,1710985809550,2190358,0
1710985814019,1710985809590,2180854,0
1710985814019,1710985809630,2171557,0
1710985814019,1710985809671,2164212,0
1710985814019,1710985809710,2158470,0
1710985814019,1710985809750,2154738,0
1710985814019,1710985809791,2152893,0
1710985814019,1710985809831,2151103,0
1710985814019,1710985809871,2148780,0
1710985814019,1710985809911,2146226,0
1710985814019,1710985809951,2144051,0
1710985814019,1710985809991,2142530,0
1710985814019,1710985810032,2141640,0
1710985814019,1710985810072,2141599,0
1710985814019,1710985810111,2141915,0
1710985814019,1710985810152,2142671,0
1710985814019,1710985810192,2143808,0
1710985814019,1710985810232,2144652,0
1710985814019,1710985810273,2145712,0
1710985814019,1710985810312,2146915,0
1710985814019,1710985810352,2148195,0
1710985814019,1710985810392,2147070,0
1710985814019,1710985810432,2139173,0
1710985814019,1710985810473,2129947,0
1710985814019,1710985810513,2121803,0
1710985814019,1710985810553,2115845,0
1710985814019,1710985810593,2111831,0
1710985814019,1710985810633,2109656,0
1710985814019,1710985810674,2108828,0
1710985814019,1710985810713,2107630,0
1710985814019,1710985810753,2105766,0
1710985814019,1710985810793,2103900,0
1710985814019,1710985810833,2102861,0
1710985814019,1710985810874,2102453,0
1710985814019,1710985810913,2102675,0
1710985814019,1710985810954,2103463,0
1710985814019,1710985810994,2104742,0
1710985814019,1710985811034,2106130,0
1710985814019,1710985811075,2107658,0
1710985814019,1710985811114,2109418,0
1710985814019,1710985811154,2111305,0
1710985814019,1710985811194,2113076,0
1710985814019,1710985811234,2115624,0
1710985814019,1710985811275,2117915,0
1710985814019,1710985811314,2116278,0
1710985814019,1710985811355,2109677,0
1710985814019,1710985811395,2102534,0
1710985814019,1710985811435,2096806,0
1710985814019,1710985811476,2093462,0
1710985814019,1710985811515,2091230,0
1710985814019,1710985811555,2091001,0
1710985814019,1710985811595,2091294,0
1710985814019,1710985811635,2091446,0
1710985814019,1710985811676,2090950,0
1710985814019,1710985811716,2090719,0
1710985814019,1710985811756,2091018,0
1710985814019,1710985811796,2091858,0
1710985814019,1710985811836,2093342,0
1710985814019,1710985811876,2095116,0
1710985814019,1710985811916,2097254,0
1710985814019,1710985811956,2099728,0
1710985814019,1710985811996,2102145,0
1710985814019,1710985812036,2104674,0
1710985814019,1710985812077,2107144,0
1710985814019,1710985812117,2109672,0
1710985814019,1710985812157,2112069,0
1710985814019,1710985812197,2114510,0
1710985814019,1710985812237,2114947,0
1710985814019,1710985812278,2110116,0
1710985814019,1710985812317,2104072,0
1710985814019,1710985812357,2098874,0
1710985814019,1710985812397,2095349,0
1710985814019,1710985812438,2093119,0
1710985814019,1710985812478,2092969,0
1710985814019,1710985812518,2093666,0
1710985814019,1710985812558,2094418,0
1710985814019,1710985812598,2094825,0
1710985814019,1710985812638,2095599,0
1710985814019,1710985812679,2096503,0
1710985814019,1710985812718,2097963,0
1710985814019,1710985812758,2100190,0
1710985814019,1710985812799,2102841,0
1710985814019,1710985812839,2105757,0
1710985814019,1710985812879,2108702,0
1710985814019,1710985812919,2111746,0
1710985814019,1710985812959,2114665,0
1710985814019,1710985812999,2117463,0
1710985814019,1710985813040,2120064,0
1710985814019,1710985813080,2122940,0
1710985814019,1710985813120,2124036,0
1710985814019,1710985813160,2120258,0
1710985814019,1710985813200,2114837,0
1710985814019,1710985813240,2109400,0
1710985814019,1710985813282,2105646,0
1710985814019,1710985813321,2103360,0
1710985814019,1710985813361,2102690,0
1710985814019,1710985813402,2103396,0
1710985814019,1710985813442,2104001,0
1710985814019,1710985813483,2104401,0
1710985814019,1710985813522,2104585,0
1710985814019,1710985813562,2104858,0
1710985814019,1710985813603,2105879,0
1710985814019,1710985813643,2107305,0
1710985814019,1710985813685,2109271,0
1710985814019,1710985813724,2111477,0
1710985814019,1710985813765,2114136,0
1710985814019,1710985813805,2116721,0
1710985814019,1710985813845,2119308,0
1710985814019,1710985813886,2121986,0
1710985814019,1710985813926,2124575,0
1710985814019,1710985813966,2127244,0
1710985825972,1710985814005,2129943,0
1710985825972,1710985814044,2130217,0
1710985825972,1710985814083,2125815,0
1710985825972,1710985814122,2120719,0
1710985825972,1710985814161,2116224,0
1710985825972,1710985814200,2113662,0
1710985825972,1710985814239,2112451,0
1710985825972,1710985814278,2112686,0
1710985825972,1710985814317,2113696,0
1710985825972,1710985814356,2114371,0
1710985825972,1710985814395,2114649,0
1710985825972,1710985814434,2114950,0
1710985825972,1710985814473,2115576,0
1710985825972,1710985814512,2116706,0
1710985825972,1710985814551,2118494,0
1710985825972,1710985814590,2120282,0
1710985825972,1710985814629,2122698,0
1710985825972,1710985814668,2125037,0
1710985825972,1710985814707,2127716,0
1710985825972,1710985814746,2130291,0
1710985825972,1710985814786,2132720,0
1710985825972,1710985814826,2135265,0
1710985825972,1710985814866,2137653,0
1710985825972,1710985814906,2140480,0
1710985825972,1710985814946,2142956,0
1710985825972,1710985814986,2142784,0
1710985825972,1710985815026,2137946,0
1710985825972,1710985815066,2132955,0
1710985825972,1710985815106,2128910,0
1710985825972,1710985815146,2126491,0
1710985825972,1710985815186,2125642,0
1710985825972,1710985815226,2126112,0
1710985825972,1710985815266,2127175,0
1710985825972,1710985815306,2127961,0
1710985825972,1710985815346,2128256,0
1710985825972,1710985815386,2128989,0
1710985825972,1710985815426,2129891,0
1710985825972,1710985815466,2131194,0
1710985825972,1710985815506,2133041,0
1710985825972,1710985815546,2135167,0
1710985825972,1710985815586,2137570,0
1710985825972,1710985815626,2140139,0
1710985825972,1710985815666,2142746,0
1710985825972,1710985815706,2145382,0
1710985825972,1710985815746,2148059,0
1710985825972,1710985815786,2150562,0
1710985825972,1710985815826,2152687,0
1710985825972,1710985815866,2155365,0
1710985825972,1710985815906,2157874,0
1710985825972,1710985815946,2159736,0
1710985825972,1710985815986,2156343,0
1710985825972,1710985816026,2151943,0
1710985825972,1710985816066,2147936,0
1710985825972,1710985816106,2145391,0
1710985825972,1710985816146,2144638,0
1710985825972,1710985816186,2144966,0
1710985825972,1710985816226,2145867,0
1710985825972,1710985816266,2146491,0
1710985825972,1710985816306,2146667,0
1710985825972,1710985816346,2146906,0
1710985825972,1710985816386,2147487,0
1710985825972,1710985816426,2148460,0
1710985825972,1710985816466,2149735,0
1710985825972,1710985816506,2151456,0
1710985825972,1710985816546,2153508,0
1710985825972,1710985816586,2155656,0
1710985825972,1710985816626,2157953,0
1710985825972,1710985816666,2160215,0
1710985825972,1710985816706,2162477,0
1710985825972,1710985816746,2164584,0
1710985825972,1710985816786,2167085,0
1710985825972,1710985816826,2169382,0
1710985825972,1710985816866,2170832,0
1710985825972,1710985816906,2167211,0
1710985825972,1710985816946,2161960,0
1710985825972,1710985816986,2157139,0
1710985825972,1710985817026,2153828,0
1710985825972,1710985817066,2152249,0
1710985825972,1710985817106,2151896,0
1710985825972,1710985817146,2152890,0
1710985825972,1710985817186,2153605,0
1710985825972,1710985817226,2153914,0
1710985825972,1710985817266,2154077,0
1710985825972,1710985817306,2154406,0
1710985825972,1710985817346,2154925,0
1710985825972,1710985817386,2156114,0
1710985825972,1710985817426,2157677,0
1710985825972,1710985817466,2159541,0
1710985825972,1710985817506,2161492,0
1710985825972,1710985817546,2163715,0
1710985825972,1710985817586,2165839,0
1710985825972,1710985817626,2168020,0
1710985825972,1710985817666,2170300,0
1710985825972,1710985817706,2172413,0
1710985825972,1710985817746,2174741,0
1710985825972,1710985817786,2176889,0
1710985825972,1710985817826,2175127,0
1710985825972,1710985817866,2169800,0
1710985825972,1710985817906,2164355,0
1710985825972,1710985817946,2159972,0
1710985825972,1710985817986,2157535,0
1710985825972,1710985818026,2156364,0
1710985825972,1710985818066,2156502,0
1710985825972,1710985818106,2157024,0
1710985825972,1710985818146,2157312,0
1710985825972,1710985818186,2156973,0
1710985825972,1710985818226,2156638,0
1710985825972,1710985818266,2156279,0
1710985825972,1710985818306,2156198,0
1710985825972,1710985818346,2156712,0
1710985825972,1710985818386,2157464,0
1710985825972,1710985818426,2158960,0
1710985825972,1710985818466,2160605,0
1710985825972,1710985818506,2162505,0
1710985825972,1710985818546,2164446,0
1710985825972,1710985818586,2166197,0
1710985825972,1710985818626,2167920,0
1710985825972,1710985818666,2169629,0
1710985825972,1710985818706,2171172,0
1710985825972,1710985818746,2167993,0
1710985825972,1710985818786,2161404,0
1710985825972,1710985818826,2154958,0
1710985825972,1710985818866,2149837,0
1710985825972,1710985818906,2146953,0
1710985825972,1710985818946,2145330,0
1710985825972,1710985818986,2145260,0
1710985825972,1710985819026,2145397,0
1710985825972,1710985819066,2145134,0
1710985825972,1710985819106,2144656,0
1710985825972,1710985819146,2145901,0
1710985825972,1710985819186,2151590,0
1710985825972,1710985819226,2158683,0
1710985825972,1710985819266,2167604,0
1710985825972,1710985819306,2176730,0
1710985825972,1710985819346,2186055,0
1710985825972,1710985819386,2195001,0
1710985825972,1710985819426,2202507,0
1710985825972,1710985819466,2208351,0
1710985825972,1710985819506,2213929,0
1710985825972,1710985819546,2219322,0
1710985825972,1710985819586,2224545,0
1710985825972,1710985819626,2229106,0
1710985825972,1710985819666,2231445,0
1710985825972,1710985819706,2230886,0
1710985825972,1710985819746,2228774,0
1710985825972,1710985819786,2226621,0
1710985825972,1710985819826,2226913,0
1710985825972,1710985819866,2229607,0
1710985825972,1710985819906,2232390,0
1710985825972,1710985819946,2234303,0
1710985825972,1710985819986,2235912,0
1710985825972,1710985820026,2237097,0
1710985825972,1710985820066,2239045,0
1710985825972,1710985820106,2241414,0
1710985825972,1710985820146,2243971,0
1710985825972,1710985820186,2246573,0
1710985825972,1710985820226,2248726,0
1710985825972,1710985820266,2251237,0
1710985825972,1710985820306,2253590,0
1710985825972,1710985820346,2255664,0
1710985825972,1710985820386,2257921,0
1710985825972,1710985820426,2260392,0
1710985825972,1710985820466,2262863,0
1710985825972,1710985820506,2262241,0
1710985825972,1710985820546,2259316,0
1710985825972,1710985820586,2257013,0
1710985825972,1710985820626,2255507,0
1710985825972,1710985820666,2255417,0
1710985825972,1710985820706,2256279,0
1710985825972,1710985820746,2258539,0
1710985825972,1710985820786,2260186,0
1710985825972,1710985820826,2261525,0
1710985825972,1710985820866,2262775,0
1710985825972,1710985820906,2264031,0
1710985825972,1710985820946,2265832,0
1710985825972,1710985820986,2268403,0
1710985825972,1710985821026,2270974,0
1710985825972,1710985821066,2273640,0
1710985825972,1710985821106,2276252,0
1710985825972,1710985821146,2279081,0
1710985825972,1710985821186,2281450,0
1710985825972,1710985821226,2283981,0
1710985825972,1710985821266,2286111,0
1710985825972,1710985821306,2282236,0
1710985825972,1710985821346,2278819,0
1710985825972,1710985821386,2276668,0
1710985825972,1710985821426,2276139,0
1710985825972,1710985821466,2276874,0
1710985825972,1710985821506,2278935,0
1710985825972,1710985821546,2280716,0
1710985825972,1710985821586,2282201,0
1710985825972,1710985821626,2283377,0
1710985825972,1710985821666,2284716,0
1710985825972,1710985821706,2286396,0
1710985825972,1710985821746,2288488,0
1710985825972,1710985821786,2290870,0
1710985825972,1710985821826,2293228,0
1710985825972,1710985821866,2295310,0
1710985825972,1710985821906,2296934,0
1710985825972,1710985821946,2298661,0
1710985825972,1710985821986,2300255,0
1710985825972,1710985822026,2298245,0
1710985825972,1710985822066,2294257,0
1710985825972,1710985822106,2290221,0
1710985825972,1710985822146,2287479,0
1710985825972,1710985822186,2286091,0
1710985825972,1710985822226,2285936,0
1710985825972,1710985822266,2286755,0
1710985825972,1710985822306,2287653,0
1710985825972,1710985822346,2288381,0
1710985825972,1710985822386,2288896,0
1710985825972,1710985822426,2289897,0
1710985825972,1710985822466,2291067,0
1710985825972,1710985822506,2292629,0
1710985825972,1710985822546,2294340,0
1710985825972,1710985822586,2296099,0
1710985825972,1710985822626,2298290,0
1710985825972,1710985822666,2300747,0
1710985825972,1710985822706,2302056,0
1710985825972,1710985822746,2298592,0
1710985825972,1710985822786,2293080,0
1710985825972,1710985822826,2288087,0
1710985825972,1710985822866,2284794,0
1710985825972,1710985822906,2283059,0
1710985825972,1710985822946,2282714,0
1710985825972,1710985822986,2283536,0
1710985825972,1710985823026,2284020,0
1710985825972,1710985823066,2284236,0
1710985825972,1710985823106,2284278,0
1710985825972,1710985823146,2284449,0
1710985825972,1710985823186,2285023,0
1710985825972,1710985823226,2286218,0
1710985825972,1710985823266,2287625,0
1710985825972,1710985823306,2289278,0
1710985825972,1710985823346,2291034,0
1710985825972,1710985823386,2293130,0
1710985825972,1710985823426,2294830,0
1710985825972,1710985823466,2291923,0
1710985825972,1710985823506,2285399,0
1710985825972,1710985823546,2279222,0
1710985825972,1710985823586,2274579,0
1710985825972,1710985823626,2271895,0
1710985825972,1710985823666,2270605,0
1710985825972,1710985823706,2271031,0
1710985825972,1710985823746,2271351,0
1710985825972,1710985823786,2271322,0
1710985825972,1710985823826,2270886,0
1710985825972,1710985823866,2270918,0
1710985825972,1710985823906,2271374,0
1710985825972,1710985823946,2272363,0
1710985825972,1710985823986,2273751,0
1710985825972,1710985824026,2275360,0
1710985825972,1710985824066,2277193,0
1710985825972,1710985824106,2279017,0
1710985825972,1710985824146,2281076,0
1710985825972,1710985824186,2282932,0
1710985825972,1710985824226,2281971,0
1710985825972,1710985824266,2275195,0
1710985825972,1710985824306,2268068,0
1710985825972,1710985824346,2262414,0
1710985825972,1710985824386,2258687,0
1710985825972,1710985824426,2256663,0
1710985825972,1710985824466,2256600,0
1710985825972,1710985824506,2256889,0
1710985825972,1710985824546,2256892,0
1710985825972,1710985824586,2256369,0
1710985825972,1710985824626,2256102,0
1710985825972,1710985824666,2256283,0
1710985825972,1710985824706,2256926,0
1710985825972,1710985824746,2258183,0
1710985825972,1710985824786,2259765,0
1710985825972,1710985824826,2261677,0
1710985825972,1710985824866,2263643,0
1710985825972,1710985824906,2265784,0
1710985825972,1710985824946,2267598,0
1710985825972,1710985824986,2269449,0
1710985825972,1710985825026,2271611,0
1710985825972,1710985825066,2273474,0
1710985825972,1710985825106,2270894,0
1710985825972,1710985825146,2263804,0
1710985825972,1710985825186,2257377,0
1710985825972,1710985825226,2252924,0
1710985825972,1710985825266,2250314,0
1710985825972,1710985825306,2249375,0
1710985825972,1710985825346,2250284,0
1710985825972,1710985825386,2250916,0
1710985825972,1710985825426,2251201,0
1710985825972,1710985825466,2251365,0
1710985825972,1710985825506,2251569,0
1710985825972,1710985825546,2252481,0
1710985825972,1710985825586,2254016,0
1710985825972,1710985825626,2255833,0
1710985825972,1710985825666,2258175,0
1710985825972,1710985825706,2260588,0
1710985825972,1710985825746,2263141,0
1710985825972,1710985825786,2265562,0
1710985825972,1710985825826,2268049,0
1710985825972,1710985825866,2270137,0
1710985825972,1710985825906,2272548,0
1710985825972,1710985825946,2275101,0
1710985838091,1710985826039,2276531,0
1710985838091,1710985826079,2272267,0
1710985838091,1710985826120,2265682,0
1710985838091,1710985826160,2260324,0
1710985838091,1710985826200,2257091,0
1710985838091,1710985826240,2255621,0
1710985838091,1710985826280,2255618,0
1710985838091,1710985826321,2256778,0
1710985838091,1710985826360,2257514,0
1710985838091,1710985826401,2257767,0
1710985838091,1710985826441,2257987,0
1710985838091,1710985826481,2258372,0
1710985838091,1710985826522,2259106,0
1710985838091,1710985826561,2260720,0
1710985838091,1710985826601,2262625,0
1710985838091,1710985826641,2264801,0
1710985838091,1710985826681,2267340,0
1710985838091,1710985826722,2270000,0
1710985838091,1710985826762,2272248,0
1710985838091,1710985826802,2274677,0
1710985838091,1710985826842,2276545,0
1710985838091,1710985826882,2276886,0
1710985838091,1710985826923,2271089,0
1710985838091,1710985826962,2262296,0
1710985838091,1710985827003,2254419,0
1710985838091,1710985827043,2248279,0
1710985838091,1710985827083,2244544,0
1710985838091,1710985827124,2242166,0
1710985838091,1710985827163,2241901,0
1710985838091,1710985827203,2242132,0
1710985838091,1710985827244,2241968,0
1710985838091,1710985827283,2241826,0
1710985838091,1710985827324,2242166,0
1710985838091,1710985827364,2242898,0
1710985838091,1710985827404,2244554,0
1710985838091,1710985827444,2246440,0
1710985838091,1710985827484,2248670,0
1710985838091,1710985827525,2251243,0
1710985838091,1710985827564,2253692,0
1710985838091,1710985827605,2256241,0
1710985838091,1710985827645,2258428,0
1710985838091,1710985827685,2260749,0
1710985838091,1710985827726,2263089,0
1710985838091,1710985827765,2264922,0
1710985838091,1710985827805,2261831,0
1710985838091,1710985827845,2256015,0
1710985838091,1710985827885,2250322,0
1710985838091,1710985827926,2246157,0
1710985838091,1710985827965,2244272,0
1710985838091,1710985828005,2243459,0
1710985838091,1710985828045,2244465,0
1710985838091,1710985828086,2245632,0
1710985838091,1710985828126,2246366,0
1710985838091,1710985828166,2246675,0
1710985838091,1710985828206,2246976,0
1710985838091,1710985828246,2247528,0
1710985838091,1710985828286,2248784,0
1710985838091,1710985828327,2250392,0
1710985838091,1710985828366,2252659,0
1710985838091,1710985828406,2254948,0
1710985838091,1710985828447,2257763,0
1710985838091,1710985828487,2260341,0
1710985838091,1710985828527,2263035,0
1710985838091,1710985828567,2265631,0
1710985838091,1710985828607,2268100,0
1710985838091,1710985828647,2270790,0
1710985838091,1710985828687,2273394,0
1710985838091,1710985828728,2273969,0
1710985838091,1710985828767,2269339,0
1710985838091,1710985828807,2264141,0
1710985838091,1710985828847,2260019,0
1710985838091,1710985828887,2257752,0
1710985838091,1710985828928,2257015,0
1710985838091,1710985828968,2257603,0
1710985838091,1710985829008,2259102,0
1710985838091,1710985829048,2260294,0
1710985838091,1710985829088,2260988,0
1710985838091,1710985829129,2261618,0
1710985838091,1710985829168,2262423,0
1710985838091,1710985829208,2263549,0
1710985838091,1710985829248,2264704,0
1710985838091,1710985829289,2265883,0
1710985838091,1710985829329,2267384,0
1710985838091,1710985829369,2268891,0
1710985838091,1710985829409,2270738,0
1710985838091,1710985829449,2272705,0
1710985838091,1710985829489,2274795,0
1710985838091,1710985829530,2276726,0
1710985838091,1710985829570,2278490,0
1710985838091,1710985829610,2280487,0
1710985838091,1710985829650,2282405,0
1710985838091,1710985829690,2284467,0
1710985838091,1710985829731,2283477,0
1710985838091,1710985829771,2277832,0
1710985838091,1710985829811,2271924,0
1710985838091,1710985829852,2266511,0
1710985838091,1710985829892,2262976,0
1710985838091,1710985829933,2261336,0
1710985838091,1710985829972,2261269,0
1710985838091,1710985830013,2262006,0
1710985838091,1710985830053,2262496,0
1710985838091,1710985830093,2262670,0
1710985838091,1710985830134,2262944,0
1710985838091,1710985830174,2263533,0
1710985838091,1710985830215,2264594,0
1710985838091,1710985830255,2266099,0
1710985838091,1710985830297,2267829,0
1710985838091,1710985830338,2270065,0
1710985838091,1710985830377,2272470,0
1710985838091,1710985830417,2274942,0
1710985838091,1710985830458,2277566,0
1710985838091,1710985830498,2279989,0
1710985838091,1710985830539,2282472,0
1710985838091,1710985830578,2284787,0
1710985838091,1710985830619,2287168,0
1710985838091,1710985830659,2289460,0
1710985838091,1710985830699,2289786,0
1710985838091,1710985830740,2285639,0
1710985838091,1710985830780,2281003,0
1710985838091,1710985830820,2277056,0
1710985838091,1710985830860,2275037,0
1710985838091,1710985830901,2274358,0
1710985838091,1710985830942,2275181,0
1710985838091,1710985830981,2276469,0
1710985838091,1710985831021,2277333,0
1710985838091,1710985831062,2278071,0
1710985838091,1710985831102,2278628,0
1710985838091,1710985831143,2279478,0
1710985838091,1710985831182,2280749,0
1710985838091,1710985831223,2282308,0
1710985838091,1710985831263,2284349,0
1710985838091,1710985831303,2286446,0
1710985838091,1710985831344,2288802,0
1710985838091,1710985831384,2293401,0
1710985838091,1710985831424,2295651,0
1710985838091,1710985831464,2297728,0
1710985838091,1710985831504,2299792,0
1710985838091,1710985831545,2301598,0
1710985838091,1710985831585,2299800,0
1710985838091,1710985831625,2294256,0
1710985838091,1710985831665,2288688,0
1710985838091,1710985831705,2284020,0
1710985838091,1710985831746,2281379,0
1710985838091,1710985831785,2280185,0
1710985838091,1710985831826,2280416,0
1710985838091,1710985831866,2280986,0
1710985838091,1710985831906,2281209,0
1710985838091,1710985831947,2281179,0
1710985838091,1710985831986,2281318,0
1710985838091,1710985832026,2281830,0
1710985838091,1710985832067,2282736,0
1710985838091,1710985832107,2284373,0
1710985838091,1710985832149,2286076,0
1710985838091,1710985832189,2288246,0
1710985838091,1710985832229,2290373,0
1710985838091,1710985832269,2292737,0
1710985838091,1710985832309,2294826,0
1710985838091,1710985832350,2296930,0
1710985838091,1710985832390,2298890,0
1710985838091,1710985832430,2301007,0
1710985838091,1710985832470,2300574,0
1710985838091,1710985832510,2295471,0
1710985838091,1710985832551,2289288,0
1710985838091,1710985832591,2284009,0
1710985838091,1710985832631,2280644,0
1710985838091,1710985832671,2278832,0
1710985838091,1710985832711,2278429,0
1710985838091,1710985832753,2279030,0
1710985838091,1710985832792,2279263,0
1710985838091,1710985832832,2279219,0
1710985838091,1710985832873,2279143,0
1710985838091,1710985832913,2279450,0
1710985838091,1710985832954,2280055,0
1710985838091,1710985832993,2281506,0
1710985838091,1710985833034,2283035,0
1710985838091,1710985833074,2284987,0
1710985838091,1710985833114,2287125,0
1710985838091,1710985833155,2289451,0
1710985838091,1710985833195,2291502,0
1710985838091,1710985833235,2293808,0
1710985838091,1710985833275,2295920,0
1710985838091,1710985833315,2297919,0
1710985838091,1710985833356,2299888,0
1710985838091,1710985833396,2298115,0
1710985838091,1710985833436,2292749,0
1710985838091,1710985833476,2287330,0
1710985838091,1710985833517,2283254,0
1710985838091,1710985833558,2281029,0
1710985838091,1710985833597,2280128,0
1710985838091,1710985833637,2280527,0
1710985838091,1710985833677,2281297,0
1710985838091,1710985833718,2281636,0
1710985838091,1710985833759,2281631,0
1710985838091,1710985833798,2281805,0
1710985838091,1710985833839,2282223,0
1710985838091,1710985833879,2283194,0
1710985838091,1710985833919,2284505,0
1710985838091,1710985833960,2286048,0
1710985838091,1710985834000,2288037,0
1710985838091,1710985834040,2290052,0
1710985838091,1710985834080,2292094,0
1710985838091,1710985834120,2294066,0
1710985838091,1710985834161,2295906,0
1710985838091,1710985834201,2297838,0
1710985838091,1710985834241,2299145,0
1710985838091,1710985834281,2296264,0
1710985838091,1710985834321,2290761,0
1710985838091,1710985834363,2285532,0
1710985838091,1710985834402,2281512,0
1710985838091,1710985834442,2279374,0
1710985838091,1710985834483,2278771,0
1710985838091,1710985834523,2279265,0
1710985838091,1710985834564,2279601,0
1710985838091,1710985834603,2279823,0
1710985838091,1710985834645,2279473,0
1710985838091,1710985834685,2279450,0
1710985838091,1710985834725,2279736,0
1710985838091,1710985834766,2280612,0
1710985838091,1710985834806,2281679,0
1710985838091,1710985834846,2283199,0
1710985838091,1710985834886,2284833,0
1710985838091,1710985834926,2286619,0
1710985838091,1710985834967,2288477,0
1710985838091,1710985835007,2290156,0
1710985838091,1710985835047,2292018,0
1710985838091,1710985835087,2293593,0
1710985838091,1710985835127,2292448,0
1710985838091,1710985835168,2286089,0
1710985838091,1710985835208,2279107,0
1710985838091,1710985835248,2272788,0
1710985838091,1710985835288,2268559,0
1710985838091,1710985835328,2265841,0
1710985838091,1710985835369,2264607,0
1710985838091,1710985835408,2264304,0
1710985838091,1710985835449,2263893,0
1710985838091,1710985835489,2262821,0
1710985838091,1710985835529,2262084,0
1710985838091,1710985835570,2261546,0
1710985838091,1710985835609,2261522,0
1710985838091,1710985835650,2262010,0
1710985838091,1710985835690,2262879,0
1710985838091,1710985835730,2264055,0
1710985838091,1710985835771,2265506,0
1710985838091,1710985835811,2266917,0
1710985838091,1710985835851,2268465,0
1710985838091,1710985835891,2269560,0
1710985838091,1710985835932,2271147,0
1710985838091,1710985835973,2272269,0
1710985838091,1710985836012,2269018,0
1710985838091,1710985836052,2261369,0
1710985838091,1710985836093,2253416,0
1710985838091,1710985836133,2246534,0
1710985838091,1710985836174,2241830,0
1710985838091,1710985836213,2239066,0
1710985838091,1710985836254,2238112,0
1710985838091,1710985836294,2237741,0
1710985838091,1710985836334,2236933,0
1710985838091,1710985836375,2235695,0
1710985838091,1710985836415,2234766,0
1710985838091,1710985836455,2234379,0
1710985838091,1710985836495,2234745,0
1710985838091,1710985836535,2235668,0
1710985838091,1710985836576,2236963,0
1710985838091,1710985836616,2238560,0
1710985838091,1710985836657,2239963,0
1710985838091,1710985836697,2241824,0
1710985838091,1710985836737,2243976,0
1710985838091,1710985836778,2246061,0
1710985838091,1710985836818,2248120,0
1710985838091,1710985836858,2250502,0
1710985838091,1710985836899,2252573,0
1710985838091,1710985836939,2250191,0
1710985838091,1710985836980,2243704,0
1710985838091,1710985837019,2236648,0
1710985838091,1710985837059,2231111,0
1710985838091,1710985837100,2227533,0
1710985838091,1710985837140,2225623,0
1710985838091,1710985837181,2225543,0
1710985838091,1710985837220,2225570,0
1710985838091,1710985837261,2225252,0
1710985838091,1710985837301,2224784,0
1710985838091,1710985837341,2224435,0
1710985838091,1710985837382,2224433,0
1710985838091,1710985837421,2225014,0
1710985838091,1710985837462,2225978,0
1710985838091,1710985837502,2229189,0
1710985838091,1710985837542,2231037,0
1710985838091,1710985837583,2232962,0
1710985838091,1710985837623,2234836,0
1710985838091,1710985837663,2236515,0
1710985838091,1710985837703,2238369,0
1710985838091,1710985837743,2240380,0
1710985838091,1710985837784,2240433,0
1710985838091,1710985837823,2235004,0
1710985838091,1710985837864,2228131,0
1710985838091,1710985837904,2222203,0
1710985838091,1710985837944,2217848,0
1710985838091,1710985837985,2215031,0
1710985838091,1710985838024,2213986,0
1710985838091,1710985838064,2213594,0
1710985850202,1710985838103,2212952,0
1710985850202,1710985838143,2212078,0
1710985850202,1710985838183,2211050,0
1710985850202,1710985838223,2209719,0
1710985850202,1710985838263,2209013,0
1710985850202,1710985838303,2208898,0
1710985850202,1710985838343,2209748,0
1710985850202,1710985838384,2211318,0
1710985850202,1710985838423,2213432,0
1710985850202,1710985838464,2216873,0
1710985850202,1710985838504,2220713,0
1710985850202,1710985838544,2223768,0
1710985850202,1710985838585,2226823,0
1710985850202,1710985838624,2229299,0
1710985850202,1710985838664,2230817,0
1710985850202,1710985838704,2225918,0
1710985850202,1710985838744,2218752,0
1710985850202,1710985838786,2212629,0
1710985850202,1710985838825,2208568,0
1710985850202,1710985838865,2205385,0
1710985850202,1710985838905,2203657,0
1710985850202,1710985838946,2203441,0
1710985850202,1710985838987,2203350,0
1710985850202,1710985839026,2202670,0
1710985850202,1710985839066,2201162,0
1710985850202,1710985839106,2199622,0
1710985850202,1710985839147,2198590,0
1710985850202,1710985839188,2198157,0
1710985850202,1710985839227,2198451,0
1710985850202,1710985839267,2199071,0
1710985850202,1710985839308,2200519,0
1710985850202,1710985839348,2202103,0
1710985850202,1710985839389,2203868,0
1710985850202,1710985839429,2205399,0
1710985850202,1710985839469,2207063,0
1710985850202,1710985839509,2208724,0
1710985850202,1710985839549,2210547,0
1710985850202,1710985839590,2211343,0
1710985850202,1710985839630,2205518,0
1710985850202,1710985839670,2197845,0
1710985850202,1710985839710,2190586,0
1710985850202,1710985839750,2185624,0
1710985850202,1710985839792,2182539,0
1710985850202,1710985839831,2180849,0
1710985850202,1710985839871,2180822,0
1710985850202,1710985839912,2180604,0
1710985850202,1710985839952,2179784,0
1710985850202,1710985839993,2178724,0
1710985850202,1710985840032,2178075,0
1710985850202,1710985840072,2178075,0
1710985850202,1710985840113,2178647,0
1710985850202,1710985840153,2179948,0
1710985850202,1710985840194,2181541,0
1710985850202,1710985840233,2183532,0
1710985850202,1710985840274,2185485,0
1710985850202,1710985840314,2187822,0
1710985850202,1710985840354,2189978,0
1710985850202,1710985840395,2192091,0
1710985850202,1710985840435,2194122,0
1710985850202,1710985840475,2196478,0
1710985850202,1710985840515,2197137,0
1710985850202,1710985840555,2191378,0
1710985850202,1710985840596,2184135,0
1710985850202,1710985840636,2177704,0
1710985850202,1710985840676,2173451,0
1710985850202,1710985840717,2170898,0
1710985850202,1710985840757,2169628,0
1710985850202,1710985840798,2169833,0
1710985850202,1710985840837,2169798,0
1710985850202,1710985840878,2169068,0
1710985850202,1710985840918,2168346,0
1710985850202,1710985840958,2167935,0
1710985850202,1710985840999,2168044,0
1710985850202,1710985841039,2168790,0
1710985850202,1710985841079,2170151,0
1710985850202,1710985841119,2171767,0
1710985850202,1710985841159,2173803,0
1710985850202,1710985841200,2175806,0
1710985850202,1710985841240,2178063,0
1710985850202,1710985841280,2180019,0
1710985850202,1710985841320,2182095,0
1710985850202,1710985841361,2184220,0
1710985850202,1710985841401,2186494,0
1710985850202,1710985841441,2186709,0
1710985850202,1710985841481,2180635,0
1710985850202,1710985841521,2173394,0
1710985850202,1710985841561,2167239,0
1710985850202,1710985841602,2163355,0
1710985850202,1710985841642,2161224,0
1710985850202,1710985841682,2160535,0
1710985850202,1710985841722,2161178,0
1710985850202,1710985841762,2161343,0
1710985850202,1710985841803,2161070,0
1710985850202,1710985841843,2160675,0
1710985850202,1710985841883,2160589,0
1710985850202,1710985841923,2161154,0
1710985850202,1710985841963,2162252,0
1710985850202,1710985842004,2163748,0
1710985850202,1710985842043,2165853,0
1710985850202,1710985842084,2168028,0
1710985850202,1710985842124,2170342,0
1710985850202,1710985842164,2172708,0
1710985850202,1710985842205,2174788,0
1710985850202,1710985842244,2176941,0
1710985850202,1710985842285,2179292,0
1710985850202,1710985842325,2181764,0
1710985850202,1710985842365,2182081,0
1710985850202,1710985842406,2176328,0
1710985850202,1710985842446,2169704,0
1710985850202,1710985842486,2164168,0
1710985850202,1710985842526,2160741,0
1710985850202,1710985842566,2159194,0
1710985850202,1710985842607,2159231,0
1710985850202,1710985842647,2160106,0
1710985850202,1710985842687,2160394,0
1710985850202,1710985842727,2160399,0
1710985850202,1710985842767,2160095,0
1710985850202,1710985842809,2160186,0
1710985850202,1710985842848,2160494,0
1710985850202,1710985842888,2161435,0
1710985850202,1710985842929,2163114,0
1710985850202,1710985842969,2164873,0
1710985850202,1710985843010,2167046,0
1710985850202,1710985843050,2169006,0
1710985850202,1710985843090,2170921,0
1710985850202,1710985843130,2172992,0
1710985850202,1710985843170,2175273,0
1710985850202,1710985843211,2177261,0
1710985850202,1710985843251,2175185,0
1710985850202,1710985843291,2168705,0
1710985850202,1710985843331,2162620,0
1710985850202,1710985843371,2157832,0
1710985850202,1710985843412,2155312,0
1710985850202,1710985843452,2154130,0
1710985850202,1710985843492,2154276,0
1710985850202,1710985843532,2154555,0
1710985850202,1710985843573,2154293,0
1710985850202,1710985843614,2153148,0
1710985850202,1710985843653,2151773,0
1710985850202,1710985843693,2150702,0
1710985850202,1710985843734,2149697,0
1710985850202,1710985843774,2149182,0
1710985850202,1710985843815,2148926,0
1710985850202,1710985843854,2148651,0
1710985850202,1710985843895,2148810,0
1710985850202,1710985843935,2148904,0
1710985850202,1710985843975,2149672,0
1710985850202,1710985844016,2150587,0
1710985850202,1710985844056,2149851,0
1710985850202,1710985844098,2142778,0
1710985850202,1710985844138,2133407,0
1710985850202,1710985844178,2116947,0
1710985850202,1710985844219,2111880,0
1710985850202,1710985844259,2108916,0
1710985850202,1710985844299,2107974,0
1710985850202,1710985844339,2107373,0
1710985850202,1710985844379,2106974,0
1710985850202,1710985844420,2106375,0
1710985850202,1710985844460,2105666,0
1710985850202,1710985844500,2105780,0
1710985850202,1710985844540,2106236,0
1710985850202,1710985844580,2107339,0
1710985850202,1710985844621,2108955,0
1710985850202,1710985844660,2110992,0
1710985850202,1710985844700,2113157,0
1710985850202,1710985844741,2115165,0
1710985850202,1710985844781,2117487,0
1710985850202,1710985844822,2118852,0
1710985850202,1710985844861,2114741,0
1710985850202,1710985844901,2107461,0
1710985850202,1710985844942,2100320,0
1710985850202,1710985844982,2094832,0
1710985850202,1710985845023,2091524,0
1710985850202,1710985845062,2089664,0
1710985850202,1710985845102,2089413,0
1710985850202,1710985845143,2089431,0
1710985850202,1710985845185,2089067,0
1710985850202,1710985845224,2088489,0
1710985850202,1710985845263,2088060,0
1710985850202,1710985845303,2088208,0
1710985850202,1710985845344,2089060,0
1710985850202,1710985845384,2090653,0
1710985850202,1710985845425,2092243,0
1710985850202,1710985845464,2094356,0
1710985850202,1710985845504,2096279,0
1710985850202,1710985845545,2098223,0
1710985850202,1710985845585,2100179,0
1710985850202,1710985845626,2102421,0
1710985850202,1710985845665,2104294,0
1710985850202,1710985845706,2100894,0
1710985850202,1710985845746,2092771,0
1710985850202,1710985845786,2084474,0
1710985850202,1710985845827,2077660,0
1710985850202,1710985845867,2072976,0
1710985850202,1710985845907,2070122,0
1710985850202,1710985845947,2069360,0
1710985850202,1710985845987,2068796,0
1710985850202,1710985846028,2067912,0
1710985850202,1710985846068,2066718,0
1710985850202,1710985846109,2065973,0
1710985850202,1710985846150,2066003,0
1710985850202,1710985846190,2066843,0
1710985850202,1710985846231,2068271,0
1710985850202,1710985846270,2070204,0
1710985850202,1710985846311,2072371,0
1710985850202,1710985846351,2074871,0
1710985850202,1710985846391,2077346,0
1710985850202,1710985846432,2079998,0
1710985850202,1710985846472,2082453,0
1710985850202,1710985846512,2085053,0
1710985850202,1710985846552,2087960,0
1710985850202,1710985846592,2090855,0
1710985850202,1710985846633,2090960,0
1710985850202,1710985846673,2084323,0
1710985850202,1710985846713,2076128,0
1710985850202,1710985846753,2068687,0
1710985850202,1710985846794,2063923,0
1710985850202,1710985846835,2060813,0
1710985850202,1710985846874,2059821,0
1710985850202,1710985846915,2059853,0
1710985850202,1710985846955,2059636,0
1710985850202,1710985846995,2058888,0
1710985850202,1710985847036,2057877,0
1710985850202,1710985847075,2057699,0
1710985850202,1710985847116,2058073,0
1710985850202,1710985847156,2059032,0
1710985850202,1710985847196,2060539,0
1710985850202,1710985847237,2062343,0
1710985850202,1710985847277,2064575,0
1710985850202,1710985847317,2066820,0
1710985850202,1710985847357,2069277,0
1710985850202,1710985847400,2071728,0
1710985850202,1710985847438,2074346,0
1710985850202,1710985847478,2076746,0
1710985850202,1710985847518,2079684,0
1710985850202,1710985847558,2082233,0
1710985850202,1710985847599,2079665,0
1710985850202,1710985847640,2072695,0
1710985850202,1710985847679,2065467,0
1710985850202,1710985847719,2059772,0
1710985850202,1710985847759,2056469,0
1710985850202,1710985847799,2054840,0
1710985850202,1710985847840,2055111,0
1710985850202,1710985847880,2055527,0
1710985850202,1710985847920,2055432,0
1710985850202,1710985847960,2054985,0
1710985850202,1710985848000,2054913,0
1710985850202,1710985848041,2055514,0
1710985850202,1710985848081,2056718,0
1710985850202,1710985848121,2058569,0
1710985850202,1710985848161,2060810,0
1710985850202,1710985848201,2063445,0
1710985850202,1710985848242,2066089,0
1710985850202,1710985848282,2069054,0
1710985850202,1710985848322,2071943,0
1710985850202,1710985848362,2074729,0
1710985850202,1710985848402,2077672,0
1710985850202,1710985848443,2080915,0
1710985850202,1710985848483,2082972,0
1710985850202,1710985848523,2078456,0
1710985850202,1710985848563,2070650,0
1710985850202,1710985848604,2062733,0
1710985850202,1710985848644,2056836,0
1710985850202,1710985848684,2053009,0
1710985850202,1710985848724,2050983,0
1710985850202,1710985848764,2051083,0
1710985850202,1710985848804,2051464,0
1710985850202,1710985848846,2051403,0
1710985850202,1710985848885,2050910,0
1710985850202,1710985848925,2050774,0
1710985850202,1710985848966,2051332,0
1710985850202,1710985849006,2052730,0
1710985850202,1710985849047,2054798,0
1710985850202,1710985849086,2057064,0
1710985850202,1710985849126,2059735,0
1710985850202,1710985849167,2062581,0
1710985850202,1710985849207,2065795,0
1710985850202,1710985849248,2068827,0
1710985850202,1710985849287,2071900,0
1710985850202,1710985849328,2074966,0
1710985850202,1710985849368,2078200,0
1710985850202,1710985849408,2081744,0
1710985850202,1710985849449,2082324,0
1710985850202,1710985849489,2076165,0
1710985850202,1710985849529,2068388,0
1710985850202,1710985849570,2061297,0
1710985850202,1710985849612,2056436,0
1710985850202,1710985849651,2053462,0
1710985850202,1710985849690,2052521,0
1710985850202,1710985849730,2053037,0
1710985850202,1710985849771,2053402,0
1710985850202,1710985849811,2053358,0
1710985850202,1710985849852,2053052,0
1710985850202,1710985849891,2053341,0
1710985850202,1710985849932,2054299,0
1710985850202,1710985849972,2055942,0
1710985850202,1710985850012,2058140,0
1710985850202,1710985850053,2060735,0
1710985850202,1710985850093,2063615,0
1710985850202,1710985850133,2066793,0
1710985862199,1710985850172,2070017,0
1710985862199,1710985850211,2073192,0
1710985862199,1710985850250,2076486,0
1710985862199,1710985850289,2080007,0
1710985862199,1710985850328,2083471,0
1710985862199,1710985850367,2087079,0
1710985862199,1710985850406,2090747,0
1710985862199,1710985850445,2089943,0
1710985862199,1710985850484,2083430,0
1710985862199,1710985850523,2076333,0
1710985862199,1710985850562,2070407,0
1710985862199,1710985850601,2066889,0
1710985862199,1710985850640,2065424,0
1710985862199,1710985850679,2065604,0
1710985862199,1710985850718,2066753,0
1710985862199,1710985850758,2067321,0
1710985862199,1710985850798,2067268,0
1710985862199,1710985850838,2067250,0
1710985862199,1710985850878,2067606,0
1710985862199,1710985850918,2068496,0
1710985862199,1710985850958,2069342,0
1710985862199,1710985850998,2069316,0
1710985862199,1710985851038,2067423,0
1710985862199,1710985851078,2066852,0
1710985862199,1710985851118,2067656,0
1710985862199,1710985851158,2067789,0
1710985862199,1710985851198,2067367,0
1710985862199,1710985851238,2067068,0
1710985862199,1710985851278,2069219,0
1710985862199,1710985851318,2069930,0
1710985862199,1710985851358,2069650,0
1710985862199,1710985851398,2068723,0
1710985862199,1710985851438,2063582,0
1710985862199,1710985851478,2056704,0
1710985862199,1710985851518,2048489,0
1710985862199,1710985851558,2044378,0
1710985862199,1710985851598,2041712,0
1710985862199,1710985851638,2044437,0
1710985862199,1710985851678,2048392,0
1710985862199,1710985851718,2048842,0
1710985862199,1710985851758,2049933,0
1710985862199,1710985851798,2054267,0
1710985862199,1710985851838,2064094,0
1710985862199,1710985851878,2071669,0
1710985862199,1710985851918,2076791,0
1710985862199,1710985851958,2071033,0
1710985862199,1710985851998,2065531,0
1710985862199,1710985852038,2071025,0
1710985862199,1710985852078,2078560,0
1710985862199,1710985852118,2084489,0
1710985862199,1710985852158,2090369,0
1710985862199,1710985852198,2095835,0
1710985862199,1710985852238,2092402,0
1710985862199,1710985852278,2081754,0
1710985862199,1710985852318,2063662,0
1710985862199,1710985852358,2042384,0
1710985862199,1710985852398,2021679,0
1710985862199,1710985852438,1997478,0
1710985862199,1710985852478,1975771,0
1710985862199,1710985852518,1962515,0
1710985862199,1710985852558,1951158,0
1710985862199,1710985852598,1946556,0
1710985862199,1710985852638,1947613,0
1710985862199,1710985852678,1953485,0
1710985862199,1710985852718,1961537,0
1710985862199,1710985852758,1989806,0
1710985862199,1710985852798,2008486,0
1710985862199,1710985852838,2028460,0
1710985862199,1710985852878,2049441,0
1710985862199,1710985852918,2069845,0
1710985862199,1710985852958,2089572,0
1710985862199,1710985852998,2095659,0
1710985862199,1710985853038,2081116,0
1710985862199,1710985853078,2065293,0
1710985862199,1710985853118,2050531,0
1710985862199,1710985853158,2031581,0
1710985862199,1710985853198,2009127,0
1710985862199,1710985853238,1990830,0
1710985862199,1710985853278,1976421,0
1710985862199,1710985853318,1965542,0
1710985862199,1710985853358,1957647,0
1710985862199,1710985853398,1948401,0
1710985862199,1710985853438,1937190,0
1710985862199,1710985853478,1925910,0
1710985862199,1710985853518,1915803,0
1710985862199,1710985853558,1906953,0
1710985862199,1710985853598,1899718,0
1710985862199,1710985853638,1893759,0
1710985862199,1710985853678,1888968,0
1710985862199,1710985853718,1884730,0
1710985862199,1710985853758,1880927,0
1710985862199,1710985853798,1877782,0
1710985862199,1710985853838,1874125,0
1710985862199,1710985853878,1863173,0
1710985862199,1710985853918,1846106,0
1710985862199,1710985853958,1827709,0
1710985862199,1710985853998,1811509,0
1710985862199,1710985854038,1799057,0
1710985862199,1710985854078,1789475,0
1710985862199,1710985854118,1783411,0
1710985862199,1710985854158,1778372,0
1710985862199,1710985854198,1773278,0
1710985862199,1710985854238,1767407,0
1710985862199,1710985854278,1761742,0
1710985862199,1710985854318,1757316,0
1710985862199,1710985854358,1754520,0
1710985862199,1710985854398,1752779,0
1710985862199,1710985854438,1751796,0
1710985862199,1710985854478,1751679,0
1710985862199,1710985854518,1752017,0
1710985862199,1710985854558,1752666,0
1710985862199,1710985854598,1750516,0
1710985862199,1710985854638,1739654,0
1710985862199,1710985854678,1725689,0
1710985862199,1710985854718,1713189,0
1710985862199,1710985854758,1704447,0
1710985862199,1710985854798,1698964,0
1710985862199,1710985854838,1696421,0
1710985862199,1710985854878,1695893,0
1710985862199,1710985854918,1695382,0
1710985862199,1710985854958,1693994,0
1710985862199,1710985854998,1692702,0
1710985862199,1710985855038,1692127,0
1710985862199,1710985855078,1693132,0
1710985862199,1710985855118,1695982,0
1710985862199,1710985855158,1699946,0
1710985862199,1710985855198,1705580,0
1710985862199,1710985855238,1713320,0
1710985862199,1710985855278,1721995,0
1710985862199,1710985855318,1729792,0
1710985862199,1710985855358,1728169,0
1710985862199,1710985855398,1718243,0
1710985862199,1710985855438,1706638,0
1710985862199,1710985855478,1698862,0
1710985862199,1710985855518,1694504,0
1710985862199,1710985855558,1693070,0
1710985862199,1710985855598,1694203,0
1710985862199,1710985855638,1696086,0
1710985862199,1710985855678,1697516,0
1710985862199,1710985855718,1698291,0
1710985862199,1710985855758,1699214,0
1710985862199,1710985855798,1701675,0
1710985862199,1710985855838,1706197,0
1710985862199,1710985855878,1711610,0
1710985862199,1710985855918,1717918,0
1710985862199,1710985855958,1725532,0
1710985862199,1710985855998,1734347,0
1710985862199,1710985856038,1743598,0
1710985862199,1710985856078,1750004,0
1710985862199,1710985856118,1747612,0
1710985862199,1710985856158,1741331,0
1710985862199,1710985856198,1736284,0
1710985862199,1710985856238,1734260,0
1710985862199,1710985856278,1734886,0
1710985862199,1710985856318,1737899,0
1710985862199,1710985856358,1741175,0
1710985862199,1710985856398,1743144,0
1710985862199,1710985856438,1743604,0
1710985862199,1710985856478,1743794,0
1710985862199,1710985856518,1744789,0
1710985862199,1710985856558,1746721,0
1710985862199,1710985856598,1749843,0
1710985862199,1710985856638,1753745,0
1710985862199,1710985856678,1758613,0
1710985862199,1710985856718,1763532,0
1710985862199,1710985856758,1767356,0
1710985862199,1710985856798,1770613,0
1710985862199,1710985856838,1768453,0
1710985862199,1710985856878,1762414,0
1710985862199,1710985856918,1756269,0
1710985862199,1710985856958,1753614,0
1710985862199,1710985856998,1753980,0
1710985862199,1710985857038,1756909,0
1710985862199,1710985857078,1761052,0
1710985862199,1710985857118,1764602,0
1710985862199,1710985857158,1767124,0
1710985862199,1710985857198,1768961,0
1710985862199,1710985857238,1771049,0
1710985862199,1710985857278,1773846,0
1710985862199,1710985857318,1777248,0
1710985862199,1710985857358,1781262,0
1710985862199,1710985857398,1785628,0
1710985862199,1710985857438,1790097,0
1710985862199,1710985857478,1794774,0
1710985862199,1710985857518,1799146,0
1710985862199,1710985857558,1798803,0
1710985862199,1710985857598,1792944,0
1710985862199,1710985857638,1786294,0
1710985862199,1710985857678,1782614,0
1710985862199,1710985857718,1782261,0
1710985862199,1710985857758,1783891,0
1710985862199,1710985857798,1787198,0
1710985862199,1710985857838,1790542,0
1710985862199,1710985857878,1792956,0
1710985862199,1710985857918,1794484,0
1710985862199,1710985857958,1795990,0
1710985862199,1710985857998,1798295,0
1710985862199,1710985858038,1801322,0
1710985862199,1710985858078,1804906,0
1710985862199,1710985858118,1808661,0
1710985862199,1710985858158,1812684,0
1710985862199,1710985858198,1816740,0
1710985862199,1710985858238,1821163,0
1710985862199,1710985858278,1824594,0
1710985862199,1710985858318,1822309,0
1710985862199,1710985858358,1816269,0
1710985862199,1710985858398,1810623,0
1710985862199,1710985858438,1808217,0
1710985862199,1710985858478,1808615,0
1710985862199,1710985858518,1810853,0
1710985862199,1710985858558,1814242,0
1710985862199,1710985858598,1816567,0
1710985862199,1710985858638,1818224,0
1710985862199,1710985858678,1820301,0
1710985862199,1710985858718,1822407,0
1710985862199,1710985858758,1825530,0
1710985862199,1710985858798,1829440,0
1710985862199,1710985858838,1833834,0
1710985862199,1710985858878,1838602,0
1710985862199,1710985858918,1843571,0
1710985862199,1710985858958,1848430,0
1710985862199,1710985858998,1853253,0
1710985862199,1710985859038,1857566,0
1710985862199,1710985859078,1856930,0
1710985862199,1710985859118,1852208,0
1710985862199,1710985859158,1846907,0
1710985862199,1710985859198,1844259,0
1710985862199,1710985859238,1844228,0
1710985862199,1710985859278,1846290,0
1710985862199,1710985859318,1849774,0
1710985862199,1710985859358,1853371,0
1710985862199,1710985859398,1856576,0
1710985862199,1710985859438,1859281,0
1710985862199,1710985859478,1862106,0
1710985862199,1710985859518,1865476,0
1710985862199,1710985859558,1869328,0
1710985862199,1710985859598,1873587,0
1710985862199,1710985859638,1878349,0
1710985862199,1710985859678,1883016,0
1710985862199,1710985859718,1887301,0
1710985862199,1710985859758,1891415,0
1710985862199,1710985859798,1895648,0
1710985862199,1710985859838,1896712,0
1710985862199,1710985859878,1893058,0
1710985862199,1710985859918,1887955,0
1710985862199,1710985859958,1884618,0
1710985862199,1710985859998,1882328,0
1710985862199,1710985860038,1881682,0
1710985862199,1710985860078,1882863,0
1710985862199,1710985860118,1883621,0
1710985862199,1710985860158,1884248,0
1710985862199,1710985860198,1884675,0
1710985862199,1710985860238,1885116,0
1710985862199,1710985860278,1886295,0
1710985862199,1710985860318,1887967,0
1710985862199,1710985860358,1890303,0
1710985862199,1710985860398,1892667,0
1710985862199,1710985860438,1894988,0
1710985862199,1710985860478,1896881,0
1710985862199,1710985860518,1898651,0
1710985862199,1710985860558,1900419,0
1710985862199,1710985860598,1900399,0
1710985862199,1710985860638,1894226,0
1710985862199,1710985860678,1885923,0
1710985862199,1710985860718,1878490,0
1710985862199,1710985860758,1874365,0
1710985862199,1710985860798,1872884,0
1710985862199,1710985860838,1873700,0
1710985862199,1710985860878,1874694,0
1710985862199,1710985860918,1874124,0
1710985862199,1710985860958,1873392,0
1710985862199,1710985860998,1872853,0
1710985862199,1710985861038,1873084,0
1710985862199,1710985861078,1874160,0
1710985862199,1710985861118,1875957,0
1710985862199,1710985861158,1878168,0
1710985862199,1710985861198,1880832,0
1710985862199,1710985861238,1883571,0
1710985862199,1710985861278,1886266,0
1710985862199,1710985861318,1889259,0
1710985862199,1710985861358,1892179,0
1710985862199,1710985861398,1892872,0
1710985862199,1710985861438,1887096,0
1710985862199,1710985861478,1879602,0
1710985862199,1710985861518,1873733,0
1710985862199,1710985861558,1871562,0
1710985862199,1710985861598,1871753,0
1710985862199,1710985861638,1874045,0
1710985862199,1710985861678,1875910,0
1710985862199,1710985861718,1875973,0
1710985862199,1710985861758,1875166,0
1710985862199,1710985861798,1874187,0
1710985862199,1710985861838,1873899,0
1710985862199,1710985861878,1874352,0
1710985862199,1710985861918,1875660,0
1710985862199,1710985861958,1877478,0
1710985862199,1710985861998,1880060,0
1710985862199,1710985862038,1882835,0
1710985862199,1710985862078,1885444,0
1710985862199,1710985862118,1888308,0
1710985874214,1710985862158,1891344,0
1710985874214,1710985862198,1891741,0
1710985874214,1710985862239,1886226,0
1710985874214,1710985862278,1879431,0
1710985874214,1710985862319,1874884,0
1710985874214,1710985862359,1873942,0
1710985874214,1710985862399,1875419,0
1710985874214,1710985862440,1878662,0
1710985874214,1710985862479,1881712,0
1710985874214,1710985862519,1883485,0
1710985874214,1710985862559,1883207,0
1710985874214,1710985862600,1882021,0
1710985874214,1710985862641,1880905,0
1710985874214,1710985862680,1880620,0
1710985874214,1710985862720,1881128,0
1710985874214,1710985862760,1882179,0
1710985874214,1710985862800,1883690,0
1710985874214,1710985862841,1885230,0
1710985874214,1710985862881,1887255,0
1710985874214,1710985862921,1889599,0
1710985874214,1710985862961,1890763,0
1710985874214,1710985863001,1877317,0
1710985874214,1710985863042,1869512,0
1710985874214,1710985863081,1864792,0
1710985874214,1710985863121,1863136,0
1710985874214,1710985863161,1864110,0
1710985874214,1710985863201,1865971,0
1710985874214,1710985863242,1867453,0
1710985874214,1710985863281,1867746,0
1710985874214,1710985863322,1867577,0
1710985874214,1710985863362,1867384,0
1710985874214,1710985863402,1867514,0
1710985874214,1710985863443,1868120,0
1710985874214,1710985863482,1869239,0
1710985874214,1710985863522,1871328,0
1710985874214,1710985863562,1873672,0
1710985874214,1710985863602,1876358,0
1710985874214,1710985863643,1879312,0
1710985874214,1710985863683,1879487,0
1710985874214,1710985863723,1872873,0
1710985874214,1710985863763,1864713,0
1710985874214,1710985863803,1858491,0
1710985874214,1710985863844,1855627,0
1710985874214,1710985863883,1855342,0
1710985874214,1710985863923,1857062,0
1710985874214,1710985863963,1858659,0
1710985874214,1710985864003,1859377,0
1710985874214,1710985864044,1858846,0
1710985874214,1710985864084,1858288,0
1710985874214,1710985864124,1858496,0
1710985874214,1710985864164,1859420,0
1710985874214,1710985864204,1861138,0
1710985874214,1710985864245,1863327,0
1710985874214,1710985864284,1865839,0
1710985874214,1710985864324,1868556,0
1710985874214,1710985864364,1871505,0
1710985874214,1710985864404,1874277,0
1710985874214,1710985864445,1872532,0
1710985874214,1710985864485,1864658,0
1710985874214,1710985864525,1855940,0
1710985874214,1710985864565,1849828,0
1710985874214,1710985864605,1846527,0
1710985874214,1710985864646,1845510,0
1710985874214,1710985864685,1846374,0
1710985874214,1710985864725,1846794,0
1710985874214,1710985864765,1846354,0
1710985874214,1710985864806,1845334,0
1710985874214,1710985864847,1844380,0
1710985874214,1710985864886,1844259,0
1710985874214,1710985864926,1845194,0
1710985874214,1710985864966,1846700,0
1710985874214,1710985865006,1848758,0
1710985874214,1710985865047,1851143,0
1710985874214,1710985865086,1853991,0
1710985874214,1710985865127,1856994,0
1710985874214,1710985865167,1860156,0
1710985874214,1710985865207,1861004,0
1710985874214,1710985865248,1855525,0
1710985874214,1710985865287,1848977,0
1710985874214,1710985865327,1844622,0
1710985874214,1710985865367,1843078,0
1710985874214,1710985865408,1843934,0
1710985874214,1710985865448,1846464,0
1710985874214,1710985865488,1848978,0
1710985874214,1710985865528,1850783,0
1710985874214,1710985865568,1851721,0
1710985874214,1710985865608,1852744,0
1710985874214,1710985865649,1854255,0
1710985874214,1710985865688,1856661,0
1710985874214,1710985865729,1859448,0
1710985874214,1710985865769,1862707,0
1710985874214,1710985865809,1866299,0
1710985874214,1710985865850,1870119,0
1710985874214,1710985865889,1873795,0
1710985874214,1710985865929,1877726,0
1710985874214,1710985865969,1881191,0
1710985874214,1710985866010,1880131,0
1710985874214,1710985866050,1876456,0
1710985874214,1710985866090,1873178,0
1710985874214,1710985866130,1871900,0
1710985874214,1710985866170,1872541,0
1710985874214,1710985866210,1874792,0
1710985874214,1710985866251,1877519,0
1710985874214,1710985866290,1879744,0
1710985874214,1710985866330,1881214,0
1710985874214,1710985866371,1882454,0
1710985874214,1710985866411,1883906,0
1710985874214,1710985866452,1885980,0
1710985874214,1710985866491,1888454,0
1710985874214,1710985866531,1891270,0
1710985874214,1710985866571,1894394,0
1710985874214,1710985866611,1897728,0
1710985874214,1710985866652,1901118,0
1710985874214,1710985866692,1904641,0
1710985874214,1710985866732,1907751,0
1710985874214,1710985866772,1907043,0
1710985874214,1710985866812,1903813,0
1710985874214,1710985866853,1901005,0
1710985874214,1710985866892,1900107,0
1710985874214,1710985866932,1900960,0
1710985874214,1710985866973,1903058,0
1710985874214,1710985867013,1905719,0
1710985874214,1710985867054,1907746,0
1710985874214,1710985867093,1908987,0
1710985874214,1710985867133,1909962,0
1710985874214,1710985867173,1911066,0
1710985874214,1710985867214,1913077,0
1710985874214,1710985867254,1915379,0
1710985874214,1710985867294,1917778,0
1710985874214,1710985867334,1920644,0
1710985874214,1710985867374,1923556,0
1710985874214,1710985867414,1926391,0
1710985874214,1710985867455,1929341,0
1710985874214,1710985867494,1932276,0
1710985874214,1710985867534,1932469,0
1710985874214,1710985867575,1928853,0
1710985874214,1710985867615,1924917,0
1710985874214,1710985867656,1922901,0
1710985874214,1710985867695,1922720,0
1710985874214,1710985867735,1923845,0
1710985874214,1710985867775,1925670,0
1710985874214,1710985867816,1927440,0
1710985874214,1710985867856,1928296,0
1710985874214,1710985867896,1928603,0
1710985874214,1710985867936,1929179,0
1710985874214,1710985867976,1930346,0
1710985874214,1710985868016,1931947,0
1710985874214,1710985868057,1934102,0
1710985874214,1710985868097,1936376,0
1710985874214,1710985868137,1938753,0
1710985874214,1710985868177,1941204,0
1710985874214,1710985868217,1943776,0
1710985874214,1710985868258,1946231,0
1710985874214,1710985868297,1948661,0
1710985874214,1710985868337,1950566,0
1710985874214,1710985868378,1948164,0
1710985874214,1710985868418,1943754,0
1710985874214,1710985868458,1940145,0
1710985874214,1710985868498,1938558,0
1710985874214,1710985868538,1938563,0
1710985874214,1710985868578,1939762,0
1710985874214,1710985868618,1941110,0
1710985874214,1710985868659,1941909,0
1710985874214,1710985868699,1941833,0
1710985874214,1710985868739,1941691,0
1710985874214,1710985868779,1941857,0
1710985874214,1710985868819,1942754,0
1710985874214,1710985868860,1944053,0
1710985874214,1710985868900,1945812,0
1710985874214,1710985868939,1947691,0
1710985874214,1710985868980,1949602,0
1710985874214,1710985869020,1951646,0
1710985874214,1710985869060,1953557,0
1710985874214,1710985869100,1955555,0
1710985874214,1710985869140,1957598,0
1710985874214,1710985869180,1958321,0
1710985874214,1710985869220,1954290,0
1710985874214,1710985869261,1948818,0
1710985874214,1710985869300,1944380,0
1710985874214,1710985869340,1942332,0
1710985874214,1710985869381,1941721,0
1710985874214,1710985869421,1942328,0
1710985874214,1710985869461,1942954,0
1710985874214,1710985869501,1942939,0
1710985874214,1710985869541,1941804,0
1710985874214,1710985869581,1940748,0
1710985874214,1710985869621,1940451,0
1710985874214,1710985869662,1940769,0
1710985874214,1710985869701,1941595,0
1710985874214,1710985869741,1942738,0
1710985874214,1710985869781,1944257,0
1710985874214,1710985869822,1945896,0
1710985874214,1710985869863,1947386,0
1710985874214,1710985869902,1948988,0
1710985874214,1710985869942,1950531,0
1710985874214,1710985869982,1952230,0
1710985874214,1710985870022,1952786,0
1710985874214,1710985870063,1948045,0
1710985874214,1710985870102,1941576,0
1710985874214,1710985870142,1935924,0
1710985874214,1710985870182,1933048,0
1710985874214,1710985870223,1931745,0
1710985874214,1710985870263,1932053,0
1710985874214,1710985870303,1932471,0
1710985874214,1710985870343,1932020,0
1710985874214,1710985870383,1930604,0
1710985874214,1710985870423,1929045,0
1710985874214,1710985870464,1928345,0
1710985874214,1710985870503,1928293,0
1710985874214,1710985870543,1928975,0
1710985874214,1710985870584,1929972,0
1710985874214,1710985870624,1931219,0
1710985874214,1710985870665,1932724,0
1710985874214,1710985870704,1934165,0
1710985874214,1710985870744,1935747,0
1710985874214,1710985870784,1937176,0
1710985874214,1710985870824,1938831,0
1710985874214,1710985870865,1939644,0
1710985874214,1710985870905,1935042,0
1710985874214,1710985870945,1928152,0
1710985874214,1710985870985,1922237,0
1710985874214,1710985871025,1919179,0
1710985874214,1710985871066,1918230,0
1710985874214,1710985871105,1918751,0
1710985874214,1710985871145,1919999,0
1710985874214,1710985871186,1920429,0
1710985874214,1710985871225,1919734,0
1710985874214,1710985871266,1918706,0
1710985874214,1710985871306,1918190,0
1710985874214,1710985871346,1918579,0
1710985874214,1710985871386,1919830,0
1710985874214,1710985871426,1921517,0
1710985874214,1710985871467,1923497,0
1710985874214,1710985871506,1925422,0
1710985874214,1710985871547,1927758,0
1710985874214,1710985871587,1929923,0
1710985874214,1710985871627,1932162,0
1710985874214,1710985871668,1934484,0
1710985874214,1710985871707,1937057,0
1710985874214,1710985871747,1938030,0
1710985874214,1710985871787,1933084,0
1710985874214,1710985871827,1926339,0
1710985874214,1710985871868,1920957,0
1710985874214,1710985871908,1918388,0
1710985874214,1710985871948,1917663,0
1710985874214,1710985871988,1918367,0
1710985874214,1710985872028,1919512,0
1710985874214,1710985872069,1920011,0
1710985874214,1710985872108,1919655,0
1710985874214,1710985872149,1918688,0
1710985874214,1710985872189,1918351,0
1710985874214,1710985872229,1918386,0
1710985874214,1710985872270,1918849,0
1710985874214,1710985872309,1919596,0
1710985874214,1710985872349,1920351,0
1710985874214,1710985872390,1921330,0
1710985874214,1710985872430,1922640,0
1710985874214,1710985872471,1924123,0
1710985874214,1710985872510,1925960,0
1710985874214,1710985872550,1927736,0
1710985874214,1710985872590,1930043,0
1710985874214,1710985872631,1932158,0
1710985874214,1710985872671,1929709,0
1710985874214,1710985872711,1923792,0
1710985874214,1710985872751,1918288,0
1710985874214,1710985872791,1915415,0
1710985874214,1710985872831,1914579,0
1710985874214,1710985872872,1915126,0
1710985874214,1710985872911,1916564,0
1710985874214,1710985872952,1917408,0
1710985874214,1710985872992,1917655,0
1710985874214,1710985873032,1917659,0
1710985874214,1710985873073,1918039,0
1710985874214,1710985873112,1919075,0
1710985874214,1710985873152,1920856,0
1710985874214,1710985873192,1923402,0
1710985874214,1710985873233,1926144,0
1710985874214,1710985873273,1928769,0
1710985874214,1710985873313,1930984,0
1710985874214,1710985873353,1932817,0
1710985874214,1710985873393,1934459,0
1710985874214,1710985873433,1936156,0
1710985874214,1710985873474,1937714,0
1710985874214,1710985873514,1939571,0
1710985874214,1710985873554,1941307,0
1710985874214,1710985873594,1939564,0
1710985874214,1710985873634,1934339,0
1710985874214,1710985873675,1928985,0
1710985874214,1710985873715,1926076,0
1710985874214,1710985873755,1925477,0
1710985874214,1710985873795,1926446,0
1710985874214,1710985873835,1928625,0
1710985874214,1710985873876,1930767,0
1710985874214,1710985873915,1932271,0
1710985874214,1710985873956,1933389,0
1710985874214,1710985873996,1934749,0
1710985874214,1710985874036,1936713,0
1710985874214,1710985874077,1939161,0
1710985874214,1710985874116,1942177,0
1710985874214,1710985874156,1945102,0
1710985886285,1710985874200,1948150,0
1710985886285,1710985874240,1951166,0
1710985886285,1710985874280,1954256,0
1710985886285,1710985874320,1957340,0
1710985886285,1710985874360,1960084,0
1710985886285,1710985874400,1963035,0
1710985886285,1710985874441,1965988,0
1710985886285,1710985874481,1967456,0
1710985886285,1710985874521,1961599,0
1710985886285,1710985874561,1959591,0
1710985886285,1710985874601,1959436,0
1710985886285,1710985874641,1960431,0
1710985886285,1710985874682,1962500,0
1710985886285,1710985874721,1963820,0
1710985886285,1710985874761,1963387,0
1710985886285,1710985874802,1961816,0
1710985886285,1710985874841,1960270,0
1710985886285,1710985874882,1959808,0
1710985886285,1710985874922,1960461,0
1710985886285,1710985874962,1961626,0
1710985886285,1710985875002,1963381,0
1710985886285,1710985875042,1965992,0
1710985886285,1710985875083,1968953,0
1710985886285,1710985875122,1972103,0
1710985886285,1710985875162,1974820,0
1710985886285,1710985875202,1977363,0
1710985886285,1710985875243,1979835,0
1710985886285,1710985875284,1982061,0
1710985886285,1710985875323,1980107,0
1710985886285,1710985875363,1975947,0
1710985886285,1710985875403,1972153,0
1710985886285,1710985875443,1970257,0
1710985886285,1710985875484,1969987,0
1710985886285,1710985875523,1970631,0
1710985886285,1710985875563,1971651,0
1710985886285,1710985875604,1971645,0
1710985886285,1710985875644,1970564,0
1710985886285,1710985875685,1969129,0
1710985886285,1710985875724,1968050,0
1710985886285,1710985875764,1967610,0
1710985886285,1710985875804,1967740,0
1710985886285,1710985875844,1968367,0
1710985886285,1710985875885,1969212,0
1710985886285,1710985875925,1970226,0
1710985886285,1710985875965,1971168,0
1710985886285,1710985876005,1971992,0
1710985886285,1710985876045,1973010,0
1710985886285,1710985876086,1974140,0
1710985886285,1710985876125,1975356,0
1710985886285,1710985876165,1972907,0
1710985886285,1710985876205,1966942,0
1710985886285,1710985876246,1960704,0
1710985886285,1710985876286,1956155,0
1710985886285,1710985876326,1953709,0
1710985886285,1710985876366,1952662,0
1710985886285,1710985876406,1952573,0
1710985886285,1710985876446,1952123,0
1710985886285,1710985876487,1950799,0
1710985886285,1710985876526,1948920,0
1710985886285,1710985876566,1947448,0
1710985886285,1710985876607,1946940,0
1710985886285,1710985876647,1946974,0
1710985886285,1710985876687,1947754,0
1710985886285,1710985876727,1948789,0
1710985886285,1710985876767,1950171,0
1710985886285,1710985876807,1951495,0
1710985886285,1710985876847,1952922,0
1710985886285,1710985876888,1954392,0
1710985886285,1710985876927,1956053,0
1710985886285,1710985876968,1957433,0
1710985886285,1710985877008,1954783,0
1710985886285,1710985877048,1948474,0
1710985886285,1710985877089,1941834,0
1710985886285,1710985877128,1937641,0
1710985886285,1710985877168,1935479,0
1710985886285,1710985877209,1934822,0
1710985886285,1710985877249,1935201,0
1710985886285,1710985877289,1935062,0
1710985886285,1710985877329,1933899,0
1710985886285,1710985877369,1932274,0
1710985886285,1710985877409,1930800,0
1710985886285,1710985877449,1930506,0
1710985886285,1710985877490,1930799,0
1710985886285,1710985877530,1931648,0
1710985886285,1710985877570,1932774,0
1710985886285,1710985877610,1934172,0
1710985886285,1710985877650,1935776,0
1710985886285,1710985877691,1937210,0
1710985886285,1710985877730,1938821,0
1710985886285,1710985877770,1940551,0
1710985886285,1710985877811,1940050,0
1710985886285,1710985877851,1934445,0
1710985886285,1710985877891,1928017,0
1710985886285,1710985877931,1923207,0
1710985886285,1710985877971,1920853,0
1710985886285,1710985878011,1920238,0
1710985886285,1710985878052,1920948,0
1710985886285,1710985878092,1921368,0
1710985886285,1710985878132,1920869,0
1710985886285,1710985878172,1919670,0
1710985886285,1710985878212,1918766,0
1710985886285,1710985878252,1918555,0
1710985886285,1710985878293,1919157,0
1710985886285,1710985878332,1920537,0
1710985886285,1710985878373,1922935,0
1710985886285,1710985878413,1926287,0
1710985886285,1710985878453,1929912,0
1710985886285,1710985878494,1933117,0
1710985886285,1710985878533,1936159,0
1710985886285,1710985878573,1938487,0
1710985886285,1710985878613,1935945,0
1710985886285,1710985878654,1930354,0
1710985886285,1710985878694,1924978,0
1710985886285,1710985878734,1922001,0
1710985886285,1710985878774,1921351,0
1710985886285,1710985878814,1921998,0
1710985886285,1710985878854,1923649,0
1710985886285,1710985878895,1924551,0
1710985886285,1710985878935,1924767,0
1710985886285,1710985878975,1924272,0
1710985886285,1710985879015,1924077,0
1710985886285,1710985879055,1924641,0
1710985886285,1710985879096,1925725,0
1710985886285,1710985879136,1927421,0
1710985886285,1710985879175,1929618,0
1710985886285,1710985879216,1932008,0
1710985886285,1710985879256,1934459,0
1710985886285,1710985879297,1936905,0
1710985886285,1710985879336,1939541,0
1710985886285,1710985879376,1940272,0
1710985886285,1710985879416,1935602,0
1710985886285,1710985879457,1929681,0
1710985886285,1710985879498,1925342,0
1710985886285,1710985879537,1923245,0
1710985886285,1710985879577,1922781,0
1710985886285,1710985879617,1923536,0
1710985886285,1710985879657,1924184,0
1710985886285,1710985879698,1924199,0
1710985886285,1710985879738,1923485,0
1710985886285,1710985879778,1922971,0
1710985886285,1710985879818,1922909,0
1710985886285,1710985879858,1923834,0
1710985886285,1710985879899,1925306,0
1710985886285,1710985879938,1927181,0
1710985886285,1710985879979,1929338,0
1710985886285,1710985880019,1931548,0
1710985886285,1710985880059,1933794,0
1710985886285,1710985880100,1936157,0
1710985886285,1710985880139,1938506,0
1710985886285,1710985880179,1937988,0
1710985886285,1710985880220,1933600,0
1710985886285,1710985880259,1929168,0
1710985886285,1710985880300,1926629,0
1710985886285,1710985880340,1926027,0
1710985886285,1710985880380,1926620,0
1710985886285,1710985880420,1928180,0
1710985886285,1710985880460,1929401,0
1710985886285,1710985880501,1929943,0
1710985886285,1710985880540,1929922,0
1710985886285,1710985880580,1930324,0
1710985886285,1710985880620,1931291,0
1710985886285,1710985880660,1932958,0
1710985886285,1710985880701,1934960,0
1710985886285,1710985880741,1937401,0
1710985886285,1710985880781,1940046,0
1710985886285,1710985880821,1942520,0
1710985886285,1710985880861,1945369,0
1710985886285,1710985880902,1947962,0
1710985886285,1710985880942,1947580,0
1710985886285,1710985880981,1944132,0
1710985886285,1710985881022,1941009,0
1710985886285,1710985881062,1939691,0
1710985886285,1710985881102,1940050,0
1710985886285,1710985881142,1941599,0
1710985886285,1710985881182,1944325,0
1710985886285,1710985881222,1946745,0
1710985886285,1710985881262,1948357,0
1710985886285,1710985881303,1949757,0
1710985886285,1710985881342,1951332,0
1710985886285,1710985881383,1953452,0
1710985886285,1710985881423,1956174,0
1710985886285,1710985881463,1959176,0
1710985886285,1710985881504,1962381,0
1710985886285,1710985881543,1965745,0
1710985886285,1710985881583,1969249,0
1710985886285,1710985881623,1972827,0
1710985886285,1710985881664,1975461,0
1710985886285,1710985881704,1974258,0
1710985886285,1710985881744,1971649,0
1710985886285,1710985881784,1970165,0
1710985886285,1710985881824,1970526,0
1710985886285,1710985881864,1971859,0
1710985886285,1710985881905,1974195,0
1710985886285,1710985881944,1976435,0
1710985886285,1710985881984,1978276,0
1710985886285,1710985882025,1979482,0
1710985886285,1710985882065,1980551,0
1710985886285,1710985882105,1982068,0
1710985886285,1710985882145,1984040,0
1710985886285,1710985882185,1986411,0
1710985886285,1710985882225,1989080,0
1710985886285,1710985882265,1991867,0
1710985886285,1710985882306,1994557,0
1710985886285,1710985882345,1997443,0
1710985886285,1710985882386,2000390,0
1710985886285,1710985882426,2002264,0
1710985886285,1710985882466,2000057,0
1710985886285,1710985882507,1997034,0
1710985886285,1710985882546,1994999,0
1710985886285,1710985882586,1994893,0
1710985886285,1710985882627,1995846,0
1710985886285,1710985882667,1997854,0
1710985886285,1710985882707,1999828,0
1710985886285,1710985882747,2001251,0
1710985886285,1710985882787,2002162,0
1710985886285,1710985882827,2003000,0
1710985886285,1710985882867,2004195,0
1710985886285,1710985882908,2005922,0
1710985886285,1710985882948,2007812,0
1710985886285,1710985882988,2009804,0
1710985886285,1710985883028,2012040,0
1710985886285,1710985883068,2014044,0
1710985886285,1710985883109,2016397,0
1710985886285,1710985883148,2018651,0
1710985886285,1710985883189,2019811,0
1710985886285,1710985883229,2017274,0
1710985886285,1710985883269,2013740,0
1710985886285,1710985883310,2011167,0
1710985886285,1710985883349,2009941,0
1710985886285,1710985883389,2009796,0
1710985886285,1710985883429,2010950,0
1710985886285,1710985883470,2012169,0
1710985886285,1710985883510,2013669,0
1710985886285,1710985883550,2014949,0
1710985886285,1710985883590,2016459,0
1710985886285,1710985883630,2018372,0
1710985886285,1710985883670,2020850,0
1710985886285,1710985883711,2023858,0
1710985886285,1710985883751,2027003,0
1710985886285,1710985883791,2029888,0
1710985886285,1710985883831,2032458,0
1710985886285,1710985883871,2035111,0
1710985886285,1710985883912,2037346,0
1710985886285,1710985883952,2038321,0
1710985886285,1710985883992,2034635,0
1710985886285,1710985884032,2030680,0
1710985886285,1710985884072,2027754,0
1710985886285,1710985884113,2026200,0
1710985886285,1710985884152,2025618,0
1710985886285,1710985884193,2025837,0
1710985886285,1710985884233,2025763,0
1710985886285,1710985884273,2025281,0
1710985886285,1710985884314,2024629,0
1710985886285,1710985884353,2024418,0
1710985886285,1710985884393,2025020,0
1710985886285,1710985884434,2026559,0
1710985886285,1710985884473,2028848,0
1710985886285,1710985884514,2031483,0
1710985886285,1710985884554,2034832,0
1710985886285,1710985884594,2038020,0
1710985886285,1710985884634,2041075,0
1710985886285,1710985884674,2041596,0
1710985886285,1710985884715,2038209,0
1710985886285,1710985884755,2033828,0
1710985886285,1710985884795,2030680,0
1710985886285,1710985884835,2029286,0
1710985886285,1710985884875,2029012,0
1710985886285,1710985884916,2029318,0
1710985886285,1710985884955,2029171,0
1710985886285,1710985884996,2028073,0
1710985886285,1710985885036,2026720,0
1710985886285,1710985885076,2025751,0
1710985886285,1710985885117,2025368,0
1710985886285,1710985885156,2025460,0
1710985886285,1710985885196,2025970,0
1710985886285,1710985885237,2026673,0
1710985886285,1710985885277,2027791,0
1710985886285,1710985885318,2029208,0
1710985886285,1710985885357,2029168,0
1710985886285,1710985885397,2023863,0
1710985886285,1710985885437,2016431,0
1710985886285,1710985885478,2006603,0
1710985886285,1710985885518,2004911,0
1710985886285,1710985885558,2004781,0
1710985886285,1710985885598,2004551,0
1710985886285,1710985885638,2003975,0
1710985886285,1710985885678,2002657,0
1710985886285,1710985885719,2001403,0
1710985886285,1710985885758,2000751,0
1710985886285,1710985885798,2000732,0
1710985886285,1710985885838,2001198,0
1710985886285,1710985885879,2002220,0
1710985886285,1710985885919,2003292,0
1710985886285,1710985885959,2004389,0
1710985886285,1710985885999,2005550,0
1710985886285,1710985886039,2002613,0
1710985886285,1710985886079,1994992,0
1710985886285,1710985886120,1987098,0
1710985886285,1710985886159,1981708,0
1710985886285,1710985886199,1978801,0
1710985898332,1710985886237,1977340,0
1710985898332,1710985886277,1976670,0
1710985898332,1710985886317,1975251,0
1710985898332,1710985886357,1973130,0
1710985898332,1710985886397,1970707,0
1710985898332,1710985886437,1968790,0
1710985898332,1710985886477,1967806,0
1710985898332,1710985886518,1967477,0
1710985898332,1710985886557,1967794,0
1710985898332,1710985886598,1968333,0
1710985898332,1710985886638,1969292,0
1710985898332,1710985886678,1970306,0
1710985898332,1710985886719,1971225,0
1710985898332,1710985886758,1967717,0
1710985898332,1710985886798,1960069,0
1710985898332,1710985886838,1953221,0
1710985898332,1710985886878,1948893,0
1710985898332,1710985886919,1946969,0
1710985898332,1710985886959,1946688,0
1710985898332,1710985886999,1947155,0
1710985898332,1710985887039,1946959,0
1710985898332,1710985887079,1945848,0
1710985898332,1710985887120,1944593,0
1710985898332,1710985887159,1944098,0
1710985898332,1710985887199,1944395,0
1710985898332,1710985887239,1945400,0
1710985898332,1710985887280,1946798,0
1710985898332,1710985887321,1948420,0
1710985898332,1710985887360,1950302,0
1710985898332,1710985887400,1952224,0
1710985898332,1710985887440,1954328,0
1710985898332,1710985887480,1954432,0
1710985898332,1710985887521,1949799,0
1710985898332,1710985887561,1944387,0
1710985898332,1710985887600,1940522,0
1710985898332,1710985887641,1939232,0
1710985898332,1710985887681,1939387,0
1710985898332,1710985887722,1940760,0
1710985898332,1710985887761,1941634,0
1710985898332,1710985887801,1941680,0
1710985898332,1710985887841,1941400,0
1710985898332,1710985887881,1941513,0
1710985898332,1710985887922,1942300,0
1710985898332,1710985887962,1943493,0
1710985898332,1710985888002,1945383,0
1710985898332,1710985888042,1947425,0
1710985898332,1710985888082,1949700,0
1710985898332,1710985888123,1952070,0
1710985898332,1710985888162,1954511,0
1710985898332,1710985888202,1956827,0
1710985898332,1710985888243,1957287,0
1710985898332,1710985888283,1953947,0
1710985898332,1710985888324,1949954,0
1710985898332,1710985888363,1947589,0
1710985898332,1710985888403,1947335,0
1710985898332,1710985888443,1948505,0
1710985898332,1710985888483,1950459,0
1710985898332,1710985888524,1951929,0
1710985898332,1710985888564,1952646,0
1710985898332,1710985888604,1953011,0
1710985898332,1710985888644,1953857,0
1710985898332,1710985888684,1955229,0
1710985898332,1710985888725,1957241,0
1710985898332,1710985888764,1959603,0
1710985898332,1710985888804,1962169,0
1710985898332,1710985888845,1964792,0
1710985898332,1710985888885,1967520,0
1710985898332,1710985888926,1970108,0
1710985898332,1710985888965,1972963,0
1710985898332,1710985889005,1975654,0
1710985898332,1710985889045,1976612,0
1710985898332,1710985889086,1974185,0
1710985898332,1710985889126,1971034,0
1710985898332,1710985889166,1969590,0
1710985898332,1710985889206,1969805,0
1710985898332,1710985889246,1970800,0
1710985898332,1710985889286,1972760,0
1710985898332,1710985889327,1974357,0
1710985898332,1710985889367,1975478,0
1710985898332,1710985889407,1976163,0
1710985898332,1710985889447,1976931,0
1710985898332,1710985889487,1978470,0
1710985898332,1710985889528,1980374,0
1710985898332,1710985889567,1982631,0
1710985898332,1710985889608,1985055,0
1710985898332,1710985889648,1987670,0
1710985898332,1710985889688,1990198,0
1710985898332,1710985889729,1992817,0
1710985898332,1710985889768,1995482,0
1710985898332,1710985889808,1998282,0
1710985898332,1710985889849,2001157,0
1710985898332,1710985889889,2002603,0
1710985898332,1710985889930,2000986,0
1710985898332,1710985889969,1999018,0
1710985898332,1710985890009,1998268,0
1710985898332,1710985890049,1999142,0
1710985898332,1710985890090,2000927,0
1710985898332,1710985890130,2003530,0
1710985898332,1710985890170,2005610,0
1710985898332,1710985890210,2007410,0
1710985898332,1710985890250,2008932,0
1710985898332,1710985890290,2010321,0
1710985898332,1710985890331,2012207,0
1710985898332,1710985890371,2014642,0
1710985898332,1710985890411,2017211,0
1710985898332,1710985890451,2020035,0
1710985898332,1710985890491,2022978,0
1710985898332,1710985890532,2025918,0
1710985898332,1710985890572,2028821,0
1710985898332,1710985890612,2031601,0
1710985898332,1710985890652,2034492,0
1710985898332,1710985890692,2037335,0
1710985898332,1710985890733,2039225,0
1710985898332,1710985890772,2038468,0
1710985898332,1710985890813,2037074,0
1710985898332,1710985890853,2036359,0
1710985898332,1710985890893,2037301,0
1710985898332,1710985890934,2038852,0
1710985898332,1710985890973,2041259,0
1710985898332,1710985891013,2043395,0
1710985898332,1710985891054,2045005,0
1710985898332,1710985891093,2046061,0
1710985898332,1710985891134,2047168,0
1710985898332,1710985891174,2048754,0
1710985898332,1710985891214,2050648,0
1710985898332,1710985891254,2052792,0
1710985898332,1710985891294,2055109,0
1710985898332,1710985891335,2057589,0
1710985898332,1710985891374,2060029,0
1710985898332,1710985891415,2062389,0
1710985898332,1710985891454,2064989,0
1710985898332,1710985891495,2067243,0
1710985898332,1710985891535,2069210,0
1710985898332,1710985891575,2067729,0
1710985898332,1710985891615,2064602,0
1710985898332,1710985891655,2061386,0
1710985898332,1710985891695,2059436,0
1710985898332,1710985891736,2058837,0
1710985898332,1710985891776,2058964,0
1710985898332,1710985891815,2059842,0
1710985898332,1710985891856,2060218,0
1710985898332,1710985891896,2059792,0
1710985898332,1710985891937,2058875,0
1710985898332,1710985891976,2058359,0
1710985898332,1710985892016,2058168,0
1710985898332,1710985892056,2058717,0
1710985898332,1710985892096,2059952,0
1710985898332,1710985892137,2061362,0
1710985898332,1710985892177,2062434,0
1710985898332,1710985892217,2063357,0
1710985898332,1710985892257,2063840,0
1710985898332,1710985892297,2064639,0
1710985898332,1710985892338,2065843,0
1710985898332,1710985892377,2064904,0
1710985898332,1710985892417,2059774,0
1710985898332,1710985892457,2054022,0
1710985898332,1710985892498,2050175,0
1710985898332,1710985892538,2049099,0
1710985898332,1710985892578,2049534,0
1710985898332,1710985892618,2050864,0
1710985898332,1710985892658,2051420,0
1710985898332,1710985892698,2050867,0
1710985898332,1710985892739,2049213,0
1710985898332,1710985892778,2047631,0
1710985898332,1710985892818,2046581,0
1710985898332,1710985892859,2046742,0
1710985898332,1710985892899,2047138,0
1710985898332,1710985892940,2047956,0
1710985898332,1710985892979,2049155,0
1710985898332,1710985893019,2050220,0
1710985898332,1710985893059,2051337,0
1710985898332,1710985893099,2052704,0
1710985898332,1710985893140,2054030,0
1710985898332,1710985893180,2052796,0
1710985898332,1710985893220,2046895,0
1710985898332,1710985893260,2039910,0
1710985898332,1710985893300,2034928,0
1710985898332,1710985893341,2032408,0
1710985898332,1710985893380,2031699,0
1710985898332,1710985893420,2032199,0
1710985898332,1710985893461,2032025,0
1710985898332,1710985893501,2030915,0
1710985898332,1710985893541,2028776,0
1710985898332,1710985893581,2026910,0
1710985898332,1710985893621,2025725,0
1710985898332,1710985893661,2025270,0
1710985898332,1710985893701,2025368,0
1710985898332,1710985893742,2025822,0
1710985898332,1710985893781,2026610,0
1710985898332,1710985893822,2027509,0
1710985898332,1710985893862,2028418,0
1710985898332,1710985893902,2029624,0
1710985898332,1710985893943,2030585,0
1710985898332,1710985893982,2026930,0
1710985898332,1710985894022,2019832,0
1710985898332,1710985894063,2012733,0
1710985898332,1710985894103,2008279,0
1710985898332,1710985894143,2006399,0
1710985898332,1710985894183,2006107,0
1710985898332,1710985894223,2006635,0
1710985898332,1710985894263,2006536,0
1710985898332,1710985894303,2005106,0
1710985898332,1710985894344,2003387,0
1710985898332,1710985894383,2002314,0
1710985898332,1710985894424,2002102,0
1710985898332,1710985894464,2002719,0
1710985898332,1710985894504,2003727,0
1710985898332,1710985894545,2005045,0
1710985898332,1710985894584,2006576,0
1710985898332,1710985894624,2008448,0
1710985898332,1710985894665,2010367,0
1710985898332,1710985894705,2010189,0
1710985898332,1710985894745,2004651,0
1710985898332,1710985894785,1998174,0
1710985898332,1710985894825,1993251,0
1710985898332,1710985894865,1991071,0
1710985898332,1710985894905,1990733,0
1710985898332,1710985894946,1991823,0
1710985898332,1710985894985,1992809,0
1710985898332,1710985895026,1992914,0
1710985898332,1710985895066,1991960,0
1710985898332,1710985895106,1991248,0
1710985898332,1710985895147,1990990,0
1710985898332,1710985895186,1991358,0
1710985898332,1710985895226,1992480,0
1710985898332,1710985895267,1993781,0
1710985898332,1710985895307,1995535,0
1710985898332,1710985895348,1997330,0
1710985898332,1710985895387,1999376,0
1710985898332,1710985895427,2000379,0
1710985898332,1710985895467,1995866,0
1710985898332,1710985895508,1989588,0
1710985898332,1710985895548,1984345,0
1710985898332,1710985895588,1981973,0
1710985898332,1710985895628,1981399,0
1710985898332,1710985895668,1982234,0
1710985898332,1710985895708,1983332,0
1710985898332,1710985895749,1983650,0
1710985898332,1710985895788,1983156,0
1710985898332,1710985895829,1982454,0
1710985898332,1710985895869,1982338,0
1710985898332,1710985895909,1982875,0
1710985898332,1710985895950,1984024,0
1710985898332,1710985895989,1985498,0
1710985898332,1710985896029,1987247,0
1710985898332,1710985896070,1989242,0
1710985898332,1710985896110,1991262,0
1710985898332,1710985896151,1993063,0
1710985898332,1710985896190,1991410,0
1710985898332,1710985896230,1986323,0
1710985898332,1710985896271,1981368,0
1710985898332,1710985896311,1978595,0
1710985898332,1710985896352,1978146,0
1710985898332,1710985896391,1979018,0
1710985898332,1710985896431,1980610,0
1710985898332,1710985896471,1981853,0
1710985898332,1710985896511,1982000,0
1710985898332,1710985896552,1982086,0
1710985898332,1710985896592,1982760,0
1710985898332,1710985896632,1983981,0
1710985898332,1710985896672,1985375,0
1710985898332,1710985896712,1987033,0
1710985898332,1710985896753,1989179,0
1710985898332,1710985896792,1991418,0
1710985898332,1710985896832,1993875,0
1710985898332,1710985896872,1995803,0
1710985898332,1710985896912,1993848,0
1710985898332,1710985896953,1990027,0
1710985898332,1710985896992,1986623,0
1710985898332,1710985897033,1985294,0
1710985898332,1710985897073,1985386,0
1710985898332,1710985897113,1986694,0
1710985898332,1710985897154,1988251,0
1710985898332,1710985897193,1989205,0
1710985898332,1710985897233,1989576,0
1710985898332,1710985897273,1989586,0
1710985898332,1710985897314,1990171,0
1710985898332,1710985897354,1991252,0
1710985898332,1710985897394,1992749,0
1710985898332,1710985897434,1994342,0
1710985898332,1710985897474,1996142,0
1710985898332,1710985897514,1998207,0
1710985898332,1710985897555,2000356,0
1710985898332,1710985897594,2002502,0
1710985898332,1710985897634,2001645,0
1710985898332,1710985897675,1997661,0
1710985898332,1710985897715,1993908,0
1710985898332,1710985897755,1991932,0
1710985898332,1710985897795,1991839,0
1710985898332,1710985897835,1993055,0
1710985898332,1710985897875,1994693,0
1710985898332,1710985897915,1995853,0
1710985898332,1710985897956,1996108,0
1710985898332,1710985897996,1995822,0
1710985898332,1710985898036,1996139,0
1710985898332,1710985898076,1996955,0
1710985898332,1710985898116,1998314,0
1710985898332,1710985898157,2000084,0
1710985898332,1710985898196,2001952,0
1710985898332,1710985898236,2003910,0
1710985910350,1710985898276,2005973,0
1710985910350,1710985898316,2008012,0
1710985910350,1710985898357,2008542,0
1710985910350,1710985898397,2004367,0
1710985910350,1710985898437,1999001,0
1710985910350,1710985898477,1995020,0
1710985910350,1710985898517,1993288,0
1710985910350,1710985898558,1993320,0
1710985910350,1710985898597,1994018,0
1710985910350,1710985898638,1994731,0
1710985910350,1710985898678,1994470,0
1710985910350,1710985898718,1993744,0
1710985910350,1710985898759,1992829,0
1710985910350,1710985898798,1992803,0
1710985910350,1710985898838,1993335,0
1710985910350,1710985898878,1994236,0
1710985910350,1710985898918,1995668,0
1710985910350,1710985898959,1997046,0
1710985910350,1710985898999,1998665,0
1710985910350,1710985899039,2000270,0
1710985910350,1710985899079,2001757,0
1710985910350,1710985899119,2002056,0
1710985910350,1710985899160,1997487,0
1710985910350,1710985899199,1991127,0
1710985910350,1710985899239,1986471,0
1710985910350,1710985899280,1984151,0
1710985910350,1710985899320,1983579,0
1710985910350,1710985899361,1984120,0
1710985910350,1710985899400,1984670,0
1710985910350,1710985899440,1984490,0
1710985910350,1710985899480,1983431,0
1710985910350,1710985899520,1982439,0
1710985910350,1710985899561,1982325,0
1710985910350,1710985899601,1982773,0
1710985910350,1710985899641,1983783,0
1710985910350,1710985899681,1985114,0
1710985910350,1710985899721,1986855,0
1710985910350,1710985899762,1988559,0
1710985910350,1710985899801,1990198,0
1710985910350,1710985899841,1991906,0
1710985910350,1710985899881,1993261,0
1710985910350,1710985899922,1992635,0
1710985910350,1710985899963,1987431,0
1710985910350,1710985900002,1981544,0
1710985910350,1710985900042,1977357,0
1710985910350,1710985900082,1975272,0
1710985910350,1710985900122,1974880,0
1710985910350,1710985900163,1975627,0
1710985910350,1710985900203,1976062,0
1710985910350,1710985900243,1975773,0
1710985910350,1710985900283,1974681,0
1710985910350,1710985900323,1973808,0
1710985910350,1710985900364,1973777,0
1710985910350,1710985900403,1974432,0
1710985910350,1710985900443,1975576,0
1710985910350,1710985900483,1977115,0
1710985910350,1710985900524,1978583,0
1710985910350,1710985900565,1980328,0
1710985910350,1710985900604,1982036,0
1710985910350,1710985900644,1983868,0
1710985910350,1710985900684,1985367,0
1710985910350,1710985900724,1983252,0
1710985910350,1710985900765,1977788,0
1710985910350,1710985900805,1972205,0
1710985910350,1710985900845,1968949,0
1710985910350,1710985900885,1967791,0
1710985910350,1710985900925,1968082,0
1710985910350,1710985900966,1969184,0
1710985910350,1710985901005,1969540,0
1710985910350,1710985901046,1968924,0
1710985910350,1710985901086,1967981,0
1710985910350,1710985901126,1967723,0
1710985910350,1710985901167,1968079,0
1710985910350,1710985901206,1969216,0
1710985910350,1710985901246,1970572,0
1710985910350,1710985901286,1972286,0
1710985910350,1710985901326,1974040,0
1710985910350,1710985901367,1975814,0
1710985910350,1710985901407,1977641,0
1710985910350,1710985901447,1979307,0
1710985910350,1710985901487,1978606,0
1710985910350,1710985901527,1972901,0
1710985910350,1710985901568,1966468,0
1710985910350,1710985901608,1962127,0
1710985910350,1710985901648,1960364,0
1710985910350,1710985901688,1959945,0
1710985910350,1710985901728,1960611,0
1710985910350,1710985901769,1960985,0
1710985910350,1710985901808,1960621,0
1710985910350,1710985901848,1959625,0
1710985910350,1710985901889,1959049,0
1710985910350,1710985901929,1959312,0
1710985910350,1710985901970,1960376,0
1710985910350,1710985902009,1961952,0
1710985910350,1710985902049,1963733,0
1710985910350,1710985902089,1965714,0
1710985910350,1710985902130,1967677,0
1710985910350,1710985902170,1969621,0
1710985910350,1710985902210,1971701,0
1710985910350,1710985902250,1973663,0
1710985910350,1710985902290,1972418,0
1710985910350,1710985902330,1967212,0
1710985910350,1710985902371,1961591,0
1710985910350,1710985902410,1958536,0
1710985910350,1710985902450,1957590,0
1710985910350,1710985902491,1957899,0
1710985910350,1710985902531,1959070,0
1710985910350,1710985902571,1959755,0
1710985910350,1710985902611,1959423,0
1710985910350,1710985902651,1958933,0
1710985910350,1710985902691,1958880,0
1710985910350,1710985902731,1959634,0
1710985910350,1710985902772,1961225,0
1710985910350,1710985902811,1963166,0
1710985910350,1710985902852,1965408,0
1710985910350,1710985902891,1967811,0
1710985910350,1710985902932,1970190,0
1710985910350,1710985902973,1972599,0
1710985910350,1710985903012,1974986,0
1710985910350,1710985903052,1977469,0
1710985910350,1710985903092,1979826,0
1710985910350,1710985903132,1978457,0
1710985910350,1710985903173,1974249,0
1710985910350,1710985903212,1970372,0
1710985910350,1710985903253,1968714,0
1710985910350,1710985903293,1968771,0
1710985910350,1710985903333,1969643,0
1710985910350,1710985903374,1971114,0
1710985910350,1710985903413,1972176,0
1710985910350,1710985903453,1972504,0
1710985910350,1710985903493,1972625,0
1710985910350,1710985903533,1973102,0
1710985910350,1710985903574,1974195,0
1710985910350,1710985903614,1975785,0
1710985910350,1710985903654,1977364,0
1710985910350,1710985903694,1979608,0
1710985910350,1710985903734,1982071,0
1710985910350,1710985903775,1984540,0
1710985910350,1710985903814,1987047,0
1710985910350,1710985903854,1989493,0
1710985910350,1710985903894,1991890,0
1710985910350,1710985903935,1992676,0
1710985910350,1710985903975,1989298,0
1710985910350,1710985904015,1985156,0
1710985910350,1710985904055,1982554,0
1710985910350,1710985904095,1982102,0
1710985910350,1710985904135,1982854,0
1710985910350,1710985904176,1984680,0
1710985910350,1710985904215,1986244,0
1710985910350,1710985904255,1987060,0
1710985910350,1710985904296,1987179,0
1710985910350,1710985904336,1987541,0
1710985910350,1710985904376,1988298,0
1710985910350,1710985904416,1989843,0
1710985910350,1710985904456,1991787,0
1710985910350,1710985904496,1993977,0
1710985910350,1710985904536,1996306,0
1710985910350,1710985904577,1998660,0
1710985910350,1710985904617,2000970,0
1710985910350,1710985904657,2003139,0
1710985910350,1710985904697,2005453,0
1710985910350,1710985904737,2006250,0
1710985910350,1710985904778,2002340,0
1710985910350,1710985904817,1997432,0
1710985910350,1710985904857,1994174,0
1710985910350,1710985904898,1993010,0
1710985910350,1710985904938,1992986,0
1710985910350,1710985904978,1994121,0
1710985910350,1710985905018,1995259,0
1710985910350,1710985905058,1995523,0
1710985910350,1710985905098,1995182,0
1710985910350,1710985905138,1994770,0
1710985910350,1710985905179,1995040,0
1710985910350,1710985905218,1995997,0
1710985910350,1710985905259,1997631,0
1710985910350,1710985905299,1999346,0
1710985910350,1710985905342,2001246,0
1710985910350,1710985905380,2003405,0
1710985910350,1710985905419,2005120,0
1710985910350,1710985905459,2007195,0
1710985910350,1710985905500,2009333,0
1710985910350,1710985905539,2010726,0
1710985910350,1710985905580,2007563,0
1710985910350,1710985905620,2002840,0
1710985910350,1710985905660,1998955,0
1710985910350,1710985905700,1997529,0
1710985910350,1710985905740,1997675,0
1710985910350,1710985905781,1998828,0
1710985910350,1710985905820,2000186,0
1710985910350,1710985905861,2000976,0
1710985910350,1710985905901,2000864,0
1710985910350,1710985905941,2000537,0
1710985910350,1710985905982,2000759,0
1710985910350,1710985906021,2001641,0
1710985910350,1710985906061,2003267,0
1710985910350,1710985906102,2005062,0
1710985910350,1710985906141,2007010,0
1710985910350,1710985906182,2009097,0
1710985910350,1710985906222,2011212,0
1710985910350,1710985906262,2013399,0
1710985910350,1710985906302,2015515,0
1710985910350,1710985906342,2017434,0
1710985910350,1710985906383,2015661,0
1710985910350,1710985906422,2011014,0
1710985910350,1710985906463,2006701,0
1710985910350,1710985906503,2004565,0
1710985910350,1710985906543,2004125,0
1710985910350,1710985906584,2004932,0
1710985910350,1710985906623,2006445,0
1710985910350,1710985906663,2007248,0
1710985910350,1710985906704,2007200,0
1710985910350,1710985906744,2006721,0
1710985910350,1710985906785,2006454,0
1710985910350,1710985906824,2007135,0
1710985910350,1710985906864,2008551,0
1710985910350,1710985906904,2010212,0
1710985910350,1710985906945,2012286,0
1710985910350,1710985906985,2016449,0
1710985910350,1710985907025,2022127,0
1710985910350,1710985907065,2027625,0
1710985910350,1710985907105,2031722,0
1710985910350,1710985907145,2033149,0
1710985910350,1710985907186,2030915,0
1710985910350,1710985907226,2028025,0
1710985910350,1710985907266,2026710,0
1710985910350,1710985907306,2026972,0
1710985910350,1710985907346,2028201,0
1710985910350,1710985907387,2029883,0
1710985910350,1710985907427,2030304,0
1710985910350,1710985907467,2028338,0
1710985910350,1710985907507,2025588,0
1710985910350,1710985907550,2023192,0
1710985910350,1710985907588,2021892,0
1710985910350,1710985907627,2021634,0
1710985910350,1710985907668,2022539,0
1710985910350,1710985907708,2024017,0
1710985910350,1710985907748,2026012,0
1710985910350,1710985907789,2027797,0
1710985910350,1710985907828,2030000,0
1710985910350,1710985907868,2031858,0
1710985910350,1710985907908,2026931,0
1710985910350,1710985907948,2021425,0
1710985910350,1710985907989,2017911,0
1710985910350,1710985908029,2016626,0
1710985910350,1710985908069,2016561,0
1710985910350,1710985908109,2017585,0
1710985910350,1710985908149,2018168,0
1710985910350,1710985908190,2017943,0
1710985910350,1710985908229,2017449,0
1710985910350,1710985908269,2017313,0
1710985910350,1710985908309,2017792,0
1710985910350,1710985908349,2019372,0
1710985910350,1710985908390,2021542,0
1710985910350,1710985908430,2024194,0
1710985910350,1710985908470,2026969,0
1710985910350,1710985908510,2029536,0
1710985910350,1710985908550,2032045,0
1710985910350,1710985908591,2033108,0
1710985910350,1710985908630,2028874,0
1710985910350,1710985908670,2022077,0
1710985910350,1710985908711,2015499,0
1710985910350,1710985908751,2011220,0
1710985910350,1710985908791,2008976,0
1710985910350,1710985908831,2008560,0
1710985910350,1710985908871,2008995,0
1710985910350,1710985908911,2009295,0
1710985910350,1710985908951,2009083,0
1710985910350,1710985908992,2009066,0
1710985910350,1710985909031,2009574,0
1710985910350,1710985909071,2010892,0
1710985910350,1710985909112,2012624,0
1710985910350,1710985909152,2014316,0
1710985910350,1710985909193,2016149,0
1710985910350,1710985909232,2018077,0
1710985910350,1710985909272,2020089,0
1710985910350,1710985909312,2020496,0
1710985910350,1710985909352,2015785,0
1710985910350,1710985909393,2009605,0
1710985910350,1710985909432,2004344,0
1710985910350,1710985909473,2001583,0
1710985910350,1710985909513,2000425,0
1710985910350,1710985909553,2000652,0
1710985910350,1710985909594,2000784,0
1710985910350,1710985909633,1999933,0
1710985910350,1710985909673,1998466,0
1710985910350,1710985909713,1997053,0
1710985910350,1710985909756,1996681,0
1710985910350,1710985909794,1996930,0
1710985910350,1710985909834,1997723,0
1710985910350,1710985909874,1998759,0
1710985910350,1710985909914,2000053,0
1710985910350,1710985909954,2001385,0
1710985910350,1710985909995,2002832,0
1710985910350,1710985910034,2001224,0
1710985910350,1710985910074,1994818,0
1710985910350,1710985910115,1987592,0
1710985910350,1710985910155,1982418,0
1710985910350,1710985910196,1979463,0
1710985910350,1710985910235,1978111,0
1710985910350,1710985910275,1978089,0
1710985922399,1710985910315,1977311,0
1710985922399,1710985910355,1975826,0
1710985922399,1710985910396,1973785,0
1710985922399,1710985910436,1972287,0
1710985922399,1710985910476,1971763,0
1710985922399,1710985910516,1972078,0
1710985922399,1710985910556,1972846,0
1710985922399,1710985910597,1973669,0
1710985922399,1710985910636,1974741,0
1710985922399,1710985910677,1976084,0
1710985922399,1710985910717,1977487,0
1710985922399,1710985910757,1975041,0
1710985922399,1710985910798,1968364,0
1710985922399,1710985910837,1962012,0
1710985922399,1710985910877,1957819,0
1710985922399,1710985910917,1955945,0
1710985922399,1710985910957,1955469,0
1710985922399,1710985910998,1956063,0
1710985922399,1710985911038,1955986,0
1710985922399,1710985911078,1954749,0
1710985922399,1710985911118,1953516,0
1710985922399,1710985911158,1952601,0
1710985922399,1710985911199,1952865,0
1710985922399,1710985911238,1953665,0
1710985922399,1710985911279,1955018,0
1710985922399,1710985911319,1956540,0
1710985922399,1710985911359,1958269,0
1710985922399,1710985911400,1960098,0
1710985922399,1710985911439,1960159,0
1710985922399,1710985911479,1955013,0
1710985922399,1710985911519,1949078,0
1710985922399,1710985911559,1944985,0
1710985922399,1710985911600,1943140,0
1710985922399,1710985911640,1943088,0
1710985922399,1710985911680,1944154,0
1710985922399,1710985911720,1944737,0
1710985922399,1710985911760,1944465,0
1710985922399,1710985911801,1943701,0
1710985922399,1710985911840,1943334,0
1710985922399,1710985911881,1943860,0
1710985922399,1710985911921,1944995,0
1710985922399,1710985911961,1946542,0
1710985922399,1710985912002,1948430,0
1710985922399,1710985912041,1950503,0
1710985922399,1710985912081,1952747,0
1710985922399,1710985912121,1953469,0
1710985922399,1710985912161,1948921,0
1710985922399,1710985912202,1943735,0
1710985922399,1710985912242,1940166,0
1710985922399,1710985912282,1938866,0
1710985922399,1710985912322,1939431,0
1710985922399,1710985912362,1941145,0
1710985922399,1710985912403,1942221,0
1710985922399,1710985912442,1942649,0
1710985922399,1710985912483,1942256,0
1710985922399,1710985912523,1942471,0
1710985922399,1710985912563,1943433,0
1710985922399,1710985912604,1944731,0
1710985922399,1710985912643,1946723,0
1710985922399,1710985912683,1948974,0
1710985922399,1710985912724,1951165,0
1710985922399,1710985912763,1953840,0
1710985922399,1710985912804,1955553,0
1710985922399,1710985912844,1952312,0
1710985922399,1710985912884,1947931,0
1710985922399,1710985912924,1944656,0
1710985922399,1710985912964,1943735,0
1710985922399,1710985913005,1944362,0
1710985922399,1710985913044,1946436,0
1710985922399,1710985913085,1947968,0
1710985922399,1710985913125,1948754,0
1710985922399,1710985913165,1948936,0
1710985922399,1710985913206,1949603,0
1710985922399,1710985913245,1950630,0
1710985922399,1710985913285,1952312,0
1710985922399,1710985913326,1954473,0
1710985922399,1710985913366,1956946,0
1710985922399,1710985913407,1959373,0
1710985922399,1710985913446,1962071,0
1710985922399,1710985913486,1964628,0
1710985922399,1710985913526,1963798,0
1710985922399,1710985913567,1959761,0
1710985922399,1710985913607,1956487,0
1710985922399,1710985913647,1955061,0
1710985922399,1710985913687,1955546,0
1710985922399,1710985913727,1957339,0
1710985922399,1710985913767,1959362,0
1710985922399,1710985913808,1960733,0
1710985922399,1710985913847,1961228,0
1710985922399,1710985913887,1961679,0
1710985922399,1710985913927,1962682,0
1710985922399,1710985913967,1964194,0
1710985922399,1710985914008,1966313,0
1710985922399,1710985914048,1968584,0
1710985922399,1710985914088,1971023,0
1710985922399,1710985914128,1973698,0
1710985922399,1710985914168,1976505,0
1710985922399,1710985914209,1978561,0
1710985922399,1710985914248,1976180,0
1710985922399,1710985914288,1971959,0
1710985922399,1710985914329,1968637,0
1710985922399,1710985914369,1967568,0
1710985922399,1710985914410,1968139,0
1710985922399,1710985914449,1970005,0
1710985922399,1710985914489,1971658,0
1710985922399,1710985914529,1972610,0
1710985922399,1710985914569,1972802,0
1710985922399,1710985914610,1973175,0
1710985922399,1710985914649,1974132,0
1710985922399,1710985914689,1975615,0
1710985922399,1710985914730,1977332,0
1710985922399,1710985914770,1979660,0
1710985922399,1710985914811,1981861,0
1710985922399,1710985914850,1984200,0
1710985922399,1710985914890,1986743,0
1710985922399,1710985914930,1989051,0
1710985922399,1710985914970,1988722,0
1710985922399,1710985915011,1984741,0
1710985922399,1710985915051,1980402,0
1710985922399,1710985915091,1978302,0
1710985922399,1710985915131,1978112,0
1710985922399,1710985915171,1979061,0
1710985922399,1710985915212,1980667,0
1710985922399,1710985915251,1981751,0
1710985922399,1710985915291,1981945,0
1710985922399,1710985915331,1981913,0
1710985922399,1710985915372,1982248,0
1710985922399,1710985915412,1983418,0
1710985922399,1710985915452,1984862,0
1710985922399,1710985915492,1986844,0
1710985922399,1710985915532,1988961,0
1710985922399,1710985915572,1991168,0
1710985922399,1710985915613,1993431,0
1710985922399,1710985915652,1995693,0
1710985922399,1710985915692,1997878,0
1710985922399,1710985915733,1997038,0
1710985922399,1710985915772,1992598,0
1710985922399,1710985915813,1988612,0
1710985922399,1710985915853,1986571,0
1710985922399,1710985915893,1986489,0
1710985922399,1710985915933,1987589,0
1710985922399,1710985915973,1989069,0
1710985922399,1710985916014,1989998,0
1710985922399,1710985916053,1989963,0
1710985922399,1710985916094,1989857,0
1710985922399,1710985916134,1990271,0
1710985922399,1710985916174,1991020,0
1710985922399,1710985916215,1992568,0
1710985922399,1710985916254,1994164,0
1710985922399,1710985916294,1996154,0
1710985922399,1710985916334,1998298,0
1710985922399,1710985916375,2000327,0
1710985922399,1710985916415,2002752,0
1710985922399,1710985916455,2004690,0
1710985922399,1710985916495,2002906,0
1710985922399,1710985916535,1998622,0
1710985922399,1710985916575,1994856,0
