Timestamp,Cleaned PPG
1712021978258,0.0
1712021978296,0.0
1712021978336,0.0
1712021978376,0.0
1712021978416,0.0
1712021978456,0.0
1712021978497,0.0
1712021978536,0.0
1712021978576,0.0
1712021978616,0.0
1712021978657,0.0
1712021978698,0.0
1712021978737,0.0
1712021978777,0.0
1712021978817,0.0
1712021978857,0.0
1712021978899,0.0
1712021978938,0.0
1712021978978,0.0
1712021979018,0.0
1712021979058,0.0
1712021979099,0.0
1712021979138,0.0
1712021979178,0.0
1712021979218,0.0
1712021979258,0.0
1712021979300,0.0
1712021979339,0.0
1712021979379,0.0
1712021979419,0.0
1712021979459,0.0
1712021979500,0.0
1712021979539,1123491.5024930118
1712021979579,1123491.5024930118
1712021979619,1123491.5024930118
1712021979659,1123491.5024930118
1712021979700,1123491.5024930118
1712021979739,1123491.5024930118
1712021979780,1123491.5024930118
1712021979820,1123491.5024930118
1712021979860,1123491.5024930118
1712021979901,1123491.5024930118
1712021979940,1123491.5024930118
1712021979980,1055263.2798366863
1712021980020,991731.6301865587
1712021980060,931344.8514084574
1712021980101,872973.8015118483
1712021980141,820764.0278664399
1712021980181,775286.18527751
1712021980221,726948.3404501774
1712021980261,675784.9247670483
1712021980302,625366.622737552
1712021980341,581486.9188011996
1712021980381,542987.9025789548
1712021980421,506932.33167108614
1712021980464,474538.2878531213
1712021980503,444641.9815753228
1712021980542,416584.4326425693
1712021980582,393180.99437021604
1712021980622,369191.4247429501
1712021980662,344111.7636484052
1712021980703,320142.33669012063
1712021980742,302551.8587131188
1712021980782,286490.00889197737
1712021980822,272107.81535218377
1712021980863,257208.6215880788
1712021980904,245844.71590265282
1712021980943,235356.4953274883
1712021980983,219529.14305540477
1712021981023,203711.41912005888
1712021981063,191167.3842041823
1712021981104,175632.7669036663
1712021981143,151482.9449648806
1712021981183,127114.47127438802
1712021981224,108418.67612960073
1712021981264,93839.12066500727
1712021981305,81123.05785566894
1712021981344,69813.30304436106
1712021981384,58462.7392607932
1712021981424,43343.9117078064
1712021981464,31383.051090497058
1712021981505,25774.48874235479
1712021981544,25774.48874235479
1712021981585,25774.48874235479
1712021981625,25774.48874235479
1712021981665,25774.48874235479
1712021981706,25774.48874235479
1712021981745,25774.48874235479
1712021981785,25774.48874235479
1712021981825,25774.48874235479
1712021981865,25774.48874235479
1712021981906,25774.48874235479
1712021981946,42968.427021550015
1712021981986,46498.99847350363
1712021982026,46636.7525895983
1712021982066,48288.84511823859
1712021982107,49371.623033200856
1712021982146,50988.95872726315
1712021982187,55946.61853384948
1712021982227,71766.03545407695
1712021982267,91044.28929875791
1712021982308,99691.4414093038
1712021982347,110361.12594339764
1712021982387,121449.41439405829
1712021982427,133983.5910678208
1712021982468,133983.5910678208
1712021982509,135433.7065579528
1712021982548,135939.01095280144
1712021982588,142958.1970014386
1712021982628,144543.90234573442
1712021982671,147254.75565176178
1712021982709,147254.75565176178
1712021982749,147254.75565176178
1712021982789,147254.75565176178
1712021982829,147254.75565176178
1712021982869,147254.75565176178
1712021982910,147254.75565176178
1712021982949,142958.1970014386
1712021982989,135939.01095280144
1712021983029,135433.7065579528
1712021983069,133150.54432590585
1712021983110,130356.04489134252
1712021983150,98737.8751432579
1712021983190,96974.59742460214
1712021983230,96826.88488272065
1712021983270,90292.81853087572
1712021983311,87716.59194422606
1712021983350,80264.59815186635
1712021983391,79624.71637746319
1712021983431,74702.36069128476
1712021983471,73869.13317177026
1712021983512,69953.20487338491
1712021983551,68683.60463272687
1712021983591,65087.332799458876
1712021983632,60848.66126762051
1712021983672,60848.66126762051
1712021983712,59410.246742663905
1712021983752,54276.32506061811
1712021983792,52586.39069607621
1712021983832,52562.163539359346
1712021983872,50967.813364947215
1712021983913,50773.269456272945
1712021983952,49191.157950695604
1712021983993,48218.12742123008
1712021984033,46729.34677198809
1712021984073,44708.00085930992
1712021984114,44136.487309768796
1712021984153,43442.75762855355
1712021984193,41372.03411711007
1712021984233,41284.937394186854
1712021984274,41042.985294500366
1712021984314,36421.88886129577
1712021984354,34600.30087134242
1712021984394,31200.458952417597
1712021984434,29759.920358113013
1712021984474,18697.058589391876
1712021984515,12823.870242862962
1712021984554,6330.084509847686
1712021984595,4016.084146470763
1712021984635,2197.2271492904983
1712021984675,999.0559180621058
1712021984716,-306.6386178173125
1712021984755,-4365.168387170881
1712021984795,-13191.355067738332
1712021984836,-23775.590410870034
1712021984876,-27101.406730234623
1712021984916,-38019.9334805361
1712021984956,-54150.03407518845
1712021984996,-54150.03407518845
1712021985036,-54150.03407518845
1712021985076,-54150.03407518845
1712021985117,-54150.03407518845
1712021985156,-54150.03407518845
1712021985197,-54150.03407518845
1712021985237,-54150.03407518845
1712021985277,-60330.91175914975
1712021985318,-60330.91175914975
1712021985357,-60330.91175914975
1712021985397,-60330.91175914975
1712021985437,-56267.77440505428
1712021985477,-53669.443610135466
1712021985518,-52904.3671139935
1712021985557,-48035.86945082527
1712021985597,-47872.16955649899
1712021985637,-42846.687473519705
1712021985678,-41992.82621373236
1712021985718,-41650.17426972836
1712021985758,-41351.52735737432
1712021985798,-41012.38207997009
1712021985838,-40928.41827888321
1712021985878,-39933.86892738566
1712021985919,-39842.73766012164
1712021985958,-39543.24488500366
1712021985998,-39543.24488500366
1712021986039,-39842.73766012164
1712021986079,-39842.73766012164
1712021986119,-39842.73766012164
1712021986159,-39842.73766012164
1712021986199,-39842.73766012164
1712021986239,-39842.73766012164
1712021986279,-39933.86892738566
1712021986320,-41012.38207997009
1712021986359,-41012.38207997009
1712021986400,-41148.97060635267
1712021986440,-41148.97060635267
1712021986480,-41148.97060635267
1712021986521,-41148.97060635267
1712021986560,-41148.97060635267
1712021986600,-41148.97060635267
1712021986640,-41148.97060635267
1712021986680,-41148.97060635267
1712021986721,-41148.97060635267
1712021986761,-44295.29214654397
1712021986800,-45229.29731267225
1712021986840,-45229.29731267225
1712021986881,-45229.29731267225
1712021986921,-45229.29731267225
1712021986961,-45229.29731267225
1712021987001,-45229.29731267225
1712021987041,-45229.29731267225
1712021987081,-45229.29731267225
1712021987122,-45229.29731267225
1712021987161,-45229.29731267225
1712021987201,-45229.29731267225
1712021987242,-45229.29731267225
1712021987282,-45229.29731267225
1712021987322,-45229.29731267225
1712021987362,-45229.29731267225
1712021987402,-45229.29731267225
1712021987442,-45229.29731267225
1712021987482,-45229.29731267225
1712021987523,-45229.29731267225
1712021987562,-45229.29731267225
1712021987603,-45475.159018705366
1712021987643,-45475.159018705366
1712021987683,-45121.5656289435
1712021987724,-45110.59316323511
1712021987763,-44820.68802640075
1712021987803,-44192.95714099193
1712021987843,-42592.58482477022
1712021987883,-42469.05165031273
1712021987924,-41942.71579013672
1712021987964,-41664.19395216461
1712021988004,-40802.96445041429
1712021988044,-39674.89144498366
1712021988084,-38619.80608432973
1712021988125,-38619.80608432973
1712021988164,-38447.04453547904
1712021988204,-35124.851420527324
1712021988244,-34929.66448790184
1712021988285,-30935.392887780443
1712021988326,-21712.388174636988
1712021988365,-14095.105280792806
1712021988405,-6488.708312725648
1712021988445,3070.8895144285634
1712021988485,10918.233338847756
1712021988526,17652.4448220348
1712021988566,24146.945230894722
1712021988606,28177.7234752425
1712021988646,28813.396719081793
1712021988686,37768.2698421441
1712021988727,50561.46049301699
1712021988766,62424.09171814192
1712021988806,67456.76646399754
1712021988847,73923.55900377082
1712021988887,74294.37831496727
1712021988928,75280.2783595305
1712021988967,75280.2783595305
1712021989007,75280.2783595305
1712021989047,75280.2783595305
1712021989087,75280.2783595305
1712021989128,75280.2783595305
1712021989168,75280.2783595305
1712021989208,75280.2783595305
1712021989248,75280.2783595305
1712021989288,74294.37831496727
1712021989329,73923.55900377082
1712021989368,65927.7468688055
1712021989408,58395.04286131216
1712021989448,57164.98637255374
1712021989489,56360.79523399193
1712021989530,55975.417874041945
1712021989569,55975.417874041945
1712021989609,55975.417874041945
1712021989649,55975.417874041945
1712021989689,55975.417874041945
1712021989730,55653.58388287015
1712021989770,55521.740429012105
1712021989810,54504.63595019467
1712021989850,54504.63595019467
1712021989890,55653.58388287015
1712021989931,55975.417874041945
1712021989970,56360.79523399193
1712021990010,56985.37395499926
1712021990050,57164.98637255374
1712021990091,57164.98637255374
1712021990132,57392.02082398534
1712021990171,57400.37382786721
1712021990211,57657.23074336164
1712021990251,57719.67165186303
1712021990291,58070.44148649322
1712021990332,58407.247338930145
1712021990372,58651.76254609693
1712021990412,58807.258000085596
1712021990452,58651.76254609693
1712021990492,58407.247338930145
1712021990533,58070.44148649322
1712021990572,58070.44148649322
1712021990613,58070.44148649322
1712021990653,58070.44148649322
1712021990693,58070.44148649322
1712021990734,58070.44148649322
1712021990773,57400.37382786721
1712021990813,57392.02082398534
1712021990853,57392.02082398534
1712021990893,56069.51725733187
1712021990934,55650.93843565509
1712021990974,55650.93843565509
1712021991014,55650.93843565509
1712021991054,55650.93843565509
1712021991094,55226.467244163156
1712021991135,55119.32641023863
1712021991175,54699.84842609987
1712021991215,54279.0843388536
1712021991255,50894.708733129315
1712021991295,50840.86551531544
1712021991336,50840.86551531544
1712021991375,50840.86551531544
1712021991415,50351.61494372459
1712021991455,49678.36554339435
1712021991495,48737.764086742885
1712021991536,39811.08295024745
1712021991576,35648.58495151717
1712021991616,34590.37819900457
1712021991656,34487.998365060426
1712021991696,33836.69691710221
1712021991737,33486.91247287486
1712021991776,33096.37076283293
1712021991816,32718.492991408333
1712021991856,31739.67178706359
1712021991896,29422.49619989842
1712021991937,29006.265073137358
1712021991977,21740.803172319662
1712021992017,18882.769345547073
1712021992057,13386.521418439224
1712021992097,9840.55807693163
1712021992138,6441.619490467943
1712021992177,5737.647909886204
1712021992217,264.37084942124784
1712021992257,-14577.56993987877
1712021992298,-20361.394772548694
1712021992338,-20361.394772548694
1712021992378,-20361.394772548694
1712021992418,-20361.394772548694
1712021992458,-20361.394772548694
1712021992498,-20361.394772548694
1712021992539,-20361.394772548694
1712021992578,-24669.94440872036
1712021992618,-26604.86262278864
1712021992659,-28612.58453634102
1712021992699,-31660.673280328047
1712021992739,-31660.673280328047
1712021992779,-31660.673280328047
1712021992819,-31660.673280328047
1712021992859,-31660.673280328047
1712021992899,-28612.58453634102
1712021992940,-28042.983323269524
1712021992979,-26604.86262278864
1712021993019,-24669.94440872036
1712021993059,-20361.394772548694
1712021993100,-18064.49983734032
1712021993140,-17579.0686279824
1712021993180,-15618.381707071327
1712021993220,-15618.381707071327
1712021993260,-15618.381707071327
1712021993300,-15618.381707071327
1712021993341,-16782.084325846285
1712021993380,-17579.0686279824
1712021993420,-17196.63371293107
1712021993461,-16782.084325846285
1712021993501,-11874.939879826736
1712021993541,-10135.464233852923
1712021993581,-10135.464233852923
1712021993621,-10135.464233852923
1712021993661,-10135.464233852923
1712021993701,-9934.514936653897
1712021993742,-8325.532937899232
1712021993782,-7382.39412853308
1712021993822,-7087.103159595747
1712021993862,-6616.1516148634255
1712021993902,-5294.858222691808
1712021993943,-5294.858222691808
1712021993982,-5294.858222691808
1712021994022,-7087.103159595747
1712021994062,-7382.39412853308
1712021994103,-9878.222138354555
1712021994143,-9878.222138354555
1712021994183,-9878.222138354555
1712021994223,-9878.222138354555
1712021994263,-9878.222138354555
1712021994303,-9934.514936653897
1712021994344,-10963.804584216326
1712021994383,-14197.540943867527
1712021994424,-14846.369949839078
1712021994464,-18839.843372032046
1712021994504,-22879.732159757987
1712021994545,-22882.38546953257
1712021994584,-23869.0397829921
1712021994624,-27209.607983326074
1712021994664,-29292.605632606428
1712021994705,-30101.782959637698
1712021994745,-31614.47041958105
1712021994785,-33924.86316723749
1712021994825,-37025.12209091615
1712021994865,-38755.01664526062
1712021994905,-40407.46858918015
1712021994946,-47682.22432700638
1712021994985,-49260.6735958606
1712021995025,-50031.49852316361
1712021995066,-53819.78216891177
1712021995106,-56063.25955480477
1712021995146,-73015.94904194027
1712021995186,-73015.94904194027
1712021995226,-73015.94904194027
1712021995266,-74428.95254041068
1712021995307,-74428.95254041068
1712021995347,-74428.95254041068
1712021995387,-74428.95254041068
1712021995427,-74428.95254041068
1712021995467,-74428.95254041068
1712021995507,-74428.95254041068
1712021995548,-74428.95254041068
1712021995587,-74428.95254041068
1712021995627,-71583.29029945377
1712021995668,-70915.41988033056
1712021995708,-62065.37267883681
1712021995748,-45776.700481598265
1712021995788,-40306.835503259674
1712021995828,-37013.67622988019
1712021995868,-34998.050534334034
1712021995909,-34419.082411503885
1712021995949,-33903.884743767325
1712021995989,-33646.14218437206
1712021996029,-32805.1180421887
1712021996069,-30649.94602777902
1712021996109,-30411.653932350688
1712021996150,-30025.459120186046
1712021996189,-29439.97272914322
1712021996229,-27204.729825771414
1712021996270,-22652.23900436703
1712021996310,-10945.41556333378
1712021996351,-4073.037928916514
1712021996390,2038.8090985016897
1712021996430,6738.849792941008
1712021996470,9100.750209124759
1712021996511,20606.73600168526
1712021996551,21790.206354787108
1712021996591,22758.732436480466
1712021996631,24930.208523530047
1712021996671,25114.977581292856
1712021996712,29541.13492950797
1712021996753,32509.245620880276
1712021996792,35045.17966061644
1712021996832,38449.22013887903
1712021996872,38792.92325652484
1712021996912,43347.93281130539
1712021996953,51855.25062802341
1712021996993,52836.843476434704
1712021997033,53985.72152267117
1712021997073,58723.26951765269
1712021997113,63817.59099029144
1712021997154,70417.808658781
1712021997193,77594.72710166546
1712021997234,80962.27200800739
1712021997274,80962.27200800739
1712021997314,83043.30464226566
1712021997355,83191.42223182833
1712021997394,85390.35997824464
1712021997434,85489.13078372926
1712021997474,91806.92929148022
1712021997514,91940.37139969878
1712021997555,91940.37139969878
1712021997595,91940.37139969878
1712021997635,91940.37139969878
1712021997675,91940.37139969878
1712021997715,91940.37139969878
1712021997756,91940.37139969878
1712021997795,91940.37139969878
1712021997835,91806.92929148022
1712021997875,85489.13078372926
1712021997915,78287.9580101422
1712021997956,68499.03707385436
1712021997996,58484.85470081493
1712021998036,44307.9050959833
1712021998076,31796.91558504617
1712021998116,17670.571675354615
1712021998157,3293.90353026893
1712021998196,3293.90353026893
1712021998236,3293.90353026893
1712021998276,3293.90353026893
1712021998317,3293.90353026893
1712021998357,3293.90353026893
1712021998397,3293.90353026893
1712021998437,3293.90353026893
1712021998477,3293.90353026893
1712021998517,3293.90353026893
1712021998558,3293.90353026893
1712021998597,13728.393799359445
1712021998637,14930.000264810398
1712021998678,15098.628385086544
1712021998718,16428.951773904264
1712021998758,16836.91466411855
1712021998798,20550.68380075507
1712021998838,23211.215530350804
1712021998878,40281.30218097335
1712021998918,59679.38999864273
1712021998959,59679.38999864273
1712021998998,59679.38999864273
1712021999039,59679.38999864273
1712021999079,59679.38999864273
1712021999119,59679.38999864273
1712021999160,59679.38999864273
1712021999199,59679.38999864273
1712021999239,59679.38999864273
1712021999279,59679.38999864273
1712021999319,59679.38999864273
1712021999360,33876.69809510093
1712021999400,-7567.867021719925
1712021999440,-7567.867021719925
1712021999480,-7567.867021719925
1712021999520,-12263.9116221359
1712021999561,-12263.9116221359
1712021999600,-20439.369949088898
1712021999640,-40894.174476595595
1712021999680,-41068.391710917
1712021999721,-57313.90063815797
1712021999762,-57631.95812598895
1712021999801,-58760.921788570005
1712021999841,-61601.88441842422
1712021999881,-62734.464662529994
1712021999921,-66405.7490918506
1712021999962,-70850.98748578131
1712022000002,-95700.02810071222
1712022000042,-95700.02810071222
1712022000082,-95700.02810071222
1712022000122,-132150.66242299182
1712022000163,-168022.74076312035
1712022000202,-187587.07600557338
1712022000242,-187587.07600557338
1712022000282,-187587.07600557338
1712022000323,-187587.07600557338
1712022000364,-187587.07600557338
1712022000403,-187587.07600557338
1712022000443,-187587.07600557338
1712022000483,-187587.07600557338
1712022000523,-187587.07600557338
1712022000564,-187587.07600557338
1712022000604,-187587.07600557338
1712022000644,-165504.95314091304
1712022000684,-135226.0811079
1712022000724,-121476.56324916892
1712022000765,-115695.95359908417
1712022000804,-113172.38370705443
1712022000844,-113172.38370705443
1712022000885,-111789.69492919045
1712022000925,-111457.29871865269
1712022000966,-111052.6616453277
1712022001005,-111052.6616453277
1712022001045,-111052.6616453277
1712022001085,-111052.6616453277
1712022001125,-111052.6616453277
1712022001166,-111052.6616453277
1712022001206,-109630.1914693662
1712022001246,-107304.77259852644
1712022001286,-106867.38111764984
1712022001326,-103903.30951404478
1712022001367,-103161.55178001523
1712022001406,-102049.83922849526
1712022001447,-102049.83922849526
1712022001487,-102049.83922849526
1712022001527,-102049.83922849526
1712022001568,-101867.22571172006
1712022001607,-101867.22571172006
1712022001647,-101867.22571172006
1712022001688,-101403.15913129994
1712022001728,-101403.15913129994
1712022001769,-98296.59769927477
1712022001808,-86012.24507513037
1712022001848,-83493.10455233301
1712022001888,-76306.0100594447
1712022001928,-72505.0226642047
1712022001969,-71785.13879123656
1712022002009,-69615.64156732429
1712022002049,-68582.07552515762
1712022002089,-67391.55851973174
1712022002129,-67285.42317309394
1712022002170,-66773.8624347297
1712022002209,-59624.312074855436
1712022002249,-59504.04698792542
1712022002290,-58949.54901708895
1712022002327,-53612.87640846288
1712022002367,-50667.511600671336
1712022002407,-45004.68619726738
1712022002447,-34817.024147163145
1712022002487,-24464.94694274105
1712022002528,-17257.82179303933
1712022002568,-16420.69248177111
1712022002608,-15010.942410259042
1712022002648,-14594.845333062345
1712022002688,-12618.606978786876
1712022002728,-11560.914005858358
1712022002769,-5723.288964014035
1712022002809,-5570.891258113785
1712022002849,-4048.113182708854
1712022002889,-3408.0903895604424
1712022002929,-1206.516142184846
1712022002970,2232.3470827515703
1712022003009,3487.3424413187895
1712022003049,6102.8418781715445
1712022003089,6572.356516777072
1712022003130,8497.605248579988
1712022003170,9155.313006427139
1712022003210,11178.763910446782
1712022003250,12565.233744672034
1712022003290,14519.33779634512
1712022003330,14938.52091345773
1712022003371,17936.61006976245
1712022003410,19170.82414765819
1712022003450,19906.524721665075
1712022003490,20061.624859435484
1712022003530,20552.78734831093
1712022003571,20709.627267627744
1712022003611,21020.365884962957
1712022003651,21020.365884962957
1712022003691,21020.365884962957
1712022003731,21020.365884962957
1712022003772,26107.618114091456
1712022003811,32464.35349168745
1712022003851,43009.80685478402
1712022003891,45302.99382767826
1712022003931,48548.765721020056
1712022003972,49967.217737325
1712022004012,51572.52833831357
1712022004052,51648.72120336327
1712022004092,53340.15626170626
1712022004132,57795.09826810425
1712022004173,63470.688109750394
1712022004212,64811.33686445467
1712022004252,72487.42736989213
1712022004292,79349.46694697486
1712022004333,80844.33355743671
1712022004373,84305.07648813119
1712022004413,91751.96373282373
1712022004453,93255.5038360646
1712022004493,98466.38761009835
1712022004533,102132.42042330652
1712022004574,102310.47248146543
1712022004613,103474.52593880706
1712022004653,103790.80020477343
1712022004694,104363.19160597771
1712022004734,106415.45549901482
1712022004774,108179.69263277575
1712022004814,108307.64121313533
1712022004854,110999.87164592557
1712022004894,111366.11557723023
1712022004934,113870.89949136297
1712022004975,115822.96592280013
1712022005014,115838.96015811432
1712022005055,116297.38763786457
1712022005095,117822.22992286249
1712022005135,122643.38036411814
1712022005176,123967.45519992989
1712022005215,132912.946571026
1712022005255,154513.34218874108
1712022005295,155095.28621618915
1712022005335,162393.13006103178
1712022005376,166285.3407219192
1712022005416,178638.85578057077
1712022005456,190499.7178353062
1712022005496,205182.00778429583
1712022005537,208615.6190114594
1712022005578,208615.6190114594
1712022005617,208615.6190114594
1712022005658,208615.6190114594
1712022005700,208615.6190114594
1712022005740,208615.6190114594
1712022005781,208615.6190114594
1712022005821,208615.6190114594
1712022005861,208615.6190114594
1712022005901,208615.6190114594
1712022005942,208615.6190114594
1712022005982,201875.1866270462
1712022006022,196902.4133569859
1712022006062,191678.22129315697
1712022006102,187169.73186410824
1712022006143,185557.04059233004
1712022006184,171910.57343757432
1712022006223,165200.65175964218
1712022006264,162920.68358914414
1712022006304,158250.33565712022
1712022006344,147490.86413463484
1712022006385,132975.83982858248
1712022006424,132944.3451483799
1712022006465,128105.64426527172
1712022006505,119205.20343331154
1712022006545,109799.48791129421
1712022006586,108286.21903066663
1712022006626,107453.69625394838
1712022006666,99482.48616079753
1712022006706,87392.55127130123
1712022006747,79076.08598880377
1712022006788,75282.87586207874
1712022006827,73582.07424606662
1712022006867,72577.40106971283
1712022006908,68163.48955577658
1712022006948,64892.722771988716
1712022006989,59327.44205425307
1712022007028,53986.54867828172
1712022007069,51783.79210733622
1712022007109,51141.61757952534
1712022007149,48545.47122253198
1712022007190,47638.02856250899
1712022007229,44473.20759602962
1712022007269,40117.08272703737
1712022007309,31021.1893801298
1712022007350,22073.33073765319
1712022007391,15552.651405748446
1712022007430,11718.970360874198
1712022007470,10012.895016671158
1712022007510,8438.596942310221
1712022007550,5523.17834964674
1712022007592,5523.17834964674
1712022007631,5523.17834964674
1712022007671,5427.934802163858
1712022007711,5191.835968678817
1712022007751,5063.221651918255
1712022007792,4780.75257001631
1712022007832,4489.188240508549
1712022007872,4108.020566472318
1712022007912,3138.380066772457
1712022007952,3014.6480238060467
1712022007993,2759.996412730776
1712022008033,2553.606873131357
1712022008073,2395.209152206313
1712022008113,-8627.885152157396
1712022008153,-19239.7342322194
1712022008194,-19239.7342322194
1712022008234,-19239.7342322194
1712022008274,-19239.7342322194
1712022008314,-19239.7342322194
1712022008354,-19239.7342322194
1712022008395,-19239.7342322194
1712022008435,-19239.7342322194
1712022008475,-19239.7342322194
1712022008515,-19239.7342322194
1712022008556,-19239.7342322194
1712022008596,-21017.605482935905
1712022008636,-21017.605482935905
1712022008677,-21017.605482935905
1712022008717,-21017.605482935905
1712022008757,-21017.605482935905
1712022008798,-21017.605482935905
1712022008838,-21017.605482935905
1712022008878,-21017.605482935905
1712022008918,-21017.605482935905
1712022008959,-21017.605482935905
1712022009000,-21302.89536045678
1712022009039,-21302.89536045678
1712022009079,-21302.89536045678
1712022009120,-21302.89536045678
1712022009160,-21302.89536045678
1712022009201,-21302.89536045678
1712022009240,-21302.89536045678
1712022009281,-21302.89536045678
1712022009321,-24843.704806745984
1712022009361,-26449.444496442564
1712022009402,-27209.014507347718
1712022009442,-29762.897114114836
1712022009482,-29762.897114114836
1712022009522,-29762.897114114836
1712022009562,-29762.897114114836
1712022009604,-29762.897114114836
1712022009643,-29762.897114114836
1712022009683,-29762.897114114836
1712022009724,-34209.24735997012
1712022009764,-53899.88473009365
1712022009805,-73550.43170852866
1712022009844,-74090.27242638683
1712022009885,-74090.27242638683
1712022009925,-74090.27242638683
1712022009965,-74090.27242638683
1712022010006,-74090.27242638683
1712022010045,-74090.27242638683
1712022010086,-76305.15985858068
1712022010126,-80559.24363195943
1712022010166,-81472.46175943315
1712022010207,-82386.01588350907
1712022010247,-83114.73054883722
1712022010287,-82386.01588350907
1712022010327,-81472.46175943315
1712022010368,-80559.24363195943
1712022010408,-77240.6717812512
1712022010448,-76305.15985858068
1712022010488,-74090.27242638683
1712022010528,-73109.88420140697
1712022010568,-68296.49104965571
1712022010609,-67019.20939207589
1712022010649,-65200.031399698
1712022010689,-59463.97926393198
1712022010729,-58060.917240305804
1712022010769,-54679.53268628288
1712022010810,-53901.856920204125
1712022010850,-50729.68465865636
1712022010890,-46967.714617530815
1712022010930,-46967.714617530815
1712022010970,-46967.714617530815
1712022011011,-46967.714617530815
1712022011050,-46967.714617530815
1712022011091,-46967.714617530815
1712022011131,-46967.714617530815
1712022011171,-46967.714617530815
1712022011212,-46967.714617530815
1712022011251,-44678.308858142234
1712022011291,-41382.5982585242
1712022011332,-40784.90652691852
1712022011372,-40784.90652691852
1712022011413,-40784.90652691852
1712022011452,-40784.90652691852
1712022011492,-40784.90652691852
1712022011533,-40784.90652691852
1712022011573,-40784.90652691852
1712022011614,-41382.5982585242
1712022011653,-46967.714617530815
1712022011694,-47181.29012119211
1712022011734,-48114.38141805632
1712022011774,-48114.38141805632
1712022011815,-48114.38141805632
1712022011855,-48114.38141805632
1712022011895,-48114.38141805632
1712022011935,-48114.38141805632
1712022011975,-47181.29012119211
1712022012016,-46948.62594718952
1712022012057,-42348.65924992645
1712022012097,-42348.65924992645
1712022012137,-42348.65924992645
1712022012177,-42348.65924992645
1712022012218,-42348.65924992645
1712022012258,-42348.65924992645
1712022012298,-42348.65924992645
1712022012338,-42348.65924992645
1712022012379,-42348.65924992645
1712022012420,-42348.65924992645
1712022012459,-34692.32899109973
1712022012499,-31450.527541063726
1712022012540,-31450.527541063726
1712022012580,-31450.527541063726
1712022012621,-29861.414719162043
1712022012661,-27835.502830569632
1712022012701,-27742.12486116402
1712022012741,-26566.758693594486
1712022012781,-23869.567366052885
1712022012822,-22199.40027627442
1712022012862,-20763.02456054371
1712022012902,-20597.01560140634
1712022012942,-17537.999798385892
1712022012982,-17455.326850253157
1712022013024,-12756.906112628523
1712022013063,-12756.906112628523
1712022013103,-12756.906112628523
1712022013144,-12756.906112628523
1712022013184,-12756.906112628523
1712022013225,-12756.906112628523
1712022013264,-7107.207138603553
1712022013304,-7107.207138603553
1712022013345,-7107.207138603553
1712022013385,-7107.207138603553
1712022013426,-7107.207138603553
1712022013465,-7107.207138603553
1712022013506,-7107.207138603553
1712022013546,-7107.207138603553
1712022013586,-6326.43344409205
1712022013627,-5481.959984278306
1712022013667,-3055.680403644219
1712022013707,-1468.2819629693404
1712022013747,406.92313281679526
1712022013787,406.92313281679526
1712022013828,406.92313281679526
1712022013868,406.92313281679526
1712022013908,406.92313281679526
1712022013948,406.92313281679526
1712022013988,-1468.2819629693404
1712022014029,-5157.9998810999095
1712022014068,-5481.959984278306
1712022014108,-5481.959984278306
1712022014148,-5481.959984278306
1712022014188,-5157.9998810999095
1712022014229,-5136.086448413786
1712022014269,-4970.23722522473
1712022014309,-3032.4913870301098
1712022014349,-1468.2819629693404
1712022014389,57.293359444011
1712022014430,1279.811684396118
1712022014469,2461.1450588442385
1712022014509,3906.4866201919504
1712022014549,3906.4866201919504
1712022014590,3906.4866201919504
1712022014630,3906.4866201919504
1712022014670,1279.811684396118
1712022014710,957.6996931657195
1712022014750,57.293359444011
1712022014790,-189.21720140008256
1712022014831,-189.21720140008256
1712022014870,-189.21720140008256
1712022014910,-189.21720140008256
1712022014951,57.293359444011
1712022014991,957.6996931657195
1712022015032,3154.792383287102
1712022015071,3906.4866201919504
1712022015111,6497.011601104401
1712022015151,8021.899282039143
1712022015191,10623.522322484292
1712022015232,13834.546094041318
1712022015272,15134.16557462234
1712022015312,18306.661167786457
1712022015352,13834.546094041318
1712022015392,6497.011601104401
1712022015433,5317.997581376694
1712022015472,3154.792383287102
1712022015512,3154.792383287102
1712022015553,3154.792383287102
1712022015593,3154.792383287102
1712022015633,3154.792383287102
1712022015673,3154.792383287102
1712022015713,3154.792383287102
1712022015753,3154.792383287102
1712022015793,-6946.122123423964
1712022015834,-8283.989819159266
1712022015874,-8283.989819159266
1712022015914,-8283.989819159266
1712022015954,-8283.989819159266
1712022015994,-8283.989819159266
1712022016035,-8283.989819159266
1712022016074,-8283.989819159266
1712022016114,-8283.989819159266
1712022016154,-8283.989819159266
1712022016194,-8283.989819159266
1712022016235,-8283.989819159266
1712022016275,150.6415481250733
1712022016315,11880.815038322471
1712022016355,28744.42050583707
1712022016395,37889.26474667061
1712022016436,39237.954510026146
1712022016475,40159.02633309923
1712022016516,49637.4056961718
1712022016556,65052.05917362729
1712022016596,76725.79154055938
1712022016637,76930.79465237446
1712022016676,77306.83096802514
1712022016716,79668.77804807667
1712022016757,88558.54175045714
1712022016797,102196.11362823425
1712022016837,112806.99739678483
1712022016877,115765.2378444639
1712022016917,115765.2378444639
1712022016957,115765.2378444639
1712022016998,115765.2378444639
1712022017038,115765.2378444639
1712022017078,115765.2378444639
1712022017118,115765.2378444639
1712022017158,115765.2378444639
1712022017198,115765.2378444639
1712022017239,115765.2378444639
1712022017278,115765.2378444639
1712022017318,112685.0707801953
1712022017359,110740.07779053971
1712022017399,106738.06720286421
1712022017440,105485.64558957098
1712022017479,103739.62856484205
1712022017519,99862.82463604584
1712022017559,98847.80360105867
1712022017600,96004.20495397784
1712022017640,95860.07744992571
1712022017680,95048.57195903407
1712022017720,94867.44515734818
1712022017760,94749.9035014552
1712022017800,93305.651260796
1712022017841,91920.39415688906
1712022017881,90139.13419898227
1712022017921,87946.52027578652
1712022017961,87503.74044157751
1712022018001,85262.2342359433
1712022018042,79450.03908362426
1712022018082,76389.88356532808
1712022018122,75944.82608230785
1712022018162,73330.52425111458
1712022018202,71460.34152885526
1712022018243,71400.78908015741
1712022018282,70075.20465714019
1712022018323,68866.59678810276
1712022018363,67302.24606534932
1712022018403,66709.17520056479
1712022018444,65627.86897919932
1712022018483,64789.264305212535
1712022018523,63710.60259539075
1712022018564,62436.037269050255
1712022018604,61663.29368552193
1712022018644,59855.27535580378
1712022018684,58936.80610227492
1712022018724,58592.36141872639
1712022018764,57336.75087821437
1712022018805,56504.81880617514
1712022018845,53946.00226148125
1712022018885,53310.47853315668
1712022018925,52232.38578205742
1712022018965,52232.38578205742
1712022019005,51882.76775717875
1712022019046,51573.28512332775
1712022019085,51547.831856843084
1712022019125,51349.195675896015
1712022019165,51162.79696484376
1712022019205,49825.63233016804
1712022019246,49590.58167892927
1712022019286,49328.72037929203
1712022019326,49123.943197130226
1712022019366,48950.04670051485
1712022019406,38439.14421782456
1712022019447,32599.84883314185
1712022019486,28609.630379595794
1712022019526,27743.553050179966
1712022019566,10942.323180929758
1712022019606,10520.148733886424
1712022019647,5447.744957743213
1712022019687,690.4149132454768
1712022019727,-8531.909859814681
1712022019767,-9883.419397925958
1712022019807,-23565.993276805617
1712022019848,-25708.28257974051
1712022019887,-31336.357054362074
1712022019927,-40909.5549749136
1712022019967,-85089.0485950103
1712022020008,-98353.66437029466
1712022020048,-101833.99576932797
1712022020088,-122954.55546209775
1712022020128,-126612.52222654317
1712022020168,-132083.84732064698
1712022020208,-138820.02474538703
1712022020249,-139832.93128992245
1712022020289,-139832.93128992245
1712022020329,-139832.93128992245
1712022020369,-139832.93128992245
1712022020409,-139832.93128992245
1712022020450,-138820.02474538703
1712022020489,-132083.84732064698
1712022020529,-129927.35997686721
1712022020569,-126612.52222654317
1712022020609,-122954.55546209775
1712022020650,-113165.78398045525
1712022020690,-101978.29327276675
1712022020730,-101833.99576932797
1712022020770,-98353.66437029466
1712022020810,-93757.05026016012
1712022020851,-87842.98591134604
1712022020890,-85606.84100069338
1712022020930,-84073.03360215016
1712022020971,-82832.84699001117
1712022021011,-74537.21121460712
1712022021052,-68941.4903055057
1712022021091,-61150.22187990509
1712022021131,-58948.72656099638
1712022021171,-58115.28928769939
1712022021212,-50664.04425991606
1712022021252,-25901.336164949927
1712022021292,17094.610021898523
1712022021332,34103.667949078605
1712022021372,38891.24750620825
1712022021412,44574.86909707636
1712022021453,47486.88799782144
1712022021492,63753.28044174332
1712022021532,73389.7653697799
1712022021573,73389.7653697799
1712022021613,73389.7653697799
1712022021654,73389.7653697799
1712022021693,73389.7653697799
1712022021733,73389.7653697799
1712022021773,71332.9239499066
1712022021814,64389.99726619944
1712022021854,63753.28044174332
1712022021894,52721.188166483305
1712022021934,47486.88799782144
1712022021974,44574.86909707636
1712022022014,41778.17357126158
1712022022055,41778.17357126158
1712022022094,41778.17357126158
1712022022134,24358.82655019313
1712022022175,21747.46241980372
1712022022215,12331.499079626054
1712022022256,-1710.121355155483
1712022022295,-7133.253145835828
1712022022335,-9745.977850157768
1712022022375,-10946.368024508003
1712022022416,-30759.975936583243
1712022022456,-49495.24346106406
1712022022496,-49495.24346106406
1712022022536,-49495.24346106406
1712022022576,-49495.24346106406
1712022022616,-49495.24346106406
1712022022657,-49495.24346106406
1712022022697,-49495.24346106406
1712022022737,-49495.24346106406
1712022022777,-58676.6105495533
1712022022817,-60093.95566592086
1712022022858,-68752.94962511864
1712022022897,-81495.90227754693
1712022022937,-90966.68199110217
1712022022978,-90966.68199110217
1712022023018,-82690.38765407633
1712022023058,-81495.90227754693
1712022023098,-66774.44734330568
1712022023138,-66774.44734330568
1712022023178,-66774.44734330568
1712022023218,-66425.6730282288
1712022023259,-63447.030843191314
1712022023299,-63079.64564483799
1712022023339,-63079.64564483799
1712022023379,-63079.64564483799
1712022023419,-63079.64564483799
1712022023460,-63079.64564483799
1712022023500,-63079.64564483799
1712022023540,-63079.64564483799
1712022023580,-63079.64564483799
1712022023620,-63079.64564483799
1712022023661,-54040.23108648416
1712022023700,-36969.94295399031
1712022023741,-36969.94295399031
1712022023781,-36969.94295399031
1712022023821,-36969.94295399031
1712022023862,-36969.94295399031
1712022023901,-36969.94295399031
1712022023941,-24994.47741853539
1712022023982,-23542.9157598773
1712022024022,-14238.456523774657
1712022024062,-6950.773884750903
1712022024102,-4821.088131994009
1712022024142,-516.8249918068759
1712022024182,2719.1452166144736
1712022024222,3791.1495035663247
1712022024263,9262.0143877808
1712022024303,16791.292204014026
1712022024343,25829.590324068442
1712022024383,26244.432417700067
1712022024423,74013.98050104314
1712022024464,87246.97067177203
1712022024503,90178.72042433731
1712022024543,90832.86821369175
1712022024583,90832.86821369175
1712022024623,90832.86821369175
1712022024664,90832.86821369175
1712022024704,90832.86821369175
1712022024744,90832.86821369175
1712022024784,90832.86821369175
1712022024824,90832.86821369175
1712022024865,90832.86821369175
1712022024904,90178.72042433731
1712022024944,87246.97067177203
1712022024984,80347.10255663237
1712022025024,66259.97123548202
1712022025065,45716.850130316336
1712022025104,27253.132517657243
1712022025144,27253.132517657243
1712022025185,27253.132517657243
1712022025225,27253.132517657243
1712022025266,27253.132517657243
1712022025305,25026.75864287326
1712022025345,25026.75864287326
1712022025385,25026.75864287326
1712022025426,25026.75864287326
1712022025466,25026.75864287326
1712022025505,25026.75864287326
1712022025546,27253.132517657243
1712022025586,30774.242766248994
1712022025626,31886.58451493364
1712022025667,32900.66003961209
1712022025706,41790.06298539415
1712022025746,57611.754847483244
1712022025786,59416.931133971084
1712022025826,59509.3822292136
1712022025867,60565.47567886859
1712022025907,61457.13647559192
1712022025947,61661.40261091385
1712022025987,63132.35645045759
1712022026027,63713.32357219327
1712022026068,63713.32357219327
1712022026107,63713.32357219327
1712022026147,63713.32357219327
1712022026187,63713.32357219327
1712022026228,63132.35645045759
1712022026269,61661.40261091385
1712022026308,61661.40261091385
1712022026348,61661.40261091385
1712022026388,61704.44628788624
1712022026429,63132.35645045759
1712022026470,63713.32357219327
1712022026509,63713.32357219327
1712022026550,63713.32357219327
1712022026590,63713.32357219327
1712022026630,63132.35645045759
1712022026671,61704.44628788624
1712022026710,60479.84944222635
1712022026750,58000.56882576691
1712022026790,53382.825681463815
1712022026831,51522.675175668206
1712022026871,50261.94006941654
1712022026911,49598.80445226468
1712022026951,48985.47388214758
1712022026991,48280.109430070035
1712022027031,47029.98641200736
1712022027072,43127.32016384415
1712022027112,-8847.049923708662
1712022027152,-57540.128776100464
1712022027192,-91417.44739892334
1712022027232,-94626.83739551064
1712022027273,-117434.15945373476
1712022027312,-120740.5335213039
1712022027352,-127947.2494921796
1712022027392,-133666.73988943966
1712022027433,-137416.0893478808
1712022027473,-138686.04984582588
1712022027513,-146438.64061070932
1712022027553,-154136.1145386193
1712022027593,-158081.25628935173
1712022027633,-161439.42661349848
1712022027674,-176432.81133409403
1712022027713,-176432.81133409403
1712022027753,-176432.81133409403
1712022027794,-176432.81133409403
1712022027834,-204408.54210032662
1712022027875,-238154.24534239992
1712022027914,-238154.24534239992
1712022027954,-238154.24534239992
1712022027994,-238154.24534239992
1712022028034,-238154.24534239992
1712022028075,-238154.24534239992
1712022028115,-238154.24534239992
1712022028155,-238154.24534239992
1712022028195,-238154.24534239992
1712022028235,-238154.24534239992
1712022028276,-238154.24534239992
1712022028316,-216342.74691856466
1712022028356,-172632.4466938451
1712022028396,-120352.72187374951
1712022028436,-14796.434337258339
1712022028477,57618.756405673455
1712022028516,58273.66533529991
1712022028556,58273.66533529991
1712022028596,58273.66533529991
1712022028637,58273.66533529991
1712022028678,58273.66533529991
1712022028717,58677.255496869795
1712022028757,60484.673658840824
1712022028797,93879.29808329744
1712022028837,98275.88679598738
1712022028878,112408.91490802774
1712022028918,119639.04949895525
1712022028958,119639.04949895525
1712022028998,119247.7604255015
1712022029038,117512.15773917222
1712022029079,115658.58211379731
1712022029118,112408.91490802774
1712022029159,109813.66574494448
1712022029199,98275.88679598738
1712022029239,74412.09742104216
1712022029280,74412.09742104216
1712022029319,74412.09742104216
1712022029359,74412.09742104216
1712022029400,74412.09742104216
1712022029440,74412.09742104216
1712022029480,74412.09742104216
1712022029520,74412.09742104216
1712022029560,74412.09742104216
1712022029600,74412.09742104216
1712022029641,74412.09742104216
1712022029681,74412.09742104216
1712022029721,74412.09742104216
1712022029761,74412.09742104216
1712022029801,74412.09742104216
1712022029841,74412.09742104216
1712022029882,74412.09742104216
1712022029921,74412.09742104216
1712022029962,120046.70335756335
1712022030002,161999.83060369035
1712022030042,191367.51035870332
1712022030083,191367.51035870332
1712022030122,191367.51035870332
1712022030162,191367.51035870332
1712022030202,191367.51035870332
1712022030242,191367.51035870332
1712022030283,191367.51035870332
1712022030322,191367.51035870332
1712022030363,191367.51035870332
1712022030403,191367.51035870332
1712022030443,191367.51035870332
1712022030484,178484.44209955866
1712022030523,178484.44209955866
1712022030563,178484.44209955866
1712022030603,178484.44209955866
1712022030643,178484.44209955866
1712022030684,178484.44209955866
1712022030724,178484.44209955866
1712022030764,178484.44209955866
1712022030804,152897.1740339161
1712022030844,152686.63309709355
1712022030885,148531.6461593313
1712022030924,144501.33053846937
1712022030964,144501.33053846937
1712022031004,144501.33053846937
1712022031044,144501.33053846937
1712022031085,141811.56212645397
1712022031125,140184.60237290617
1712022031165,140184.60237290617
1712022031205,140184.60237290617
1712022031245,90009.01286284067
1712022031286,82071.05834419746
1712022031325,81512.5949457949
1712022031365,69666.9965523351
1712022031406,54739.31035077758
1712022031446,50798.27936538495
1712022031486,42509.64637677558
1712022031526,42433.11024260614
1712022031566,38420.1315580504
1712022031606,29256.60879749991
1712022031646,-5492.066584093496
1712022031687,-6791.922325156629
1712022031726,-7106.419332483783
1712022031767,-10195.227621934842
1712022031807,-10736.88948673848
1712022031847,-13518.099666657392
1712022031888,-19059.916259688325
1712022031927,-19059.916259688325
1712022031967,-19059.916259688325
1712022032007,-19059.916259688325
1712022032047,-19059.916259688325
1712022032088,-19059.916259688325
1712022032128,-25501.511757271364
1712022032168,-46631.005556710996
1712022032208,-54683.93136767764
1712022032248,-62538.16661344655
1712022032289,-67302.64050901309
1712022032328,-77653.28899804456
1712022032368,-81373.80540485866
1712022032408,-92119.13798942883
1712022032449,-96664.22318696976
1712022032489,-101926.2790614292
1712022032529,-101926.2790614292
1712022032569,-101926.2790614292
1712022032609,-101926.2790614292
1712022032649,-102975.99072886631
1712022032690,-125792.67656469997
1712022032729,-132965.47561451048
1712022032770,-133572.01188912056
1712022032810,-140964.74694226962
1712022032850,-140964.74694226962
1712022032891,-140964.74694226962
1712022032930,-140964.74694226962
1712022032970,-140964.74694226962
1712022033011,-140964.74694226962
1712022033051,-133572.01188912056
1712022033091,-133572.01188912056
1712022033131,-133572.01188912056
1712022033171,-119632.90703395195
1712022033211,-120327.01653240016
1712022033251,-120327.01653240016
1712022033292,-119632.90703395195
1712022033332,-119518.89755567908
1712022033372,-118385.86559476145
1712022033412,-117588.09022235638
1712022033455,-111498.68537211511
1712022033493,-101995.90168328583
1712022033532,-95171.97069345042
1712022033572,-93316.77249197429
1712022033613,-92170.05204622447
1712022033653,-76302.68456681678
1712022033694,-76184.67158319987
1712022033733,-76184.67158319987
1712022033773,-24788.759689663537
1712022033813,-13890.714359921403
1712022033854,36890.534750657156
1712022033894,43497.79360501608
1712022033934,46711.88238756452
1712022033974,74858.91532898135
1712022034014,80155.60174181219
1712022034054,91066.82445545681
1712022034095,97952.28878834378
1712022034135,115339.4082965618
1712022034175,115339.4082965618
1712022034215,115339.4082965618
1712022034255,115339.4082965618
1712022034296,97952.28878834378
1712022034335,91066.82445545681
1712022034375,74858.91532898135
1712022034416,73131.19673328474
1712022034456,46711.88238756452
1712022034497,43497.79360501608
1712022034536,36890.534750657156
1712022034576,16599.06407792261
1712022034616,16599.06407792261
1712022034657,933.2558219023049
1712022034698,-3090.087181054987
1712022034737,-47455.916370518506
1712022034777,-78515.27066978766
1712022034817,-104095.16360191209
1712022034857,-112380.99838705873
1712022034898,-129078.73284233082
1712022034938,-129078.73284233082
1712022034978,-129078.73284233082
1712022035018,-129078.73284233082
1712022035058,-129078.73284233082
1712022035099,-129078.73284233082
1712022035138,-129078.73284233082
1712022035179,-129078.73284233082
1712022035219,-129078.73284233082
1712022035259,-112380.99838705873
1712022035300,-78515.27066978766
1712022035339,-68146.3691877122
1712022035379,-35049.31272709835
1712022035420,14532.836082024965
1712022035460,31648.33555175364
1712022035501,33696.4989797282
1712022035540,37889.25928793568
1712022035580,42465.907390264794
1712022035620,45575.82569578756
1712022035663,64915.78653500229
1712022035701,92513.26135991514
1712022035741,96168.9097914761
1712022035781,98791.93856030237
1712022035821,98791.93856030237
1712022035861,110211.56429358944
1712022035902,98791.93856030237
1712022035941,98791.93856030237
1712022035981,98791.93856030237
1712022036021,98791.93856030237
1712022036061,98791.93856030237
1712022036102,97949.95734443376
1712022036142,92590.3801352987
1712022036182,92513.26135991514
1712022036222,87383.00166642573
1712022036262,87383.00166642573
1712022036303,87383.00166642573
1712022036342,87383.00166642573
1712022036383,87383.00166642573
1712022036423,90370.65206016321
1712022036463,90370.65206016321
1712022036504,89117.00130978227
1712022036543,87383.00166642573
1712022036583,77057.3039191966
1712022036623,59552.54735093005
1712022036663,57210.52140051965
1712022036704,57210.52140051965
1712022036744,57210.52140051965
1712022036784,59552.54735093005
1712022036824,77057.3039191966
1712022036864,87383.00166642573
1712022036905,89117.00130978227
1712022036944,89117.00130978227
1712022036984,89117.00130978227
1712022037024,89117.00130978227
1712022037064,89117.00130978227
1712022037105,89117.00130978227
1712022037145,40812.98437230755
1712022037185,34500.53603412863
1712022037225,34500.53603412863
1712022037265,34500.53603412863
1712022037306,29178.02970540151
1712022037345,27805.186272887513
1712022037385,27805.186272887513
1712022037425,29178.02970540151
1712022037466,34500.53603412863
1712022037506,56282.6936950339
1712022037546,56282.6936950339
1712022037586,56282.6936950339
1712022037626,56282.6936950339
1712022037666,54269.305845553055
1712022037707,50312.96600220306
1712022037747,49951.95557248313
1712022037787,50312.96600220306
1712022037827,51853.181673323736
1712022037870,51853.181673323736
1712022037908,51853.181673323736
1712022037947,51853.181673323736
1712022037987,51853.181673323736
1712022038027,51853.181673323736
1712022038068,50312.96600220306
1712022038108,50312.96600220306
1712022038148,51853.181673323736
1712022038188,53603.65428596502
1712022038228,54269.305845553055
1712022038268,54269.305845553055
1712022038309,54269.305845553055
1712022038348,54269.305845553055
1712022038389,54269.305845553055
1712022038429,53603.65428596502
1712022038466,52160.24694900308
1712022038507,51853.181673323736
1712022038546,51853.181673323736
1712022038586,51853.181673323736
1712022038626,45129.396080545615
1712022038667,40783.34660846647
1712022038707,40783.34660846647
1712022038747,40783.34660846647
1712022038787,40783.34660846647
1712022038827,40783.34660846647
1712022038867,40783.34660846647
1712022038908,22855.46520293504
1712022038947,20079.965482443105
1712022038988,14293.848194545135
1712022039028,10112.737425900064
1712022039068,533.650625010021
1712022039109,-11587.525371094234
1712022039148,-11587.525371094234
1712022039188,-12466.67760453187
1712022039228,-23509.72597024357
1712022039269,-42146.51935341535
1712022039309,-45767.50743075553
1712022039349,-52617.03835300356
1712022039389,-53308.5397147662
1712022039429,-55061.346590946894
1712022039469,-59688.23010911234
1712022039510,-61266.36376735382
1712022039550,-61498.7035909188
1712022039590,-75753.62545794342
1712022039630,-75906.04147732351
1712022039670,-76722.80735892942
1712022039711,-157416.61273500137
1712022039751,-157416.61273500137
1712022039791,-157416.61273500137
1712022039831,-157416.61273500137
1712022039871,-157416.61273500137
1712022039912,-157416.61273500137
1712022039951,-157416.61273500137
1712022039992,-157416.61273500137
1712022040032,-157416.61273500137
1712022040072,-157416.61273500137
1712022040113,-157416.61273500137
1712022040152,-97083.19087566715
1712022040192,-35900.2217987515
1712022040233,3395.825629621744
1712022040273,39170.13211914897
1712022040313,39170.13211914897
1712022040353,39170.13211914897
1712022040393,39170.13211914897
1712022040433,39170.13211914897
1712022040474,39170.13211914897
1712022040514,39170.13211914897
1712022040554,39170.13211914897
1712022040594,39170.13211914897
1712022040634,39170.13211914897
1712022040674,39170.13211914897
1712022040715,12385.322093037888
1712022040755,12385.322093037888
1712022040795,12385.322093037888
1712022040835,12385.322093037888
1712022040875,12385.322093037888
1712022040916,12385.322093037888
1712022040956,12385.322093037888
1712022040996,12385.322093037888
1712022041036,12385.322093037888
1712022041076,11617.828143272549
1712022041117,10648.120795156807
1712022041156,-5461.687978107482
1712022041196,-16266.022958897054
1712022041236,-16266.022958897054
1712022041277,-16266.022958897054
1712022041317,-16266.022958897054
1712022041357,-16266.022958897054
1712022041397,-16266.022958897054
1712022041437,-16266.022958897054
1712022041477,-16266.022958897054
1712022041518,-48919.99579867162
1712022041557,-48919.99579867162
1712022041597,-48919.99579867162
1712022041638,-48919.99579867162
1712022041678,-48919.99579867162
1712022041718,-48919.99579867162
1712022041758,-49372.32537441328
1712022041798,-54809.823519217316
1712022041838,-56849.822547302116
1712022041878,-56849.822547302116
1712022041919,-56849.822547302116
1712022041959,-56849.822547302116
1712022041999,-54809.823519217316
1712022042039,-48919.99579867162
1712022042079,-43206.950479647145
1712022042120,-35148.831261872314
1712022042159,-34728.02655332629
1712022042199,-28104.227145635523
1712022042239,-27838.93377211783
1712022042280,-11589.287412144244
1712022042320,-11589.287412144244
1712022042360,-11589.287412144244
1712022042400,-11589.287412144244
1712022042440,-11589.287412144244
1712022042480,-11589.287412144244
1712022042521,-11589.287412144244
1712022042560,-11589.287412144244
1712022042600,-11589.287412144244
1712022042641,-11589.287412144244
1712022042681,-11589.287412144244
1712022042722,-21815.054992971476
1712022042761,-27305.294534377754
1712022042801,-34253.69076997507
1712022042841,-58828.22498294106
1712022042882,-87429.78762226459
1712022042922,-115264.8632812365
1712022042962,-138569.93889839202
1712022043002,-150394.7659313539
1712022043042,-150394.7659313539
1712022043082,-150394.7659313539
1712022043123,-150394.7659313539
1712022043162,-158260.16796354624
1712022043202,-160224.2951726513
1712022043243,-165001.52971400646
1712022043283,-166286.78258650377
1712022043323,-166944.3299603355
1712022043363,-172432.27895431314
1712022043403,-172432.27895431314
1712022043443,-172432.27895431314
1712022043484,-172432.27895431314
1712022043524,-172432.27895431314
1712022043564,-166944.3299603355
1712022043604,-166286.78258650377
1712022043644,-160224.2951726513
1712022043684,-159269.5709005231
1712022043725,-146782.6299179038
1712022043764,-145079.93276535766
1712022043804,-143054.09931443166
1712022043845,-140060.26753608882
1712022043885,-134513.35188374342
1712022043925,-134513.35188374342
1712022043965,-133459.02367467852
1712022044005,-125208.94415373169
1712022044045,-115470.13946930226
1712022044085,-114154.26020175032
1712022044126,-113940.41170028038
1712022044166,-111668.44370895624
1712022044206,-107954.93553747144
1712022044246,-105140.60886438191
1712022044286,-100805.95619381405
1712022044327,-100470.39905469958
1712022044366,-96964.07561291661
1712022044406,-93979.40409890795
1712022044447,-91280.91388968006
1712022044487,-89490.11943750829
1712022044528,-85476.92547453288
1712022044567,-79773.86781096086
1712022044607,-73627.34222983988
1712022044647,-66489.45271607861
1712022044688,-65926.77452147775
1712022044728,-65315.84241086175
1712022044768,-60994.9835803709
1712022044808,-60809.835877152625
1712022044848,-57594.355952115264
1712022044888,-53963.17135229148
1712022044929,-49256.63342246739
1712022044969,-49107.42521918658
1712022045009,-47584.97258483246
1712022045049,-45977.833415915025
1712022045089,-42721.25924751116
1712022045130,-42721.25924751116
1712022045169,-42721.25924751116
1712022045209,-43354.70805654302
1712022045250,-43354.70805654302
1712022045290,-42721.25924751116
1712022045331,-41313.05432625604
1712022045370,-38546.59424099
1712022045410,-35898.12832724769
1712022045451,-33050.167507143924
1712022045491,-32389.11028560344
1712022045532,-30366.695243521826
1712022045571,-29913.70274755545
1712022045611,-27363.49481072789
1712022045651,-25736.371447389247
1712022045692,-22830.38014873257
1712022045732,-20920.7294451762
1712022045772,-20920.7294451762
1712022045812,-25736.371447389247
1712022045852,-29913.70274755545
1712022045892,-29913.70274755545
1712022045933,-27751.90136489598
1712022045973,-25736.371447389247
1712022046013,-23299.25440186821
1712022046053,-20948.975428580772
1712022046093,-20920.7294451762
1712022046134,-19782.395473879995
1712022046173,-18238.79185795365
1712022046214,-16072.701726430096
1712022046254,-14473.720992757473
1712022046294,-10502.239390259841
1712022046335,-10260.141954609193
1712022046374,-5186.03466402553
1712022046414,-10260.141954609193
1712022046454,-14473.720992757473
1712022046494,-16075.227137509966
1712022046535,-16075.227137509966
1712022046574,-14473.720992757473
1712022046615,-13587.553154583788
1712022046655,-10260.141954609193
1712022046695,-9124.891103472328
1712022046736,-6209.344790021423
1712022046775,-4927.954069441184
1712022046815,-4117.020542155718
1712022046855,-3885.3871546452865
1712022046895,-1779.274960137438
1712022046936,569.7030956330709
1712022046976,2149.3668649811298
1712022047016,6341.657278615981
1712022047056,2149.3668649811298
1712022047096,-546.8972660317086
1712022047137,-1779.274960137438
1712022047176,-2900.077379538212
1712022047216,-1779.274960137438
1712022047256,-546.8972660317086
1712022047296,2149.3668649811298
1712022047337,2506.758807457518
1712022047377,6017.658861042466
1712022047417,6501.39499768056
1712022047457,6616.395675420994
1712022047497,8592.854587659705
1712022047538,11107.973786434857
1712022047577,12232.581777889747
1712022047617,15260.40648281388
1712022047657,15402.197571212193
1712022047698,15402.197571212193
1712022047738,15260.40648281388
1712022047778,12232.581777889747
1712022047818,8592.854587659705
1712022047858,8553.60781481117
1712022047898,8592.854587659705
1712022047939,11601.538954917807
1712022047978,12120.247838713229
1712022048018,12232.581777889747
1712022048058,13452.083533211611
1712022048098,13611.977572889999
1712022048139,15402.197571212193
1712022048179,16145.081365813734
1712022048219,19124.80574640259
1712022048259,19413.066045631655
1712022048299,22484.21956937248
1712022048340,22484.21956937248
1712022048379,22484.21956937248
1712022048419,21733.534297775477
1712022048459,20540.338694879785
1712022048499,20540.338694879785
1712022048540,20540.338694879785
1712022048580,21733.534297775477
1712022048620,22434.492846077308
1712022048660,22484.21956937248
1712022048700,23463.95669776504
1712022048741,23981.91685977718
1712022048780,24236.81526716752
1712022048820,25430.71359679289
1712022048860,25475.67653495376
1712022048901,25914.33348642895
1712022048941,27268.179912309395
1712022048981,27560.53032099409
1712022049021,27560.53032099409
1712022049061,27268.179912309395
1712022049101,25914.33348642895
1712022049142,25430.71359679289
1712022049181,24236.81526716752
1712022049221,23981.91685977718
1712022049262,23981.91685977718
1712022049302,23981.91685977718
1712022049342,23981.91685977718
1712022049382,23463.95669776504
1712022049422,23437.804124061484
1712022049462,13893.764698634623
1712022049502,13893.764698634623
1712022049543,13893.764698634623
1712022049582,13893.764698634623
1712022049623,13893.764698634623
1712022049663,11528.64980502706
1712022049703,9815.65545746684
1712022049744,9571.51975855371
1712022049783,8959.38101498317
1712022049823,8461.776284314226
1712022049863,7998.572755658301
1712022049903,7342.381743719336
1712022049944,7342.381743719336
1712022049984,7342.381743719336
1712022050024,7342.381743719336
1712022050064,4713.68656573398
1712022050104,3109.2376374839805
1712022050145,3109.2376374839805
1712022050184,3109.2376374839805
1712022050225,3109.2376374839805
1712022050265,168.66197022330016
1712022050305,-2390.7035513732117
1712022050346,-4778.627044885885
1712022050385,-4813.428698270349
1712022050425,-5258.143991463352
1712022050465,-5731.824385957094
1712022050507,-6052.218380191363
1712022050548,-6052.218380191363
1712022050588,-6052.218380191363
1712022050628,-6052.218380191363
1712022050668,-6052.218380191363
1712022050708,-9821.062866317108
1712022050749,-9821.062866317108
1712022050788,-9821.062866317108
1712022050828,-9821.062866317108
1712022050869,-13279.380442924099
1712022050909,-16285.871680509998
1712022050950,-17343.846149326768
1712022050989,-19640.021259164438
1712022051029,-20042.28009823407
1712022051069,-21094.575095796725
1712022051109,-21455.651501482585
1712022051150,-22336.452933765016
1712022051190,-22336.452933765016
1712022051230,-22336.452933765016
1712022051270,-22336.452933765016
1712022051310,-21455.651501482585
1712022051351,-21094.575095796725
1712022051390,-20044.844423009083
1712022051430,-20044.844423009083
1712022051470,-23123.2787210471
1712022051511,-26593.709136064164
1712022051552,-28582.966235593893
1712022051591,-29205.97053726716
1712022051631,-29600.84063091781
1712022051671,-30303.616152649978
1712022051711,-30386.047532102093
1712022051752,-31682.03536839923
1712022051792,-31682.03536839923
1712022051832,-31682.03536839923
1712022051872,-31682.03536839923
1712022051912,-30879.387415235164
1712022051953,-30879.387415235164
1712022051992,-30922.270375144435
1712022052033,-34911.04256328661
1712022052073,-37433.68481581891
1712022052113,-39758.54090387933
1712022052154,-39758.54090387933
1712022052193,-39758.54090387933
1712022052233,-39758.54090387933
1712022052274,-39758.54090387933
1712022052314,-39758.54090387933
1712022052354,-39724.338978143875
1712022052394,-37433.68481581891
1712022052434,-34911.04256328661
1712022052474,-32402.936420780607
1712022052514,-30922.270375144435
1712022052555,-30879.387415235164
1712022052594,-27649.926783293253
1712022052635,-27041.99795610225
1712022052674,-23328.510590985185
1712022052715,-19399.285593227483
1712022052755,-16767.18538292451
1712022052795,-16237.678116438212
1712022052835,-15303.363764445297
1712022052875,-13410.74087423319
1712022052915,-9635.064948059618
1712022052956,-9433.033902722877
1712022052995,-7838.348723306786
1712022053035,-4734.419200753095
1712022053075,-3144.2034018493723
1712022053116,-2117.1328631455544
1712022053157,713.1667051755358
1712022053196,2277.483471407555
1712022053236,5523.262957541039
1712022053276,6391.189756930806
1712022053316,8137.052570363274
1712022053357,8355.227824063273
1712022053396,6391.189756930806
1712022053437,5523.262957541039
1712022053477,4742.370673044585
1712022053517,5523.262957541039
1712022053557,8355.227824063273
1712022053597,8583.81357644475
1712022053637,10221.637336682994
1712022053677,10262.603766467888
1712022053717,10735.294748484623
1712022053758,13540.24988056114
1712022053798,15404.828301945236
1712022053838,16263.014123191824
1712022053878,19341.041338415118
1712022053918,21094.103412800934
1712022053959,24331.991294298787
1712022053998,24331.991294298787
1712022054038,24331.991294298787
1712022054078,19341.041338415118
1712022054118,18769.80894040549
1712022054159,16263.014123191824
1712022054199,16263.014123191824
1712022054239,17788.641934406478
1712022054279,18769.80894040549
1712022054319,19341.041338415118
1712022054360,19673.647843218874
1712022054399,19735.987268224126
1712022054439,21392.4547574725
1712022054479,23361.75747215282
1712022054520,24452.386523886118
1712022054560,27148.73233539122
1712022054600,27716.993239708478
1712022054640,30337.99428208708
1712022054680,30337.99428208708
1712022054720,30337.99428208708
1712022054761,30337.99428208708
1712022054801,30337.99428208708
1712022054841,27148.73233539122
1712022054881,23361.75747215282
1712022054921,23361.75747215282
1712022054962,25090.41218551714
1712022055001,27148.73233539122
1712022055041,27346.439027876593
1712022055081,27346.439027876593
1712022055121,28453.77062992379
1712022055162,28714.136189240497
1712022055202,30337.99428208708
1712022055242,30889.894795448985
1712022055282,31729.298545917263
1712022055322,33372.135121572996
1712022055363,33804.37835588516
1712022055402,33804.37835588516
1712022055442,33804.37835588516
1712022055483,33804.37835588516
1712022055523,33804.37835588516
1712022055564,31729.298545917263
1712022055603,30889.894795448985
1712022055643,28714.136189240497
1712022055683,28714.136189240497
1712022055724,28714.136189240497
1712022055764,28863.714798588306
1712022055804,28863.714798588306
1712022055844,29437.03785464284
1712022055884,30889.894795448985
1712022055924,31089.12597090099
1712022055965,33804.37835588516
1712022056005,33863.05926997191
1712022056045,36637.32674678974
1712022056085,36963.317515052855
1712022056125,36963.317515052855
1712022056166,36963.317515052855
1712022056205,36963.317515052855
1712022056246,36963.317515052855
1712022056286,36963.317515052855
1712022056326,36963.317515052855
1712022056367,36963.317515052855
1712022056406,40401.81730538886
1712022056446,40401.81730538886
1712022056486,40401.81730538886
1712022056526,40401.81730538886
1712022056567,40401.81730538886
1712022056607,40401.81730538886
1712022056647,40401.81730538886
1712022056687,40401.81730538886
1712022056727,40401.81730538886
1712022056768,40401.81730538886
1712022056807,40401.81730538886
1712022056848,39804.003116571344
1712022056888,39020.749334067106
1712022056928,38528.12417542236
1712022056969,37570.43719982309
1712022057008,36480.92533833161
1712022057048,36078.657834831625
1712022057089,34850.00412289472
1712022057129,33818.25772687234
1712022057169,32954.81320745917
1712022057209,32815.03851722367
1712022057249,31777.717091320083
1712022057289,28089.64662401937
1712022057329,24622.152772427537
1712022057370,24622.152772427537
1712022057410,24622.152772427537
1712022057450,24622.152772427537
1712022057490,24622.152772427537
1712022057530,24622.152772427537
1712022057571,19092.06632576231
1712022057610,18001.819489646703
1712022057651,17841.800747914705
1712022057691,17041.279252170585
1712022057731,16517.294317968655
1712022057772,16517.294317968655
1712022057811,16517.294317968655
1712022057851,16517.294317968655
1712022057892,16517.294317968655
1712022057932,16385.151870547794
1712022057973,16236.16540835891
1712022058012,5398.720758720301
1712022058052,5398.720758720301
1712022058092,5398.720758720301
1712022058132,5398.720758720301
1712022058173,5398.720758720301
1712022058212,5398.720758720301
1712022058252,4677.218377837911
1712022058293,2790.029745016247
1712022058333,784.8608998851851
1712022058373,478.0777059304528
1712022058413,-192.66737489309162
1712022058453,-689.5611069421284
1712022058493,-689.5611069421284
1712022058533,-689.5611069421284
1712022058574,-806.2031961423345
1712022058613,-1202.4379635946825
1712022058654,-3382.7586966203526
1712022058694,-3382.7586966203526
1712022058734,-3382.7586966203526
1712022058775,-3382.7586966203526
1712022058814,-3382.7586966203526
1712022058854,-3382.7586966203526
1712022058894,-6223.265861653723
1712022058934,-10938.293974593282
1712022058975,-11726.392357843928
1712022059015,-11923.852844213136
1712022059055,-12212.732724062633
1712022059095,-12888.637613337953
1712022059135,-12888.637613337953
1712022059176,-12888.637613337953
1712022059215,-12888.637613337953
1712022059255,-13017.159383194987
1712022059295,-19416.89439582918
1712022059335,-19416.89439582918
1712022059376,-19416.89439582918
1712022059416,-19416.89439582918
1712022059456,-19416.89439582918
1712022059496,-19416.89439582918
1712022059536,-21272.527406587265
1712022059577,-21291.971900324337
1712022059616,-22663.194854911882
1712022059656,-24219.97433826793
1712022059696,-24998.752633395605
1712022059737,-25610.69004976889
1712022059777,-25610.69004976889
1712022059817,-25765.241778898053
1712022059857,-25765.241778898053
1712022059897,-25765.241778898053
1712022059937,-26657.852599713486
1712022059978,-26657.852599713486
1712022060017,-26449.812525711488
1712022060057,-26449.812525711488
1712022060098,-26449.812525711488
1712022060138,-26523.924294597935
1712022060179,-26523.924294597935
1712022060218,-31763.55990765104
1712022060258,-34492.74987610569
1712022060298,-34492.74987610569
1712022060339,-34492.74987610569
1712022060379,-34492.74987610569
1712022060419,-33042.49373692693
1712022060459,-31763.55990765104
1712022060499,-26523.924294597935
1712022060539,-26449.812525711488
1712022060580,-23435.989828942344
1712022060619,-20268.699509378057
1712022060659,-18518.841882204637
1712022060700,-18296.345075103454
1712022060740,-18066.340468334965
1712022060780,-18066.340468334965
1712022060820,-18066.340468334965
1712022060860,-18066.340468334965
1712022060900,-18518.841882204637
1712022060940,-20268.699509378057
1712022060981,-20268.699509378057
1712022061021,-20268.699509378057
1712022061061,-20268.699509378057
1712022061101,-20268.699509378057
1712022061141,-19268.98341956036
1712022061182,-18518.841882204637
1712022061221,-13746.122167711146
1712022061261,-13746.122167711146
1712022061302,-13746.122167711146
1712022061342,-13746.122167711146
1712022061382,-19268.98341956036
1712022061422,-21413.024174751714
1712022061462,-21928.064431899926
1712022061502,-23882.909427938983
1712022061542,-23882.909427938983
1712022061583,-23882.909427938983
1712022061622,-23882.909427938983
1712022061663,-21928.064431899926
1712022061703,-20811.380052703433
1712022061743,-19268.98341956036
1712022061784,-17729.48545144545
1712022061823,-15615.964223251212
1712022061863,-13746.122167711146
1712022061903,-12965.763672855217
1712022061943,-11241.560464943992
1712022061984,-8062.9206999766175
1712022062024,-8062.9206999766175
1712022062064,-8062.9206999766175
1712022062104,-12965.763672855217
1712022062144,-12965.763672855217
1712022062185,-12965.763672855217
1712022062224,-12236.913307324518
1712022062265,-9331.97080342099
1712022062305,-8062.9206999766175
1712022062345,-7400.705204988131
1712022062386,-5231.092093074927
1712022062425,-4227.306502171792
1712022062465,-3994.6734887044877
1712022062506,-3715.1847463888116
1712022062547,-21.4593971518334
1712022062587,416.3208669712767
1712022062627,416.3208669712767
1712022062667,56.39412647415884
1712022062707,-3715.1847463888116
1712022062747,-4227.306502171792
1712022062788,-4227.306502171792
1712022062828,-3728.820993181085
1712022062868,-3715.1847463888116
1712022062908,-1332.264042421477
1712022062948,56.39412647415884
1712022062989,416.3208669712767
1712022063028,783.2821687897667
1712022063068,3026.3331020236947
1712022063109,5823.439288272522
1712022063149,6521.734914896544
1712022063189,8500.407308802474
1712022063229,10642.76374869747
1712022063269,8500.407308802474
1712022063309,5823.439288272522
1712022063349,3026.3331020236947
1712022063390,1931.5975274750963
1712022063430,783.2821687897667
1712022063470,783.2821687897667
1712022063510,985.947476520203
1712022063550,1931.5975274750963
1712022063591,3026.3331020236947
1712022063630,4133.668508413713
1712022063671,5823.439288272522
1712022063711,8481.120051304344
1712022063751,8500.407308802474
1712022063792,12464.676652846858
1712022063831,12495.766344117932
1712022063871,16591.08013510611
1712022063911,12464.676652846858
1712022063951,8481.120051304344
1712022063992,5997.346157510299
1712022064032,4133.668508413713
1712022064072,1931.5975274750963
1712022064112,985.947476520203
1712022064152,2523.3498203146737
1712022064193,4133.668508413713
1712022064232,4857.321973821847
1712022064272,5997.346157510299
1712022064312,7207.958584927488
1712022064352,8481.120051304344
1712022064393,11153.308794504963
1712022064432,12464.676652846858
1712022064473,15219.912989239674
1712022064513,15219.912989239674
1712022064553,15219.912989239674
1712022064594,15219.912989239674
1712022064633,15219.912989239674
1712022064673,15219.912989239674
1712022064713,15219.912989239674
1712022064753,18306.142134576105
1712022064794,18327.032619352452
1712022064833,18327.032619352452
1712022064874,18327.032619352452
1712022064914,18327.032619352452
1712022064954,18327.032619352452
1712022064995,18327.032619352452
1712022065034,18327.032619352452
1712022065074,18327.032619352452
1712022065114,18327.032619352452
1712022065155,18327.032619352452
1712022065195,18327.032619352452
1712022065234,17908.270177466795
1712022065275,17908.270177466795
1712022065315,17908.270177466795
1712022065355,17908.270177466795
1712022065396,17908.270177466795
1712022065435,17908.270177466795
1712022065475,17908.270177466795
1712022065515,17908.270177466795
1712022065555,17908.270177466795
1712022065596,17908.270177466795
1712022065636,17908.270177466795
1712022065676,21118.909358873963
1712022065716,23657.299197528046
1712022065756,23657.299197528046
1712022065797,23657.299197528046
1712022065836,23657.299197528046
1712022065876,23657.299197528046
1712022065916,23657.299197528046
1712022065956,23657.299197528046
1712022065997,23657.299197528046
1712022066037,23657.299197528046
1712022066077,23657.299197528046
1712022066117,23657.299197528046
1712022066157,15327.120431399904
1712022066198,15327.120431399904
1712022066237,15327.120431399904
1712022066277,15327.120431399904
1712022066317,15327.120431399904
1712022066358,15327.120431399904
1712022066398,15327.120431399904
1712022066438,15327.120431399904
1712022066478,15327.120431399904
1712022066518,15327.120431399904
1712022066558,15327.120431399904
1712022066599,17848.19771173317
1712022066638,20398.89400826441
1712022066679,20398.89400826441
1712022066719,20398.89400826441
1712022066759,20398.89400826441
1712022066800,20398.89400826441
1712022066839,20398.89400826441
1712022066879,20398.89400826441
1712022066919,20398.89400826441
1712022066960,20398.89400826441
1712022067000,20398.89400826441
1712022067040,20398.89400826441
1712022067080,18002.698313833214
1712022067120,12243.654577907175
1712022067160,12243.654577907175
1712022067201,12243.654577907175
1712022067240,12243.654577907175
1712022067281,12243.654577907175
1712022067321,12243.654577907175
1712022067361,12243.654577907175
1712022067402,12243.654577907175
1712022067441,12243.654577907175
1712022067481,12243.654577907175
1712022067521,12243.654577907175
1712022067562,12243.654577907175
1712022067602,12243.654577907175
1712022067642,12243.654577907175
1712022067682,12243.654577907175
1712022067722,12243.654577907175
1712022067762,12243.654577907175
1712022067803,12243.654577907175
1712022067842,12243.654577907175
1712022067883,12243.654577907175
1712022067923,12243.654577907175
1712022067963,11046.419611997437
1712022068004,11046.419611997437
1712022068043,11046.419611997437
1712022068083,11046.419611997437
1712022068123,11046.419611997437
1712022068164,11046.419611997437
1712022068204,11046.419611997437
1712022068244,11046.419611997437
1712022068284,11046.419611997437
1712022068324,10271.191439218353
1712022068364,9633.008606027812
1712022068405,9285.55164084863
1712022068444,9285.55164084863
1712022068485,9285.55164084863
1712022068525,9285.55164084863
1712022068565,9285.55164084863
1712022068606,9285.55164084863
1712022068645,9285.55164084863
1712022068685,9285.55164084863
1712022068726,9285.55164084863
1712022068766,4727.810548661277
1712022068807,4727.810548661277
1712022068846,4727.810548661277
1712022068886,4727.810548661277
1712022068926,4727.810548661277
1712022068966,4727.810548661277
1712022069007,4727.810548661277
1712022069047,4727.810548661277
1712022069087,2005.346824593842
1712022069127,1259.1698108487763
1712022069167,1170.7580530298874
1712022069208,934.2239740728401
1712022069248,934.2239740728401
1712022069288,934.2239740728401
1712022069328,934.2239740728401
1712022069368,934.2239740728401
1712022069409,934.2239740728401
1712022069448,934.2239740728401
1712022069489,934.2239740728401
1712022069529,-8830.900269692764
1712022069569,-11079.673445795663
1712022069610,-11079.673445795663
1712022069649,-11079.673445795663
1712022069689,-11079.673445795663
1712022069729,-11079.673445795663
1712022069769,-11079.673445795663
1712022069810,-11079.673445795663
1712022069850,-11079.673445795663
1712022069890,-13505.125803133938
1712022069930,-14140.246501400601
1712022069970,-14332.258230580948
1712022070011,-14710.695273549296
1712022070050,-14710.695273549296
1712022070090,-15223.626303837169
1712022070130,-15562.747016977519
1712022070170,-16557.995530808344
1712022070211,-16557.995530808344
1712022070251,-15223.626303837169
1712022070291,-13505.125803133938
1712022070331,-11079.673445795663
1712022070371,-10325.610169718973
1712022070412,-9627.606002590619
1712022070451,-9627.606002590619
1712022070491,-9627.606002590619
1712022070531,-9627.606002590619
1712022070572,-9627.606002590619
1712022070612,-9627.606002590619
1712022070652,-9627.606002590619
1712022070692,5732.586659577675
1712022070732,12629.445482823998
1712022070772,12629.445482823998
1712022070813,12629.445482823998
1712022070852,12629.445482823998
1712022070893,12629.445482823998
1712022070933,12629.445482823998
1712022070973,12629.445482823998
1712022071014,12629.445482823998
1712022071053,12629.445482823998
1712022071093,12629.445482823998
1712022071133,12629.445482823998
1712022071173,9004.540429784916
1712022071214,7926.842866139486
1712022071254,7234.858739764895
1712022071294,7234.858739764895
1712022071334,7234.858739764895
1712022071374,7234.858739764895
1712022071415,6735.187206476927
1712022071454,5462.291229464114
1712022071494,3996.826849712059
1712022071535,3876.0352875711396
1712022071575,3364.809792133048
1712022071615,2421.1404263647273
1712022071655,1577.1333390865475
1712022071695,1406.8641620003618
1712022071735,-161.70762878283858
1712022071775,-738.9698257381096
1712022071816,-952.7693904009648
1712022071855,-3994.747144414112
1712022071896,-3994.747144414112
1712022071936,-3994.747144414112
1712022071976,-3994.747144414112
1712022072017,-3994.747144414112
1712022072056,-3994.747144414112
1712022072096,-3994.747144414112
1712022072136,-3994.747144414112
1712022072176,-3994.747144414112
1712022072217,-4618.518230324611
1712022072257,-5640.553329423536
1712022072297,-5640.553329423536
1712022072337,-4787.126054517459
1712022072377,-4618.518230324611
1712022072418,-3994.747144414112
1712022072457,-2624.8239609748125
1712022072498,-1991.7670126101002
1712022072538,-1386.7190391081385
1712022072578,-1235.8052426935174
1712022072619,-751.000639309641
1712022072658,1022.3948628148064
1712022072698,1928.8382036839612
1712022072739,2070.889913035091
1712022072779,2908.038316834718
1712022072819,2908.038316834718
1712022072859,2908.038316834718
1712022072899,2908.038316834718
1712022072939,2070.889913035091
1712022072980,1022.3948628148064
1712022073020,-751.000639309641
1712022073060,213.4756566756405
1712022073100,1022.3948628148064
1712022073140,1353.0619519813918
1712022073180,1353.0619519813918
1712022073221,1353.0619519813918
1712022073260,1639.1505694193766
1712022073300,2246.8198987403885
1712022073341,2908.038316834718
1712022073381,3745.77357465541
1712022073422,5219.384468772449
1712022073461,5219.384468772449
1712022073501,5219.384468772449
1712022073541,5219.384468772449
1712022073582,3745.77357465541
1712022073622,2246.8198987403885
1712022073662,1639.1505694193766
1712022073702,1353.0619519813918
1712022073742,509.2234865017235
1712022073782,509.2234865017235
1712022073823,509.2234865017235
1712022073863,509.2234865017235
1712022073903,509.2234865017235
1712022073943,167.83936337009072
1712022073983,-1140.6297533977777
1712022074024,-4022.0109346490353
1712022074063,-4022.0109346490353
1712022074104,-4022.0109346490353
1712022074144,-4022.0109346490353
1712022074184,-4022.0109346490353
1712022074225,-4022.0109346490353
1712022074264,-6152.182973202318
1712022074305,-8457.13601550879
1712022074345,-8551.618462457787
1712022074385,-8706.004149145447
1712022074426,-8791.311564561911
1712022074465,-10117.347143466119
1712022074505,-10117.347143466119
1712022074546,-10117.347143466119
1712022074586,-10164.15650489647
1712022074626,-10522.891497657169
1712022074666,-14325.925875809975
1712022074706,-14325.925875809975
1712022074746,-14325.925875809975
1712022074787,-14325.925875809975
1712022074827,-14325.925875809975
1712022074867,-14325.925875809975
1712022074907,-14325.925875809975
1712022074947,-16524.80991471
1712022074987,-19006.25298396405
1712022075028,-21657.586346144322
1712022075068,-21693.222327506635
1712022075108,-22689.99753447296
1712022075148,-24081.62936201226
1712022075188,-24163.571419156156
1712022075229,-24163.571419156156
1712022075268,-24163.571419156156
1712022075308,-22809.41283643432
1712022075348,-22689.99753447296
1712022075389,-21657.586346144322
1712022075429,-19046.617706368677
1712022075469,-19046.617706368677
1712022075509,-19046.617706368677
1712022075549,-19046.617706368677
1712022075589,-19046.617706368677
1712022075630,-19046.617706368677
1712022075669,-19046.617706368677
1712022075709,-19046.617706368677
1712022075750,-19046.617706368677
1712022075790,-14985.21759680286
1712022075830,-11945.679225911386
1712022075870,-8451.299151156098
1712022075910,-8451.299151156098
1712022075950,-8451.299151156098
1712022075990,-8451.299151156098
1712022076031,-8451.299151156098
1712022076070,-8451.299151156098
1712022076111,-8451.299151156098
1712022076151,-8451.299151156098
1712022076191,-8451.299151156098
1712022076232,-8451.299151156098
1712022076271,-7221.30746627925
1712022076311,-6547.705364292022
1712022076351,-6547.705364292022
1712022076391,-6547.705364292022
1712022076432,-6547.705364292022
1712022076472,-6547.705364292022
1712022076512,-6547.705364292022
1712022076552,-6547.705364292022
1712022076592,-6547.705364292022
1712022076633,-6547.705364292022
1712022076672,-6547.705364292022
1712022076712,-4035.7989684715867
1712022076752,-610.6232416182756
1712022076793,1853.0964681548066
1712022076833,1853.0964681548066
1712022076873,1853.0964681548066
1712022076913,1853.0964681548066
1712022076953,1853.0964681548066
1712022076993,1853.0964681548066
1712022077034,1853.0964681548066
1712022077073,1853.0964681548066
1712022077113,1853.0964681548066
1712022077154,1853.0964681548066
1712022077194,2610.8479233067483
1712022077234,4773.842821714468
1712022077274,5293.02203629259
1712022077314,5293.02203629259
1712022077354,5293.02203629259
1712022077394,5293.02203629259
1712022077435,5293.02203629259
1712022077475,5293.02203629259
1712022077515,5293.02203629259
1712022077555,5293.02203629259
1712022077595,5293.02203629259
1712022077636,5293.02203629259
1712022077675,7674.125207348727
1712022077715,10142.707703486085
1712022077756,10142.707703486085
1712022077796,10142.707703486085
1712022077836,10142.707703486085
1712022077876,10142.707703486085
1712022077916,10142.707703486085
1712022077956,10142.707703486085
1712022077996,10142.707703486085
1712022078037,10142.707703486085
1712022078077,10142.707703486085
1712022078117,10142.707703486085
1712022078157,7722.376663547941
1712022078197,7722.376663547941
1712022078238,7722.376663547941
1712022078277,7722.376663547941
1712022078317,7722.376663547941
1712022078358,7722.376663547941
1712022078398,7722.376663547941
1712022078438,7722.376663547941
1712022078478,7722.376663547941
1712022078518,7722.376663547941
1712022078558,7722.376663547941
1712022078598,7722.376663547941
1712022078639,7722.376663547941
1712022078679,7722.376663547941
1712022078719,7722.376663547941
1712022078759,7722.376663547941
1712022078799,7722.376663547941
1712022078840,7722.376663547941
1712022078880,7722.376663547941
1712022078920,7722.376663547941
1712022078960,7722.376663547941
1712022079000,1693.6923572644591
1712022079041,1693.6923572644591
1712022079080,1693.6923572644591
1712022079121,1693.6923572644591
1712022079161,1693.6923572644591
1712022079201,1693.6923572644591
1712022079242,1693.6923572644591
1712022079281,1693.6923572644591
1712022079321,1693.6923572644591
1712022079362,1693.6923572644591
1712022079402,1693.6923572644591
1712022079443,2704.4820790193044
1712022079482,2704.4820790193044
1712022079522,2704.4820790193044
1712022079562,2704.4820790193044
1712022079603,2704.4820790193044
1712022079643,2704.4820790193044
1712022079683,2704.4820790193044
1712022079723,2704.4820790193044
1712022079763,2704.4820790193044
1712022079803,2704.4820790193044
1712022079844,2704.4820790193044
1712022079884,-4042.539425397292
1712022079924,-4042.539425397292
1712022079964,-4042.539425397292
1712022080004,-4042.539425397292
1712022080045,-4042.539425397292
1712022080085,-4042.539425397292
1712022080125,-4042.539425397292
1712022080165,-4042.539425397292
1712022080205,-4042.539425397292
1712022080246,-4042.539425397292
1712022080286,-4042.539425397292
1712022080326,-5204.272773034871
1712022080366,-5204.272773034871
1712022080406,-5204.272773034871
1712022080447,-5204.272773034871
1712022080486,-5204.272773034871
1712022080526,-5204.272773034871
1712022080566,-5204.272773034871
1712022080606,-5204.272773034871
1712022080647,-5204.272773034871
1712022080687,-5204.272773034871
1712022080727,-4414.987483474426
1712022080767,-4414.987483474426
1712022080807,-4414.987483474426
1712022080848,-4414.987483474426
1712022080887,-4414.987483474426
1712022080928,-4414.987483474426
1712022080968,-4414.987483474426
1712022081008,-4414.987483474426
1712022081049,-4414.987483474426
1712022081088,-4414.987483474426
1712022081128,-4414.987483474426
1712022081168,-2586.7978098411113
1712022081208,-2586.7978098411113
1712022081249,-2586.7978098411113
1712022081289,-2586.7978098411113
1712022081329,-2586.7978098411113
1712022081369,-2586.7978098411113
1712022081409,-2586.7978098411113
1712022081450,-2586.7978098411113
1712022081489,-2586.7978098411113
1712022081529,-1746.2608589371666
1712022081569,-974.193793729879
1712022081609,1096.141800575424
1712022081650,1414.2737171631306
1712022081690,1414.2737171631306
1712022081730,1414.2737171631306
1712022081770,1414.2737171631306
1712022081810,1414.2737171631306
1712022081851,1414.2737171631306
1712022081890,1414.2737171631306
1712022081930,-974.193793729879
1712022081970,-2586.7978098411113
1712022082011,-3776.6517252735794
1712022082051,-3776.6517252735794
1712022082091,-3776.6517252735794
1712022082131,-3776.6517252735794
1712022082171,-3776.6517252735794
1712022082211,-3776.6517252735794
1712022082252,-3776.6517252735794
1712022082291,-3776.6517252735794
1712022082332,-1570.8493617800996
1712022082372,-1570.8493617800996
1712022082412,-1570.8493617800996
1712022082453,-1570.8493617800996
1712022082492,-1570.8493617800996
1712022082532,-1570.8493617800996
1712022082572,-1570.8493617800996
1712022082613,-1570.8493617800996
1712022082653,-4068.3290364816785
1712022082693,-4244.136530897114
1712022082733,-6928.931245353073
1712022082773,-7876.5116480998695
1712022082813,-7876.5116480998695
1712022082854,-7876.5116480998695
1712022082893,-7876.5116480998695
1712022082933,-7876.5116480998695
1712022082974,-7876.5116480998695
1712022083014,-7876.5116480998695
1712022083055,-6928.931245353073
1712022083094,-4776.350782545283
1712022083134,-4776.350782545283
1712022083174,-4776.350782545283
1712022083215,-4776.350782545283
1712022083255,-4776.350782545283
1712022083295,-4776.350782545283
1712022083335,-4776.350782545283
1712022083375,-4776.350782545283
1712022083415,-4776.350782545283
1712022083456,-8060.015084729064
1712022083495,-8060.015084729064
1712022083535,-8060.015084729064
1712022083576,-8060.015084729064
1712022083616,-8060.015084729064
1712022083657,-8060.015084729064
1712022083696,-6399.228507503867
1712022083736,-4776.350782545283
1712022083776,-4770.761885162909
1712022083817,-4417.7066597845405
1712022083857,-1914.202448646538
1712022083897,-1886.0514081194997
1712022083937,1260.9354548067786
1712022083977,1260.9354548067786
1712022084017,1260.9354548067786
1712022084058,1260.9354548067786
1712022084097,1260.9354548067786
1712022084138,1260.9354548067786
1712022084178,1260.9354548067786
1712022084218,1260.9354548067786
1712022084259,3188.151790729724
1712022084298,3188.151790729724
1712022084338,3188.151790729724
1712022084378,3188.151790729724
1712022084419,3188.151790729724
1712022084459,3738.7073050895706
1712022084499,4401.584421514999
1712022084539,5227.2636529323645
1712022084579,6374.304887604434
1712022084620,6544.01240037987
1712022084660,8086.611753078178
1712022084700,8625.23129061982
1712022084740,11369.143834158778
1712022084780,11369.143834158778
1712022084820,11369.143834158778
1712022084861,11369.143834158778
1712022084901,11369.143834158778
1712022084941,11369.143834158778
1712022084981,11369.143834158778
1712022085021,11369.143834158778
1712022085062,12197.862258443609
1712022085101,12197.862258443609
1712022085142,12197.862258443609
1712022085182,12197.862258443609
1712022085222,12197.862258443609
1712022085263,12197.862258443609
1712022085302,12197.862258443609
1712022085342,12197.862258443609
1712022085383,13768.20082647726
1712022085423,16698.396587454714
1712022085463,16809.46961056767
1712022085503,16893.282462439034
1712022085543,18800.036951315124
1712022085583,19008.10343910847
1712022085624,19008.10343910847
1712022085664,19008.10343910847
1712022085704,19008.10343910847
1712022085744,19008.10343910847
1712022085784,19008.10343910847
1712022085824,16893.282462439034
1712022085865,16809.46961056767
1712022085904,16809.46961056767
1712022085944,16809.46961056767
1712022085984,16809.46961056767
1712022086024,16809.46961056767
1712022086065,16809.46961056767
1712022086105,16809.46961056767
1712022086145,16809.46961056767
1712022086185,17262.843291926198
1712022086225,19008.10343910847
1712022086266,19237.277262766846
1712022086305,19237.277262766846
1712022086345,19237.277262766846
1712022086385,19237.277262766846
1712022086425,19237.277262766846
1712022086466,19237.277262766846
1712022086506,19237.277262766846
1712022086546,18842.87361415848
1712022086586,17262.843291926198
1712022086625,16764.157929854468
1712022086666,16764.157929854468
1712022086705,16764.157929854468
1712022086745,16764.157929854468
1712022086786,16764.157929854468
1712022086826,16764.157929854468
1712022086866,16764.157929854468
1712022086906,16764.157929854468
1712022086946,16764.157929854468
1712022086986,11737.744747268967
1712022087026,9172.218597397208
1712022087067,9172.218597397208
1712022087106,9172.218597397208
1712022087146,9172.218597397208
1712022087187,9172.218597397208
1712022087227,9172.218597397208
1712022087268,8649.345394733362
1712022087307,8017.948050506413
1712022087347,7881.439292614814
1712022087387,7522.021945832297
1712022087428,6874.375790297519
1712022087468,6487.535828093998
1712022087508,6125.71144304052
1712022087548,5391.029609206598
1712022087588,5324.750267185271
1712022087628,5215.885418039281
1712022087669,4587.066366962623
1712022087708,-3793.2156772445887
1712022087748,-9062.864347794559
1712022087789,-10339.733823313843
1712022087829,-10339.733823313843
1712022087870,-10339.733823313843
1712022087909,-10339.733823313843
1712022087949,-10339.733823313843
1712022087989,-10339.733823313843
1712022088029,-11283.366271057632
1712022088070,-11555.022900134325
1712022088110,-12905.664781077765
1712022088150,-12952.42557106074
1712022088190,-13700.860221723095
1712022088230,-13843.214297493454
1712022088271,-14869.082325083204
1712022088310,-16040.302575730719
1712022088350,-16344.131444977596
1712022088391,-16806.39872150868
1712022088431,-16806.39872150868
1712022088472,-24186.319484770298
1712022088511,-28899.332626901567
1712022088551,-28899.332626901567
1712022088591,-28899.332626901567
1712022088631,-28899.332626901567
1712022088672,-28899.332626901567
1712022088712,-28899.332626901567
1712022088752,-28899.332626901567
1712022088792,-28899.332626901567
1712022088832,-28899.332626901567
1712022088873,-29946.641827509273
1712022088912,-31242.01784992963
1712022088952,-31375.62263604859
1712022088993,-31375.62263604859
1712022089033,-31375.62263604859
1712022089074,-31375.62263604859
1712022089113,-31375.62263604859
1712022089153,-31375.62263604859
1712022089193,-30080.28353883233
1712022089234,-29946.641827509273
1712022089274,-28899.332626901567
1712022089314,-26372.50016986346
1712022089354,-25488.38102192385
1712022089394,-23210.164270089008
1712022089434,-22561.125627535395
1712022089475,-22561.125627535395
1712022089514,-22561.125627535395
1712022089554,-22561.125627535395
1712022089595,-22561.125627535395
1712022089635,-22561.125627535395
1712022089675,-22561.125627535395
1712022089715,-19545.215619204566
1712022089755,-18104.640910817776
1712022089795,-17435.80840083398
1712022089835,-16164.729512941558
1712022089876,-15318.616403626278
1712022089915,-14308.671509080566
1712022089956,-12784.750977656804
1712022089996,-11936.352750360034
1712022090036,-11757.074116763659
1712022090077,-11661.119559680112
1712022090116,-11136.14415561175
1712022090156,-9265.465980079025
1712022090197,-8905.358117392287
1712022090237,-6361.388400509488
1712022090277,-5793.052938556299
1712022090317,-2189.28025565017
1712022090357,-1997.0138713959605
1712022090397,-1997.0138713959605
1712022090437,-1997.0138713959605
1712022090478,-1997.0138713959605
1712022090518,-177.87731991289183
1712022090558,98.48026619106531
1712022090598,1935.231278391555
1712022090638,2044.5050188070163
1712022090679,3147.094135766849
1712022090718,3497.423230579123
1712022090759,3500.395764722489
1712022090799,3925.234885293059
1712022090839,4005.243480209261
1712022090880,5116.8052351484075
1712022090919,5834.683710957877
1712022090959,7847.812118023634
1712022090999,8471.101373733953
1712022091040,10577.751826458145
1712022091080,10577.751826458145
1712022091120,10577.751826458145
1712022091160,10577.751826458145
1712022091200,10577.751826458145
1712022091240,7847.812118023634
1712022091281,7507.371225055307
1712022091321,7507.371225055307
1712022091361,7507.371225055307
1712022091401,7507.371225055307
1712022091441,7507.371225055307
1712022091482,7507.371225055307
1712022091521,7507.371225055307
1712022091561,7847.812118023634
1712022091601,9413.454435510095
1712022091642,10577.751826458145
1712022091682,11603.361907579005
1712022091722,13097.176246732473
1712022091762,13497.631999512203
1712022091802,13497.631999512203
1712022091842,13497.631999512203
1712022091883,13497.631999512203
1712022091922,13497.631999512203
1712022091962,11772.25222078478
1712022092003,11603.361907579005
1712022092043,9413.454435510095
1712022092083,9413.454435510095
1712022092123,9413.454435510095
1712022092163,9413.454435510095
1712022092203,9413.454435510095
1712022092243,9413.454435510095
1712022092284,9413.454435510095
1712022092323,9413.454435510095
1712022092364,10088.695187007077
1712022092404,11603.361907579005
1712022092444,11772.25222078478
1712022092485,11772.25222078478
1712022092524,11772.25222078478
1712022092564,11772.25222078478
1712022092604,11772.25222078478
1712022092644,11772.25222078478
1712022092685,11772.25222078478
1712022092725,10088.695187007077
1712022092765,8962.493736195378
1712022092805,7950.199423304759
1712022092845,7392.64444918558
1712022092886,7392.64444918558
1712022092925,7392.64444918558
1712022092965,7392.64444918558
1712022093005,7392.64444918558
1712022093045,7392.64444918558
1712022093086,8060.590558826923
1712022093126,8962.493736195378
1712022093166,9481.908712198026
1712022093206,9481.908712198026
1712022093246,9481.908712198026
1712022093287,9481.908712198026
1712022093326,9481.908712198026
1712022093366,9481.908712198026
1712022093406,8060.590558826923
1712022093447,6506.9160968102515
1712022093487,6127.976488455199
1712022093527,6106.706692214124
1712022093567,4837.6800638651475
1712022093607,4383.752959161997
1712022093650,4383.752959161997
1712022093688,4383.752959161997
1712022093727,4383.752959161997
1712022093768,4383.752959161997
1712022093808,4383.752959161997
1712022093848,6087.670721897855
1712022093889,6087.670721897855
1712022093928,6087.670721897855
1712022093968,6087.670721897855
1712022094008,6087.670721897855
1712022094049,4191.428632918745
1712022094089,3088.390280756168
1712022094129,2114.583072845824
1712022094169,2049.5687433769926
1712022094209,1426.3333784174174
1712022094249,1215.058824700769
1712022094290,1087.024925565347
1712022094329,1087.024925565347
1712022094369,502.0320209329948
1712022094410,9.48152796458453
1712022094450,-115.06548175914213
1712022094490,-2182.3942136890255
1712022094530,-2182.3942136890255
1712022094570,-2182.3942136890255
1712022094610,-2182.3942136890255
1712022094651,-2182.3942136890255
1712022094691,-2182.3942136890255
1712022094731,-3995.1899724220857
1712022094771,-4129.1409446094185
1712022094811,-6294.650387547445
1712022094851,-6446.644097649027
1712022094892,-6795.912783076055
1712022094931,-6939.758883295581
1712022094972,-7320.510208590422
1712022095012,-7392.120314670727
1712022095052,-7801.363768323325
1712022095093,-7818.220705597661
1712022095132,-7829.216328038368
1712022095172,-7829.216328038368
1712022095212,-7829.216328038368
1712022095253,-7829.216328038368
1712022095293,-7829.216328038368
1712022095333,-7829.216328038368
1712022095373,-8652.570126143284
1712022095413,-9776.53350524744
1712022095453,-11636.841705296189
1712022095494,-13091.63786817668
1712022095534,-13282.781720222905
1712022095574,-13353.71663726028
1712022095614,-13353.71663726028
1712022095654,-13353.71663726028
1712022095695,-13353.71663726028
1712022095734,-13353.71663726028
1712022095774,-13353.71663726028
1712022095815,-12850.88420466194
1712022095858,-11636.841705296189
1712022095896,-9776.53350524744
1712022095935,-9380.925278007053
1712022095975,-9670.074630384333
1712022096015,-12850.88420466194
1712022096056,-15316.361459148116
1712022096097,-15453.163489321712
1712022096136,-17881.011281399056
1712022096176,-18824.82353603281
1712022096216,-18993.854867045302
1712022096256,-18993.854867045302
1712022096297,-18993.854867045302
1712022096337,-18824.82353603281
1712022096377,-17881.011281399056
1712022096417,-16909.548107045237
1712022096457,-15316.361459148116
1712022096498,-13634.94302608259
1712022096538,-12850.88420466194
1712022096578,-9670.074630384333
1712022096618,-9670.074630384333
1712022096658,-9670.074630384333
1712022096699,-13634.94302608259
1712022096738,-14310.18266966939
1712022096778,-16909.548107045237
1712022096819,-16915.759216624312
1712022096859,-16915.759216624312
1712022096900,-16909.548107045237
1712022096939,-16480.425714034587
1712022096979,-15133.887589666061
1712022097019,-14310.18266966939
1712022097060,-13634.94302608259
1712022097100,-13017.21804792853
1712022097140,-9668.321785713546
1712022097180,-9630.236982477363
1712022097220,-7342.396502836142
1712022097260,-6768.854953490198
1712022097301,-6524.391196716577
1712022097340,-6524.391196716577
1712022097380,-6524.391196716577
1712022097420,-6524.391196716577
1712022097460,-6524.391196716577
1712022097501,-3130.849516270682
1712022097541,388.6299248165451
1712022097581,1038.5522363055497
1712022097621,1038.5522363055497
1712022097661,1038.5522363055497
1712022097702,1038.5522363055497
1712022097741,1038.5522363055497
1712022097781,1038.5522363055497
1712022097821,1038.5522363055497
1712022097861,1810.9579303208739
1712022097902,3539.6078065563925
1712022097942,4195.355603447184
1712022097982,5440.208329836838
1712022098022,6953.306780806743
1712022098065,6953.306780806743
1712022098103,6953.306780806743
1712022098142,6953.306780806743
1712022098182,6953.306780806743
1712022098222,6953.306780806743
1712022098263,6953.306780806743
1712022098303,6953.306780806743
1712022098343,6953.306780806743
1712022098383,9236.703064685222
1712022098423,11899.365990469232
1712022098463,11899.365990469232
1712022098504,11899.365990469232
1712022098543,11899.365990469232
1712022098583,11899.365990469232
1712022098624,11899.365990469232
1712022098664,11899.365990469232
1712022098704,11928.577264875174
1712022098744,14080.126378006767
1712022098784,14284.586908507627
1712022098824,14327.144778909162
1712022098864,16156.833500854205
1712022098905,16597.046395050827
1712022098944,17978.689413180575
1712022098985,17978.689413180575
1712022099025,17978.689413180575
1712022099065,17978.689413180575
1712022099106,17978.689413180575
1712022099145,17978.689413180575
1712022099185,17978.689413180575
1712022099225,17978.689413180575
1712022099265,19296.21237208834
1712022099306,19296.21237208834
1712022099346,19296.21237208834
1712022099386,19296.21237208834
1712022099426,19296.21237208834
1712022099466,19296.21237208834
1712022099507,19296.21237208834
1712022099546,19296.21237208834
1712022099586,19296.21237208834
1712022099626,19296.21237208834
1712022099667,20625.550340206362
1712022099708,20629.496265438385
1712022099747,20629.496265438385
1712022099787,20629.496265438385
1712022099827,20629.496265438385
1712022099867,20629.496265438385
1712022099908,20629.496265438385
1712022099948,20629.496265438385
1712022099988,20629.496265438385
1712022100028,20625.550340206362
1712022100068,20362.331003870815
1712022100109,19096.473129527643
1712022100148,19096.473129527643
1712022100188,19096.473129527643
1712022100228,19096.473129527643
1712022100268,19096.473129527643
1712022100309,19096.473129527643
1712022100349,19096.473129527643
1712022100389,19096.473129527643
1712022100429,19096.473129527643
1712022100469,13128.280724568292
1712022100510,12001.809139849152
1712022100549,12001.809139849152
1712022100590,12001.809139849152
1712022100630,12001.809139849152
1712022100670,12001.809139849152
1712022100711,12001.809139849152
1712022100750,12001.809139849152
1712022100790,12001.809139849152
1712022100830,10799.110781640746
1712022100871,10735.316466469318
1712022100912,10594.353390361182
1712022100951,10594.353390361182
1712022100991,10594.353390361182
1712022101031,9347.610071013682
1712022101071,9049.805137047544
1712022101112,8524.740098595154
1712022101152,8524.740098595154
1712022101192,8524.740098595154
1712022101232,3413.728036564775
1712022101272,-3629.1233520545065
1712022101313,-6025.369146901183
1712022101352,-6264.883247270249
1712022101393,-6264.883247270249
1712022101433,-6264.883247270249
1712022101473,-6264.883247270249
1712022101514,-6264.883247270249
1712022101553,-6264.883247270249
1712022101593,-6264.883247270249
1712022101634,-7954.063911415171
1712022101674,-8048.616048633121
1712022101714,-8343.749760816805
1712022101754,-8931.000713932794
1712022101794,-9427.204145266674
1712022101834,-10401.583077914082
1712022101874,-11075.189644725528
1712022101915,-11075.189644725528
1712022101955,-11075.189644725528
1712022101995,-11075.189644725528
1712022102035,-11075.189644725528
1712022102075,-19513.83716130117
1712022102116,-22334.958248181734
1712022102155,-22334.958248181734
1712022102196,-22334.958248181734
1712022102236,-22334.958248181734
1712022102276,-22334.958248181734
1712022102317,-22334.958248181734
1712022102356,-22334.958248181734
1712022102396,-22334.958248181734
1712022102436,-22334.958248181734
1712022102477,-22334.958248181734
1712022102517,-24596.275432489812
1712022102557,-24596.275432489812
1712022102597,-24596.275432489812
1712022102637,-24596.275432489812
1712022102677,-24596.275432489812
1712022102718,-24596.275432489812
1712022102757,-24596.275432489812
1712022102797,-24596.275432489812
1712022102838,-24596.275432489812
1712022102878,-23282.369703342207
1712022102918,-22334.958248181734
1712022102958,-20537.8222201732
1712022102998,-20537.8222201732
1712022103038,-20537.8222201732
1712022103078,-20537.8222201732
1712022103119,-20537.8222201732
1712022103158,-20537.8222201732
1712022103198,-20537.8222201732
1712022103238,-20537.8222201732
1712022103279,-20537.8222201732
1712022103319,-20537.8222201732
1712022103359,-17067.049425114878
1712022103399,-16823.947946241125
1712022103439,-16641.691179616377
1712022103479,-14845.633882029913
1712022103520,-13636.006177249365
1712022103559,-13361.153546941467
1712022103599,-13039.938393367454
1712022103639,-12899.386304563843
1712022103680,-12809.684023882728
1712022103720,-11569.023783982266
1712022103760,-10306.64216036629
1712022103800,-9280.47057729587
1712022103840,-7416.563661595341
1712022103880,-5860.344841778278
1712022103921,-3807.6568200038746
1712022103960,-3332.3291618628427
1712022104000,-3332.3291618628427
1712022104041,-3332.3291618628427
1712022104081,-3332.3291618628427
1712022104121,-3332.3291618628427
1712022104161,-4381.957761078607
1712022104201,-4381.957761078607
1712022104241,-4381.957761078607
1712022104281,-3782.3054344872944
1712022104322,-3208.3676524595357
1712022104361,-3208.3676524595357
1712022104402,-3009.4711221326143
1712022104442,-2949.870437887963
1712022104482,-2034.462061101105
1712022104523,-350.463892146945
1712022104562,67.49871108355
1712022104602,2106.4487229064107
1712022104642,2781.445537137799
1712022104682,2899.3507166979834
1712022104723,2899.3507166979834
1712022104763,2899.3507166979834
1712022104803,2899.3507166979834
1712022104843,2899.3507166979834
1712022104883,2899.3507166979834
1712022104924,2106.4487229064107
1712022104963,-315.75304626720026
1712022105003,-315.75304626720026
1712022105043,-315.75304626720026
1712022105084,-315.75304626720026
1712022105124,-315.75304626720026
1712022105164,-315.75304626720026
1712022105204,-315.75304626720026
1712022105244,371.99438829440624
1712022105284,2106.4487229064107
1712022105325,2707.9901475226507
1712022105364,4956.650227792561
1712022105404,5344.599532313645
1712022105444,5344.599532313645
1712022105485,5344.599532313645
1712022105525,5344.599532313645
1712022105565,5344.599532313645
1712022105605,5344.599532313645
1712022105645,5344.599532313645
1712022105685,4007.634470022749
1712022105726,2707.9901475226507
1712022105765,2707.9901475226507
1712022105805,2707.9901475226507
1712022105846,2707.9901475226507
1712022105886,2707.9901475226507
1712022105927,2707.9901475226507
1712022105966,2707.9901475226507
1712022106006,2707.9901475226507
1712022106046,2707.9901475226507
1712022106087,2707.9901475226507
1712022106127,-75.92731836531311
1712022106167,-75.92731836531311
1712022106207,-75.92731836531311
1712022106247,-75.92731836531311
1712022106287,-75.92731836531311
1712022106328,-75.92731836531311
1712022106367,-75.92731836531311
1712022106407,-75.92731836531311
1712022106448,-75.92731836531311
1712022106488,-75.92731836531311
1712022106528,-75.92731836531311
1712022106568,330.34999603871256
1712022106608,330.34999603871256
1712022106648,330.34999603871256
1712022106689,330.34999603871256
1712022106729,330.34999603871256
1712022106769,330.34999603871256
1712022106809,330.34999603871256
1712022106849,330.34999603871256
1712022106889,330.34999603871256
1712022106930,330.34999603871256
1712022106969,330.34999603871256
1712022107009,330.34999603871256
1712022107050,330.34999603871256
1712022107090,330.34999603871256
1712022107131,330.34999603871256
1712022107170,330.34999603871256
1712022107210,330.34999603871256
1712022107250,330.34999603871256
1712022107291,330.34999603871256
1712022107331,330.34999603871256
1712022107371,330.34999603871256
1712022107411,1866.5860071317293
1712022107451,4209.32932216581
1712022107491,4209.32932216581
1712022107532,4209.32932216581
1712022107571,4209.32932216581
1712022107612,4209.32932216581
1712022107652,4209.32932216581
1712022107692,4209.32932216581
1712022107733,4209.32932216581
1712022107772,4209.32932216581
1712022107812,4209.32932216581
1712022107853,4209.32932216581
1712022107893,3234.3619294334203
1712022107933,3234.3619294334203
1712022107973,3234.3619294334203
1712022108013,3234.3619294334203
1712022108053,3234.3619294334203
1712022108093,3234.3619294334203
1712022108134,3234.3619294334203
1712022108174,3234.3619294334203
1712022108214,3234.3619294334203
1712022108254,3234.3619294334203
1712022108294,3003.6167620955966
1712022108335,2391.3742240332067
1712022108374,2391.3742240332067
1712022108414,2391.3742240332067
1712022108455,2391.3742240332067
1712022108495,2391.3742240332067
1712022108536,2391.3742240332067
1712022108575,2391.3742240332067
1712022108615,2391.3742240332067
1712022108655,2391.3742240332067
1712022108695,2391.3742240332067
1712022108736,2391.3742240332067
1712022108776,2391.3742240332067
1712022108816,2391.3742240332067
1712022108856,2391.3742240332067
1712022108896,2391.3742240332067
1712022108936,2391.3742240332067
1712022108976,2391.3742240332067
1712022109016,2391.3742240332067
1712022109056,922.9543722015806
1712022109096,-145.00543363578618
1712022109137,-1153.3336544204503
1712022109177,-2257.9569219420664
1712022109217,-2257.9569219420664
1712022109257,-2257.9569219420664
1712022109297,-2257.9569219420664
1712022109338,-2257.9569219420664
1712022109377,-2257.9569219420664
1712022109417,-2257.9569219420664
1712022109457,-2257.9569219420664
1712022109497,-8254.13108599279
1712022109538,-8254.13108599279
1712022109578,-8254.13108599279
1712022109618,-8254.13108599279
1712022109658,-8254.13108599279
1712022109698,-8254.13108599279
1712022109739,-8254.13108599279
1712022109778,-8254.13108599279
1712022109818,-8254.13108599279
1712022109858,-8254.13108599279
1712022109898,-8787.943036797456
1712022109939,-10223.215297379531
1712022109978,-10985.144979515113
1712022110019,-10985.144979515113
1712022110059,-10985.144979515113
1712022110099,-10985.144979515113
1712022110139,-10985.144979515113
1712022110179,-10985.144979515113
1712022110219,-10985.144979515113
1712022110259,-10985.144979515113
1712022110299,-13549.107230784371
1712022110340,-16332.671804903075
1712022110380,-16332.671804903075
1712022110420,-16332.671804903075
1712022110460,-16332.671804903075
1712022110500,-16332.671804903075
1712022110541,-16332.671804903075
1712022110580,-16332.671804903075
1712022110620,-16332.671804903075
1712022110660,-16332.671804903075
1712022110701,-16332.671804903075
1712022110742,-16332.671804903075
1712022110782,-13702.305504751392
1712022110822,-13702.305504751392
1712022110862,-13702.305504751392
1712022110902,-13702.305504751392
1712022110943,-13702.305504751392
1712022110982,-13702.305504751392
1712022111022,-13702.305504751392
1712022111062,-13702.305504751392
1712022111102,-13702.305504751392
1712022111143,-13702.305504751392
1712022111183,-12852.768020731397
1712022111223,-10843.406943208538
1712022111263,-9582.138935575262
1712022111303,-9582.138935575262
1712022111344,-9582.138935575262
1712022111383,-9582.138935575262
1712022111423,-9582.138935575262
1712022111464,-9582.138935575262
1712022111504,-9582.138935575262
1712022111544,-9582.138935575262
1712022111584,-9582.138935575262
1712022111624,-9582.138935575262
1712022111664,-7494.803829839919
1712022111704,-4146.381253252737
1712022111745,-2947.4082659096457
1712022111784,-2947.4082659096457
1712022111825,-2947.4082659096457
1712022111865,-2947.4082659096457
1712022111905,-2947.4082659096457
1712022111946,-2947.4082659096457
1712022111985,-2947.4082659096457
1712022112025,-2947.4082659096457
1712022112065,-2947.4082659096457
1712022112106,-2600.0115886423737
1712022112146,-1670.2550423983485
1712022112186,-416.2221561316401
1712022112226,-416.2221561316401
1712022112266,-416.2221561316401
1712022112306,-416.2221561316401
1712022112347,-416.2221561316401
1712022112386,-416.2221561316401
1712022112427,-416.2221561316401
1712022112467,-416.2221561316401
1712022112507,-416.2221561316401
1712022112548,-416.2221561316401
1712022112587,1741.177263670601
1712022112627,4420.782795873471
1712022112667,5534.047216431238
1712022112708,5534.047216431238
1712022112748,5534.047216431238
1712022112788,5534.047216431238
1712022112828,5534.047216431238
1712022112868,5534.047216431238
1712022112908,5534.047216431238
1712022112949,5534.047216431238
1712022112988,5534.047216431238
1712022113028,5534.047216431238
1712022113069,5674.062313441187
1712022113109,5674.062313441187
1712022113150,5674.062313441187
1712022113189,5674.062313441187
1712022113229,5674.062313441187
1712022113269,5674.062313441187
1712022113310,5674.062313441187
1712022113350,5674.062313441187
1712022113390,5674.062313441187
1712022113430,5674.062313441187
1712022113470,5674.062313441187
1712022113510,5674.062313441187
1712022113551,5674.062313441187
1712022113591,5674.062313441187
1712022113631,5674.062313441187
1712022113671,5674.062313441187
1712022113711,5674.062313441187
1712022113752,5674.062313441187
1712022113791,5674.062313441187
1712022113831,5674.062313441187
1712022113871,5674.062313441187
1712022113912,4319.545156471431
1712022113953,4319.545156471431
1712022113992,4319.545156471431
1712022114032,4319.545156471431
1712022114072,4319.545156471431
1712022114112,4319.545156471431
1712022114154,4319.545156471431
1712022114193,4319.545156471431
1712022114233,4319.545156471431
1712022114273,4319.545156471431
1712022114313,3274.287174907513
1712022114354,1278.3147767242044
1712022114394,1278.3147767242044
1712022114434,1278.3147767242044
1712022114474,1278.3147767242044
1712022114514,1278.3147767242044
1712022114555,1278.3147767242044
1712022114594,1278.3147767242044
1712022114634,1278.3147767242044
1712022114674,1278.3147767242044
1712022114714,-834.4471213947982
1712022114755,-5147.394968464971
1712022114795,-5147.394968464971
1712022114835,-5147.394968464971
1712022114875,-5147.394968464971
1712022114915,-5147.394968464971
1712022114956,-5147.394968464971
1712022114995,-5147.394968464971
1712022115035,-5147.394968464971
1712022115075,-5147.394968464971
1712022115116,-5147.394968464971
1712022115156,-5147.394968464971
1712022115196,-5147.394968464971
1712022115236,-5147.394968464971
1712022115276,-5147.394968464971
1712022115316,-5147.394968464971
1712022115357,-5147.394968464971
1712022115396,-5147.394968464971
1712022115436,-5147.394968464971
1712022115476,-5147.394968464971
1712022115516,-5147.394968464971
1712022115557,-5147.394968464971
1712022115597,-5846.798335030675
1712022115637,-6564.732380399946
1712022115677,-6564.732380399946
1712022115717,-6564.732380399946
1712022115758,-6564.732380399946
1712022115797,-6564.732380399946
1712022115837,-6564.732380399946
1712022115877,-6564.732380399946
1712022115917,-6564.732380399946
1712022115958,-6564.732380399946
1712022115998,-6564.732380399946
1712022116038,-6564.732380399946
1712022116078,-4024.791594372131
1712022116118,-4024.791594372131
1712022116159,-4024.791594372131
1712022116198,-4024.791594372131
1712022116238,-4024.791594372131
1712022116278,-4024.791594372131
1712022116319,-4024.791594372131
1712022116359,-4024.791594372131
1712022116399,-4024.791594372131
1712022116439,-4024.791594372131
1712022116479,-4024.791594372131
1712022116519,-5200.76140363235
1712022116560,-5200.76140363235
1712022116599,-5200.76140363235
1712022116639,-5200.76140363235
1712022116680,-5200.76140363235
1712022116720,-5200.76140363235
1712022116761,-5200.76140363235
1712022116800,-5200.76140363235
1712022116840,-5200.76140363235
1712022116880,-5200.76140363235
1712022116920,-5200.76140363235
1712022116961,-3189.6715969466604
1712022117001,-1131.2942780237645
1712022117041,-446.55869334423915
1712022117081,-446.55869334423915
1712022117121,-446.55869334423915
1712022117162,-446.55869334423915
1712022117201,-446.55869334423915
1712022117241,-446.55869334423915
1712022117282,-446.55869334423915
1712022117322,-446.55869334423915
1712022117362,-446.55869334423915
1712022117402,-446.55869334423915
1712022117442,-446.55869334423915
1712022117482,-446.55869334423915
1712022117522,-446.55869334423915
1712022117563,-446.55869334423915
1712022117602,-446.55869334423915
1712022117643,-446.55869334423915
1712022117683,-446.55869334423915
1712022117723,-446.55869334423915
1712022117764,-446.55869334423915
1712022117803,-446.55869334423915
1712022117843,-446.55869334423915
1712022117883,1984.278260378167
1712022117923,4033.971785786096
1712022117964,4033.971785786096
1712022118004,4033.971785786096
1712022118044,4033.971785786096
1712022118084,4033.971785786096
1712022118124,4033.971785786096
1712022118165,4033.971785786096
1712022118204,4033.971785786096
1712022118244,4033.971785786096
1712022118284,4033.971785786096
1712022118325,4033.971785786096
1712022118365,4631.654667750932
1712022118405,4631.654667750932
1712022118445,4631.654667750932
1712022118485,4631.654667750932
1712022118525,4631.654667750932
1712022118566,4631.654667750932
1712022118605,4631.654667750932
1712022118645,4631.654667750932
1712022118685,4631.654667750932
1712022118726,3231.2460669064894
1712022118766,948.5719194943085
1712022118806,948.5719194943085
1712022118846,948.5719194943085
1712022118886,948.5719194943085
1712022118926,948.5719194943085
1712022118967,948.5719194943085
1712022119006,948.5719194943085
1712022119047,948.5719194943085
1712022119087,948.5719194943085
1712022119127,486.65184415783733
1712022119168,-2649.1888979012147
1712022119207,-2649.1888979012147
1712022119247,-2649.1888979012147
1712022119287,-2649.1888979012147
1712022119328,-2649.1888979012147
1712022119368,-2649.1888979012147
1712022119408,-2649.1888979012147
1712022119448,-2649.1888979012147
1712022119488,-2649.1888979012147
1712022119528,-2649.1888979012147
1712022119569,-4207.073594703339
1712022119608,-4207.073594703339
1712022119648,-4207.073594703339
1712022119689,-4207.073594703339
1712022119729,-4207.073594703339
1712022119769,-4207.073594703339
1712022119809,-4207.073594703339
1712022119849,-4207.073594703339
1712022119889,-4207.073594703339
1712022119929,-4207.073594703339
1712022119970,-10864.58207765501
1712022120010,-10864.58207765501
1712022120050,-10864.58207765501
1712022120090,-10864.58207765501
1712022120130,-10864.58207765501
1712022120171,-10864.58207765501
1712022120210,-10864.58207765501
1712022120250,-10864.58207765501
1712022120291,-10864.58207765501
1712022120331,-10864.58207765501
1712022120371,-10864.58207765501
1712022120411,-12598.664290845394
1712022120451,-12598.664290845394
1712022120491,-12598.664290845394
1712022120532,-12598.664290845394
1712022120572,-12598.664290845394
1712022120612,-12598.664290845394
1712022120652,-12598.664290845394
1712022120692,-12598.664290845394
1712022120732,-12598.664290845394
1712022120773,-12598.664290845394
1712022120812,-15520.15276650386
1712022120852,-15520.15276650386
1712022120892,-15520.15276650386
1712022120932,-15520.15276650386
1712022120973,-15520.15276650386
1712022121013,-15520.15276650386
1712022121053,-15520.15276650386
1712022121093,-15520.15276650386
1712022121133,-15520.15276650386
1712022121174,-15520.15276650386
1712022121213,-15520.15276650386
1712022121253,-12187.727050766349
1712022121293,-12187.727050766349
1712022121333,-12187.727050766349
1712022121374,-12187.727050766349
1712022121414,-12187.727050766349
1712022121454,-12187.727050766349
1712022121494,-12187.727050766349
1712022121534,-12187.727050766349
1712022121575,-12187.727050766349
1712022121614,-12187.727050766349
1712022121654,-12187.727050766349
1712022121694,-14913.722763575613
1712022121735,-14913.722763575613
1712022121775,-14913.722763575613
1712022121815,-14913.722763575613
1712022121855,-14913.722763575613
1712022121895,-14913.722763575613
1712022121935,-14913.722763575613
1712022121976,-14913.722763575613
1712022122015,-14913.722763575613
1712022122055,-14913.722763575613
1712022122095,-14913.722763575613
1712022122135,-12340.632492867298
1712022122176,-12340.632492867298
1712022122216,-12340.632492867298
1712022122256,-12340.632492867298
1712022122296,-12340.632492867298
1712022122336,-12340.632492867298
1712022122377,-12340.632492867298
1712022122416,-12340.632492867298
1712022122456,-12340.632492867298
1712022122496,-10744.28986075474
1712022122537,-9114.519875294529
1712022122577,-8119.043941812124
1712022122617,-6675.197503485717
1712022122657,-4814.47041273769
1712022122697,-4814.47041273769
1712022122734,-4814.47041273769
1712022122775,-4814.47041273769
1712022122814,-4814.47041273769
1712022122854,-4814.47041273769
1712022122894,-4814.47041273769
1712022122935,-6813.193632687442
1712022122975,-8119.043941812124
1712022123015,-8119.043941812124
1712022123055,-8119.043941812124
1712022123095,-8119.043941812124
1712022123135,-8119.043941812124
1712022123176,-8119.043941812124
1712022123215,-8119.043941812124
1712022123255,-8119.043941812124
1712022123296,-8119.043941812124
1712022123336,-6813.193632687442
1712022123376,-6228.991785638966
1712022123416,-6228.991785638966
1712022123456,-6228.991785638966
1712022123496,-6228.991785638966
1712022123536,-6228.991785638966
1712022123577,-6228.991785638966
1712022123616,-6228.991785638966
1712022123657,-6228.991785638966
1712022123697,-6228.991785638966
1712022123737,-6813.193632687442
1712022123778,-9436.640540220775
1712022123817,-9436.640540220775
1712022123857,-9436.640540220775
1712022123897,-9436.640540220775
1712022123938,-9436.640540220775
1712022123978,-9436.640540220775
1712022124018,-9436.640540220775
1712022124058,-9436.640540220775
1712022124098,-9436.640540220775
1712022124138,-7270.025633028243
1712022124179,-7270.025633028243
1712022124218,-7270.025633028243
1712022124259,-7270.025633028243
1712022124299,-7270.025633028243
1712022124339,-7270.025633028243
1712022124380,-7270.025633028243
1712022124419,-7270.025633028243
1712022124459,-7270.025633028243
1712022124499,-7270.025633028243
1712022124539,-7270.025633028243
1712022124580,-7270.025633028243
1712022124620,-7270.025633028243
1712022124660,-7270.025633028243
1712022124700,-7270.025633028243
1712022124740,-7270.025633028243
1712022124781,-7270.025633028243
1712022124820,-7270.025633028243
1712022124861,-7270.025633028243
1712022124900,-6515.334340631962
1712022124941,-4386.855112602934
1712022124982,-2540.6150393700227
1712022125021,-1884.172702296637
1712022125061,-1884.172702296637
1712022125101,-1884.172702296637
1712022125141,-1884.172702296637
1712022125182,-1884.172702296637
1712022125222,-1884.172702296637
1712022125262,-1884.172702296637
1712022125302,-1884.172702296637
