Timestamp,Cleaned PPG
1711005191261,0.0
1711005191299,0.0
1711005191340,0.0
1711005191379,0.0
1711005191419,0.0
1711005191459,0.0
1711005191500,0.0
1711005191541,0.0
1711005191580,0.0
1711005191620,0.0
1711005191660,0.0
1711005191700,0.0
1711005191741,0.0
1711005191780,0.0
1711005191821,0.0
1711005191861,0.0
1711005191901,0.0
1711005191942,0.0
1711005191981,0.0
1711005192021,0.0
1711005192061,0.0
1711005192102,0.0
1711005192143,0.0
1711005192182,0.0
1711005192222,0.0
1711005192262,0.0
1711005192302,0.0
1711005192343,0.0
1711005192382,0.0
1711005192422,0.0
1711005192463,0.0
1711005192503,0.0
1711005192544,1124458.6527733859
1711005192583,1124458.6527733859
1711005192623,1124458.6527733859
1711005192663,1124458.6527733859
1711005192703,1124458.6527733859
1711005192744,1124458.6527733859
1711005192783,1124458.6527733859
1711005192823,1124458.6527733859
1711005192863,1124458.6527733859
1711005192903,1124458.6527733859
1711005192945,1124458.6527733859
1711005192984,1057879.4070528825
1711005193024,994441.5369621462
1711005193064,929782.1558648981
1711005193104,866597.928743897
1711005193145,809108.1021486653
1711005193184,757104.9996578896
1711005193224,708475.4647180163
1711005193264,663492.3659968709
1711005193304,622621.6546396913
1711005193345,584901.2530396297
1711005193384,549150.3538214646
1711005193425,515248.15164167667
1711005193467,483658.32010176405
1711005193505,454741.24378297175
1711005193546,427631.02554785134
1711005193585,402262.1209402492
1711005193625,378756.6300730463
1711005193665,356385.0989671466
1711005193705,336673.9384164298
1711005193746,317162.8323492727
1711005193785,299016.4436833081
1711005193825,282793.0946864863
1711005193866,267871.5111087223
1711005193906,251640.33864680445
1711005193947,231681.22372457222
1711005193986,213013.33069073595
1711005194026,197500.0287905056
1711005194066,183555.2377378689
1711005194106,171945.3184922519
1711005194147,161973.38084130548
1711005194186,152798.22188676987
1711005194226,143597.88141713105
1711005194267,135064.33620393043
1711005194307,127762.43535177503
1711005194348,121570.93353828555
1711005194387,115476.84107010509
1711005194427,111008.78761457466
1711005194467,105429.42470088927
1711005194507,101193.27309456933
1711005194548,98184.24092821311
1711005194587,94811.7774244654
1711005194628,91655.24523948855
1711005194667,88526.4162041163
1711005194708,86334.33533513639
1711005194749,84167.09703160147
1711005194788,75805.28694990836
1711005194828,66701.18646305264
1711005194868,60139.867825576104
1711005194908,54950.655714120716
1711005194949,50913.429784999695
1711005194989,46650.2235594769
1711005195028,45046.96507087909
1711005195069,43568.5625791701
1711005195109,41473.58767771907
1711005195150,39670.898869704455
1711005195189,38468.06040735333
1711005195229,37564.251359228045
1711005195269,36473.58782379003
1711005195309,34568.54999668943
1711005195351,33024.20981979603
1711005195390,30509.162622350268
1711005195430,28928.242254559882
1711005195470,27254.366151718423
1711005195510,27050.612480067648
1711005195551,26398.14410982188
1711005195590,26226.190344329923
1711005195630,26075.354694637936
1711005195673,21560.26013372466
1711005195711,14014.639466200955
1711005195752,9810.492244196124
1711005195791,9810.492244196124
1711005195831,9810.492244196124
1711005195871,9810.492244196124
1711005195911,9810.492244196124
1711005195952,9810.492244196124
1711005195991,9810.492244196124
1711005196031,9810.492244196124
1711005196072,9810.492244196124
1711005196112,9810.492244196124
1711005196153,9052.241333743557
1711005196192,6836.977104876656
1711005196232,6836.977104876656
1711005196272,6836.977104876656
1711005196312,6836.977104876656
1711005196353,6836.977104876656
1711005196392,6836.977104876656
1711005196433,6836.977104876656
1711005196473,7888.644036824815
1711005196513,9052.241333743557
1711005196554,9797.904139504768
1711005196593,9849.376400219742
1711005196633,9849.376400219742
1711005196673,9849.376400219742
1711005196713,9849.376400219742
1711005196755,9849.376400219742
1711005196794,9849.376400219742
1711005196834,9849.376400219742
1711005196874,9849.376400219742
1711005196914,9849.376400219742
1711005196955,11651.501799904741
1711005196994,11651.501799904741
1711005197035,11651.501799904741
1711005197075,11651.501799904741
1711005197115,11651.501799904741
1711005197156,11651.501799904741
1711005197195,11651.501799904741
1711005197235,11651.501799904741
1711005197276,11651.501799904741
1711005197316,11651.501799904741
1711005197357,11651.501799904741
1711005197396,8794.830828776117
1711005197436,2251.3105302285403
1711005197476,2128.0920632258058
1711005197516,2128.0920632258058
1711005197557,2128.0920632258058
1711005197597,2128.0920632258058
1711005197637,2128.0920632258058
1711005197677,2128.0920632258058
1711005197717,2128.0920632258058
1711005197758,2128.0920632258058
1711005197797,2128.0920632258058
1711005197838,2128.0920632258058
1711005197878,2128.0920632258058
1711005197918,4729.267109116539
1711005197959,5575.072151842061
1711005197998,5575.072151842061
1711005198038,5575.072151842061
1711005198078,5575.072151842061
1711005198119,5575.072151842061
1711005198160,5575.072151842061
1711005198199,5575.072151842061
1711005198239,5575.072151842061
1711005198279,5575.072151842061
1711005198319,5575.072151842061
1711005198361,5575.072151842061
1711005198400,757.0905114319175
1711005198440,305.5197117207572
1711005198480,305.5197117207572
1711005198520,305.5197117207572
1711005198561,305.5197117207572
1711005198601,305.5197117207572
1711005198641,305.5197117207572
1711005198681,305.5197117207572
1711005198721,305.5197117207572
1711005198762,-942.3005629098043
1711005198801,-2559.468748102896
1711005198841,-2677.9999992982484
1711005198881,-3501.3835183545016
1711005198921,-3501.3835183545016
1711005198963,-3501.3835183545016
1711005199002,-3501.3835183545016
1711005199042,-3501.3835183545016
1711005199082,-3501.3835183545016
1711005199122,-3501.3835183545016
1711005199163,-5563.467631552368
1711005199202,-9165.314728789032
1711005199242,-9165.314728789032
1711005199282,-9165.314728789032
1711005199323,-9165.314728789032
1711005199364,-9165.314728789032
1711005199403,-9165.314728789032
1711005199443,-9165.314728789032
1711005199483,-9165.314728789032
1711005199523,-9165.314728789032
1711005199564,-9165.314728789032
1711005199603,-9165.314728789032
1711005199643,-7440.957361537963
1711005199684,-7440.957361537963
1711005199724,-7440.957361537963
1711005199765,-7440.957361537963
1711005199804,-7440.957361537963
1711005199844,-7440.957361537963
1711005199884,-7440.957361537963
1711005199924,-7440.957361537963
1711005199965,-7440.957361537963
1711005200004,-7440.957361537963
1711005200045,-7440.957361537963
1711005200085,-8309.9135734085
1711005200125,-8309.9135734085
1711005200166,-8309.9135734085
1711005200205,-8309.9135734085
1711005200245,-8309.9135734085
1711005200285,-8309.9135734085
1711005200325,-8309.9135734085
1711005200366,-8309.9135734085
1711005200405,-8309.9135734085
1711005200445,-8309.9135734085
1711005200486,-8309.9135734085
1711005200526,-7187.751774019096
1711005200567,-5295.5565447872505
1711005200606,-5295.5565447872505
1711005200646,-5295.5565447872505
1711005200686,-5295.5565447872505
1711005200726,-5295.5565447872505
1711005200767,-5295.5565447872505
1711005200806,-5295.5565447872505
1711005200846,-5295.5565447872505
1711005200887,-5295.5565447872505
1711005200927,-5295.5565447872505
1711005200968,-5295.5565447872505
1711005201007,-8502.736899204552
1711005201047,-8502.736899204552
1711005201087,-8502.736899204552
1711005201127,-8502.736899204552
1711005201168,-8514.71136267297
1711005201207,-8514.71136267297
1711005201248,-8514.71136267297
1711005201288,-8514.71136267297
1711005201328,-8514.71136267297
1711005201369,-9111.809117300436
1711005201408,-10263.54847527109
1711005201448,-10798.642368998379
1711005201488,-11467.593810873572
1711005201528,-11467.593810873572
1711005201569,-11467.593810873572
1711005201609,-11467.593810873572
1711005201649,-11467.593810873572
1711005201689,-11467.593810873572
1711005201729,-11018.07076283684
1711005201770,-10263.54847527109
1711005201809,-9143.99140815856
1711005201849,-9143.99140815856
1711005201889,-9143.99140815856
1711005201930,-9143.99140815856
1711005201971,-9143.99140815856
1711005202010,-9143.99140815856
1711005202050,-9143.99140815856
1711005202090,-9143.99140815856
1711005202130,-9143.99140815856
1711005202171,-9143.99140815856
1711005202210,-5498.887803884223
1711005202250,-2254.0295478282496
1711005202291,693.6633773013018
1711005202331,3618.230435602367
1711005202372,7334.593214833178
1711005202411,11111.100074514747
1711005202451,12164.075265242252
1711005202491,13734.780361404642
1711005202531,14624.726195201743
1711005202573,15816.880113332532
1711005202612,17507.544954137877
1711005202652,18753.394939771388
1711005202692,18866.81259247521
1711005202732,20541.789502991363
1711005202773,20944.391323042568
1711005202812,21064.316295479424
1711005202853,21567.155664507765
1711005202893,21872.473535092548
1711005202933,22170.47152141016
1711005202974,22170.47152141016
1711005203013,22170.47152141016
1711005203053,22170.47152141016
1711005203093,22693.099225419108
1711005203134,22693.099225419108
1711005203175,22693.099225419108
1711005203214,22693.099225419108
1711005203254,22693.099225419108
1711005203292,22693.099225419108
1711005203332,22693.099225419108
1711005203373,22693.099225419108
1711005203413,22693.099225419108
1711005203453,22693.099225419108
1711005203493,22365.999083083123
1711005203533,22170.47152141016
1711005203574,16091.030332980212
1711005203613,7999.134500187822
1711005203654,1665.5341080953367
1711005203694,-3160.899640777614
1711005203734,-6617.475677635055
1711005203775,-9091.914666897617
1711005203814,-9091.914666897617
1711005203854,-9091.914666897617
1711005203895,-9091.914666897617
1711005203935,-9091.914666897617
1711005203976,-9091.914666897617
1711005204015,-9091.914666897617
1711005204055,-9091.914666897617
1711005204095,-9340.690287807025
1711005204136,-10461.606180760078
1711005204177,-10668.715680208057
1711005204216,-12026.935854693409
1711005204256,-12198.553287847899
1711005204296,-12198.553287847899
1711005204336,-12198.553287847899
1711005204377,-12198.553287847899
1711005204416,-12198.553287847899
1711005204457,-12198.553287847899
1711005204497,-12198.553287847899
1711005204537,-13670.918277444318
1711005204578,-13670.918277444318
1711005204617,-13670.918277444318
1711005204657,-13670.918277444318
1711005204698,-13670.918277444318
1711005204738,-13670.918277444318
1711005204779,-13670.918277444318
1711005204818,-13670.918277444318
1711005204858,-13670.918277444318
1711005204898,-13670.918277444318
1711005204939,-13670.918277444318
1711005204980,-14156.08621502854
1711005205019,-14156.08621502854
1711005205059,-14156.08621502854
1711005205099,-14156.08621502854
1711005205139,-14156.08621502854
1711005205180,-14156.08621502854
1711005205219,-14156.08621502854
1711005205259,-14156.08621502854
1711005205299,-14156.08621502854
1711005205340,-13623.01736773504
1711005205381,-12730.640501762275
1711005205420,-12730.640501762275
1711005205460,-12730.640501762275
1711005205500,-12730.640501762275
1711005205540,-12730.640501762275
1711005205581,-12730.640501762275
1711005205620,-12730.640501762275
1711005205660,-12730.640501762275
1711005205701,-12730.640501762275
1711005205741,-12730.640501762275
1711005205782,-10527.89816513611
1711005205821,-8440.485070460942
1711005205861,-8440.485070460942
1711005205901,-8440.485070460942
1711005205941,-8440.485070460942
1711005205982,-8440.485070460942
1711005206021,-8440.485070460942
1711005206061,-8440.485070460942
1711005206101,-8440.485070460942
1711005206141,-8440.485070460942
1711005206183,-8440.485070460942
1711005206222,-8440.485070460942
1711005206262,-9150.43702874519
1711005206302,-10479.631396775134
1711005206342,-10479.631396775134
1711005206383,-10479.631396775134
1711005206422,-10479.631396775134
1711005206462,-10479.631396775134
1711005206503,-10479.631396775134
1711005206543,-10479.631396775134
1711005206584,-10479.631396775134
1711005206623,-10479.631396775134
1711005206663,-10479.631396775134
1711005206703,-10479.631396775134
1711005206743,-8644.40583994938
1711005206784,-6364.868959882762
1711005206824,-4713.372154378798
1711005206864,-4713.372154378798
1711005206904,-4713.372154378798
1711005206944,-4420.7971034136135
1711005206985,-3990.609325582627
1711005207024,-3103.365124918986
1711005207064,-2170.705970100593
1711005207104,-1532.3198317899369
1711005207145,-945.4151646522805
1711005207185,221.2250329083763
1711005207225,885.6134802822489
1711005207265,1660.2595105906948
1711005207305,3378.456037356518
1711005207345,4880.079289244488
1711005207386,5186.597614272963
1711005207425,5705.937119469279
1711005207466,5705.937119469279
1711005207506,5705.937119469279
1711005207546,7565.449813315645
1711005207587,7565.449813315645
1711005207626,7565.449813315645
1711005207666,7565.449813315645
1711005207706,7565.449813315645
1711005207747,7565.449813315645
1711005207787,7565.449813315645
1711005207827,7565.449813315645
1711005207867,7565.449813315645
1711005207907,7565.449813315645
1711005207947,7565.449813315645
1711005207988,-847.5486927805468
1711005208027,-7957.225458997302
1711005208068,-12929.375694070943
1711005208108,-12929.375694070943
1711005208148,-12929.375694070943
1711005208189,-12929.375694070943
1711005208228,-12929.375694070943
1711005208268,-12929.375694070943
1711005208308,-12929.375694070943
1711005208349,-12929.375694070943
1711005208389,-12929.375694070943
1711005208429,-12929.375694070943
1711005208469,-12929.375694070943
1711005208509,-12674.089707407635
1711005208549,-12674.089707407635
1711005208590,-12674.089707407635
1711005208630,-12674.089707407635
1711005208670,-12674.089707407635
1711005208710,-12674.089707407635
1711005208750,-12674.089707407635
1711005208791,-12674.089707407635
1711005208830,-12674.089707407635
1711005208870,-12674.089707407635
1711005208911,-12674.089707407635
1711005208951,-14008.087253916543
1711005208992,-15324.168510977644
1711005209031,-15324.168510977644
1711005209071,-15324.168510977644
1711005209111,-15324.168510977644
1711005209151,-15324.168510977644
1711005209192,-15324.168510977644
1711005209232,-15324.168510977644
1711005209272,-15324.168510977644
1711005209312,-15324.168510977644
1711005209352,-15324.168510977644
1711005209393,-15324.168510977644
1711005209433,-15324.168510977644
1711005209473,-15324.168510977644
1711005209513,-15324.168510977644
1711005209553,-15324.168510977644
1711005209594,-15324.168510977644
1711005209633,-15324.168510977644
1711005209673,-15324.168510977644
1711005209713,-15324.168510977644
1711005209754,-15653.050443900283
1711005209795,-15653.050443900283
1711005209834,-14155.18427456962
1711005209874,-14114.386137328576
1711005209914,-14114.386137328576
1711005209954,-14114.386137328576
1711005209995,-14114.386137328576
1711005210035,-14114.386137328576
1711005210075,-14114.386137328576
1711005210115,-14114.386137328576
1711005210155,-14114.386137328576
1711005210196,-14114.386137328576
1711005210236,-14114.386137328576
1711005210276,-9689.516757416073
1711005210316,-6309.4237511274405
1711005210356,-6309.4237511274405
1711005210397,-6309.4237511274405
1711005210436,-6309.4237511274405
1711005210476,-6309.4237511274405
1711005210517,-6026.765197788831
1711005210557,-5890.148396611214
1711005210598,-5386.142537605483
1711005210637,-3871.5179938012734
1711005210677,-3429.18378677126
1711005210717,-3244.144982826896
1711005210758,-1248.927446701331
1711005210798,-277.6685109168757
1711005210838,-277.6685109168757
1711005210878,-277.6685109168757
1711005210918,-277.6685109168757
1711005210958,-277.6685109168757
1711005210999,-277.6685109168757
1711005211038,-277.6685109168757
1711005211078,1570.5214970144443
1711005211118,1570.5214970144443
1711005211158,1570.5214970144443
1711005211199,1570.5214970144443
1711005211239,1570.5214970144443
1711005211279,1570.5214970144443
1711005211319,1570.5214970144443
1711005211359,1570.5214970144443
1711005211400,1570.5214970144443
1711005211439,1570.5214970144443
1711005211479,1570.5214970144443
1711005211519,1089.098283095751
1711005211559,-3495.3022825936787
1711005211600,-6099.032928118017
1711005211639,-6099.032928118017
1711005211680,-6099.032928118017
1711005211720,-6099.032928118017
1711005211760,-6099.032928118017
1711005211801,-6099.032928118017
1711005211840,-6099.032928118017
1711005211880,-6099.032928118017
1711005211920,-6099.032928118017
1711005211960,-6099.032928118017
1711005212001,-6099.032928118017
1711005212041,-4816.832742145751
1711005212081,-3543.704688761849
1711005212121,-3543.704688761849
1711005212161,-3543.704688761849
1711005212202,-3543.704688761849
1711005212241,-3543.704688761849
1711005212281,-3543.704688761849
1711005212321,-3543.704688761849
1711005212361,-3543.704688761849
1711005212402,-3543.704688761849
1711005212442,-3543.704688761849
1711005212482,-3543.704688761849
1711005212522,-4025.635448884219
1711005212562,-4025.635448884219
1711005212603,-4025.635448884219
1711005212642,-4025.635448884219
1711005212682,-4025.635448884219
1711005212722,-4025.635448884219
1711005212763,-4025.635448884219
1711005212804,-4025.635448884219
1711005212843,-4025.635448884219
1711005212883,-4025.635448884219
1711005212923,-4025.635448884219
1711005212963,-3049.457913239952
1711005213004,-2350.8859672248363
1711005213043,-2091.6038198349997
1711005213083,-1530.7261658478528
1711005213124,769.5682724611834
1711005213164,1155.2636461206712
1711005213204,1296.0765804396942
1711005213244,1913.113115336746
1711005213284,2394.0416688593104
1711005213324,2618.65645999508
1711005213364,3341.6719388833735
1711005213405,3685.4562831283547
1711005213444,4267.119943037629
1711005213485,6360.7107565072365
1711005213525,6438.72318489477
1711005213565,7901.093657496152
1711005213606,7901.093657496152
1711005213645,7901.093657496152
1711005213685,7901.093657496152
1711005213725,7901.093657496152
1711005213766,7901.093657496152
1711005213806,7901.093657496152
1711005213846,8837.371627794113
1711005213886,10654.964563258924
1711005213926,12198.906287055928
1711005213966,13659.590907977428
1711005214007,13659.590907977428
1711005214046,13659.590907977428
1711005214086,13659.590907977428
1711005214127,13659.590907977428
1711005214167,13659.590907977428
1711005214208,13659.590907977428
1711005214247,13659.590907977428
1711005214287,15509.02193632652
1711005214327,15512.395440007327
1711005214367,15881.820327264257
1711005214408,16166.879645594861
1711005214448,16666.926415607333
1711005214488,16666.926415607333
1711005214528,16666.926415607333
1711005214568,16666.926415607333
1711005214609,16666.926415607333
1711005214648,16666.926415607333
1711005214688,16666.926415607333
1711005214729,19561.400980133563
1711005214769,22226.641100933542
1711005214809,23345.738892941503
1711005214849,23345.738892941503
1711005214889,23345.738892941503
1711005214929,23345.738892941503
1711005214969,23345.738892941503
1711005215010,23345.738892941503
1711005215049,23345.738892941503
1711005215090,23345.738892941503
1711005215130,23345.738892941503
1711005215170,23345.738892941503
1711005215211,23345.738892941503
1711005215250,19083.108981222613
1711005215290,15435.92020251276
1711005215330,13933.729085860774
1711005215370,13933.729085860774
1711005215411,13933.729085860774
1711005215451,13933.729085860774
1711005215491,13933.729085860774
1711005215531,13933.729085860774
1711005215571,13933.729085860774
1711005215612,13933.729085860774
1711005215651,13933.729085860774
1711005215692,13279.513461237308
1711005215732,12786.782806081232
1711005215772,12641.376130786259
1711005215813,11833.091331659816
1711005215852,11833.091331659816
1711005215892,11966.612406529486
1711005215932,12603.018840015866
1711005215972,12786.782806081232
1711005216013,12854.725636560004
1711005216053,13279.513461237308
1711005216093,13961.540754201822
1711005216133,14159.31916985754
1711005216173,15533.821297683287
1711005216214,15923.805183490738
1711005216253,16878.661469093524
1711005216294,16878.661469093524
1711005216334,16878.661469093524
1711005216374,16878.661469093524
1711005216415,16878.661469093524
1711005216454,16878.661469093524
1711005216494,15533.821297683287
1711005216535,15533.821297683287
1711005216575,15533.821297683287
1711005216616,15533.821297683287
1711005216655,15533.821297683287
1711005216695,15533.821297683287
1711005216735,15533.821297683287
1711005216776,15533.821297683287
1711005216816,15533.821297683287
1711005216856,15533.821297683287
1711005216896,15169.648945366032
1711005216936,8898.844305537641
1711005216976,4117.447648421396
1711005217017,-26.584652246441692
1711005217056,-26.584652246441692
1711005217097,-26.584652246441692
1711005217137,-26.584652246441692
1711005217177,-26.584652246441692
1711005217218,-26.584652246441692
1711005217257,-26.584652246441692
1711005217297,-26.584652246441692
1711005217337,-26.584652246441692
1711005217377,-26.584652246441692
1711005217418,-842.067242550198
1711005217457,-1570.78278035298
1711005217498,-1570.78278035298
1711005217538,-1570.78278035298
1711005217578,-1570.78278035298
1711005217619,-1570.78278035298
1711005217658,-1570.78278035298
1711005217698,-1570.78278035298
1711005217738,-1570.78278035298
1711005217778,-1570.78278035298
1711005217819,-3697.7451573889703
1711005217859,-7414.3317491519265
1711005217898,-9041.102691594511
1711005217939,-9462.35406481428
1711005217979,-9462.35406481428
1711005218019,-9462.35406481428
1711005218059,-9462.35406481428
1711005218099,-9462.35406481428
1711005218139,-9462.35406481428
1711005218179,-9462.35406481428
1711005218220,-9462.35406481428
1711005218259,-10191.827371275984
1711005218299,-10504.969807832502
1711005218340,-10806.277713365853
1711005218380,-10971.61086121155
1711005218420,-11652.439753140323
1711005218460,-11652.439753140323
1711005218500,-11652.439753140323
1711005218540,-11652.439753140323
1711005218580,-11652.439753140323
1711005218621,-11652.439753140323
1711005218660,-11652.439753140323
1711005218701,-16064.80811939761
1711005218741,-21197.571656620596
1711005218781,-25887.766276773065
1711005218822,-28619.76567863673
1711005218861,-28619.76567863673
1711005218901,-28619.76567863673
1711005218941,-28619.76567863673
1711005218981,-28619.76567863673
1711005219022,-28619.76567863673
1711005219062,-28619.76567863673
1711005219101,-28619.76567863673
1711005219142,-28619.76567863673
1711005219182,-28619.76567863673
1711005219223,-28619.76567863673
1711005219262,-27637.881179509684
1711005219302,-27637.881179509684
1711005219342,-27637.881179509684
1711005219382,-27637.881179509684
1711005219423,-27637.881179509684
1711005219463,-27637.881179509684
1711005219503,-27637.881179509684
1711005219543,-27637.881179509684
1711005219583,-27637.881179509684
1711005219624,-27637.881179509684
1711005219663,-26127.63244176889
1711005219703,-25278.806816849858
1711005219743,-25278.806816849858
1711005219784,-25278.806816849858
1711005219824,-25278.806816849858
1711005219864,-25278.806816849858
1711005219904,-25278.806816849858
1711005219944,-25278.806816849858
1711005219984,-25278.806816849858
1711005220025,-25278.806816849858
1711005220064,-25278.806816849858
1711005220105,-22292.66099502123
1711005220145,-19887.4631999915
1711005220185,-16699.82358141616
1711005220226,-16699.82358141616
1711005220265,-16699.82358141616
1711005220305,-16699.82358141616
1711005220345,-16247.980133852456
1711005220386,-15100.879960893653
1711005220426,-14950.393662434304
1711005220466,-13559.202620442724
1711005220506,-13523.62085755961
1711005220546,-12988.28140518628
1711005220586,-12630.452538007405
1711005220627,-12280.23826434277
1711005220666,-11952.222386184148
1711005220707,-11952.222386184148
1711005220747,-11952.222386184148
1711005220787,-11952.222386184148
1711005220828,-11952.222386184148
1711005220867,-11952.222386184148
1711005220907,-11952.222386184148
1711005220947,-10681.33028871892
1711005220988,-10681.33028871892
1711005221028,-10681.33028871892
1711005221068,-10681.33028871892
1711005221108,-10681.33028871892
1711005221148,-10681.33028871892
1711005221188,-10681.33028871892
1711005221229,-10681.33028871892
1711005221269,-9652.0342768447
1711005221309,-9089.8816213198
1711005221349,-7827.408667923417
1711005221389,-7347.6578601838555
1711005221430,-6444.138065217063
1711005221470,-5737.81111823325
1711005221510,-5737.81111823325
1711005221550,-5737.81111823325
1711005221590,-5737.81111823325
1711005221631,-5737.81111823325
1711005221670,-7347.6578601838555
1711005221710,-7827.408667923417
1711005221750,-8015.144719719654
1711005221791,-9652.0342768447
1711005221832,-9262.503519596998
1711005221871,-8394.062539537204
1711005221911,-8015.144719719654
1711005221951,-7347.6578601838555
1711005221991,-7135.809102944564
1711005222032,-6039.987737051677
1711005222072,-5737.81111823325
1711005222112,-4388.975630628411
1711005222152,-4165.050569606479
1711005222192,-3576.00562801701
1711005222233,-3262.060533301439
1711005222272,-3262.060533301439
1711005222313,-3262.060533301439
1711005222353,-3262.060533301439
1711005222393,-3262.060533301439
1711005222434,-3262.060533301439
1711005222473,-3262.060533301439
1711005222513,-3262.060533301439
1711005222554,-3262.060533301439
1711005222594,-3262.060533301439
1711005222635,-3232.473169548437
1711005222674,-2836.468443660997
1711005222714,-1588.3369763444643
1711005222754,-408.8669038389344
1711005222795,453.67090127803385
1711005222835,540.7052074735984
1711005222875,2047.5170051970053
1711005222915,2449.7308492255397
1711005222955,4347.382955748122
1711005222995,4821.504629382398
1711005223036,5366.023456593044
1711005223076,5366.023456593044
1711005223116,5366.023456593044
1711005223156,5366.023456593044
1711005223196,5938.736194813158
1711005223237,8103.199864905095
1711005223276,8103.199864905095
1711005223316,8103.199864905095
1711005223356,8103.199864905095
1711005223397,8103.199864905095
1711005223437,9139.483923030552
1711005223477,9495.36797108734
1711005223517,11019.653018411249
1711005223557,11814.023992208065
1711005223597,12292.025203060359
1711005223638,13024.728493490256
1711005223677,14322.089345811633
1711005223717,14508.347611061996
1711005223758,15699.674191777129
1711005223798,17166.142638037447
1711005223839,17425.97027388797
1711005223878,17425.97027388797
1711005223918,17425.97027388797
1711005223958,17425.97027388797
1711005223998,17166.142638037447
1711005224039,17166.142638037447
1711005224079,17166.142638037447
1711005224119,17166.142638037447
1711005224159,17166.142638037447
1711005224199,17166.142638037447
1711005224240,17166.142638037447
1711005224279,17166.142638037447
1711005224319,17166.142638037447
1711005224359,17166.142638037447
1711005224399,14395.227943242528
1711005224440,8977.237588760443
1711005224480,6862.745115159079
1711005224520,6862.745115159079
1711005224560,6862.745115159079
1711005224600,6862.745115159079
1711005224641,6862.745115159079
1711005224680,6862.745115159079
1711005224720,6862.745115159079
1711005224760,6862.745115159079
1711005224801,6862.745115159079
1711005224842,6302.2925149933435
1711005224881,6059.281035922002
1711005224921,4730.3268423711415
1711005224961,4730.3268423711415
1711005225001,4730.3268423711415
1711005225042,4730.3268423711415
1711005225082,4730.3268423711415
1711005225122,4730.3268423711415
1711005225162,4730.3268423711415
1711005225202,4730.3268423711415
1711005225243,4730.3268423711415
1711005225282,475.21512690605596
1711005225322,-2262.2078514108434
1711005225362,-2262.2078514108434
1711005225402,-2262.2078514108434
1711005225443,-2262.2078514108434
1711005225483,-2262.2078514108434
1711005225523,-2262.2078514108434
1711005225563,-2262.2078514108434
1711005225603,-2262.2078514108434
1711005225644,-2262.2078514108434
1711005225683,-2262.2078514108434
1711005225723,-2262.2078514108434
1711005225764,-1074.0895160925575
1711005225804,2104.1484748029616
1711005225845,5033.833155686501
1711005225884,5867.968577433843
1711005225924,6886.106547996169
1711005225964,7881.618857792113
1711005226004,7975.188788802363
1711005226045,8841.136910390109
1711005226085,9085.623246144038
1711005226125,9152.60279048793
1711005226165,9166.673653549049
1711005226205,9502.40961000463
1711005226246,9539.673933663405
1711005226285,10609.426234890241
1711005226325,10693.972088815644
1711005226366,11379.313882139977
1711005226406,11379.313882139977
1711005226447,10693.972088815644
1711005226486,9539.673933663405
1711005226526,9502.40961000463
1711005226566,9502.40961000463
1711005226607,9502.40961000463
1711005226647,9502.40961000463
1711005226687,9502.40961000463
1711005226727,9502.40961000463
1711005226767,9166.673653549049
1711005226807,9166.673653549049
1711005226848,8500.012086617062
1711005226888,4849.5891492979135
1711005226928,3502.9154834351502
1711005226968,3502.9154834351502
1711005227008,3502.9154834351502
1711005227049,3502.9154834351502
1711005227088,3502.9154834351502
1711005227129,3502.9154834351502
1711005227169,2592.0294566121884
1711005227209,2333.1983600384556
1711005227250,1916.90886973124
1711005227289,467.1649980689399
1711005227329,191.02221445040777
1711005227369,-261.75541534181684
1711005227409,-546.4866913277656
1711005227450,-989.6311470922083
1711005227490,-1132.7037497851998
1711005227530,-1448.6887124229688
1711005227570,-1650.731732154265
1711005227610,-4727.933434752282
1711005227651,-7204.738076300127
1711005227690,-7204.738076300127
1711005227731,-7204.738076300127
1711005227771,-7204.738076300127
1711005227811,-7204.738076300127
1711005227852,-7204.738076300127
1711005227891,-7204.738076300127
1711005227931,-7204.738076300127
1711005227971,-7204.738076300127
1711005228011,-7204.738076300127
1711005228052,-7758.043550359551
1711005228092,-8271.72429861268
1711005228132,-8271.72429861268
1711005228172,-8271.72429861268
1711005228212,-8271.72429861268
1711005228253,-8271.72429861268
1711005228293,-8271.72429861268
1711005228333,-8271.72429861268
1711005228373,-8271.72429861268
1711005228413,-8271.72429861268
1711005228454,-8271.72429861268
1711005228493,-6698.226091384422
1711005228534,-6698.226091384422
1711005228574,-6698.226091384422
1711005228614,-6698.226091384422
1711005228655,-6698.226091384422
1711005228694,-6698.226091384422
1711005228734,-6698.226091384422
1711005228775,-6698.226091384422
1711005228815,-6698.226091384422
1711005228856,-6663.561962970998
1711005228895,-4094.808324098354
1711005228935,-1164.1989420216996
1711005228975,844.708991181571
1711005229015,844.708991181571
1711005229056,844.708991181571
1711005229095,844.708991181571
1711005229135,844.708991181571
1711005229176,844.708991181571
1711005229216,844.708991181571
1711005229256,844.708991181571
1711005229296,844.708991181571
1711005229336,844.708991181571
1711005229376,844.708991181571
1711005229416,27.259135171072558
1711005229457,27.259135171072558
1711005229496,27.259135171072558
1711005229537,27.259135171072558
1711005229577,27.259135171072558
1711005229617,27.259135171072558
1711005229658,27.259135171072558
1711005229697,27.259135171072558
1711005229737,27.259135171072558
1711005229777,-639.3485250519589
1711005229817,-1131.3810684331693
1711005229858,-1657.1901045166887
1711005229898,-1657.1901045166887
1711005229937,-1657.1901045166887
1711005229978,-1657.1901045166887
1711005230018,-1657.1901045166887
1711005230058,-1657.1901045166887
1711005230098,-1657.1901045166887
1711005230138,-1657.1901045166887
1711005230178,-5309.881110077491
1711005230218,-9191.053079276346
1711005230259,-9191.053079276346
1711005230298,-9191.053079276346
1711005230338,-9191.053079276346
1711005230379,-9191.053079276346
1711005230419,-9191.053079276346
1711005230460,-9191.053079276346
1711005230499,-9191.053079276346
1711005230539,-9191.053079276346
1711005230579,-9191.053079276346
1711005230619,-9247.202766725793
1711005230660,-9368.455533406464
1711005230700,-9368.455533406464
1711005230740,-9340.066396807553
1711005230780,-9191.053079276346
1711005230820,-8122.292629365576
1711005230861,-8121.2410024157725
1711005230900,-8022.8577222991735
1711005230940,-7733.9403016828
1711005230981,-7701.639423730783
1711005231021,-7226.824846300064
1711005231061,-6907.981780169532
1711005231101,-6275.567274901317
1711005231141,-6275.567274901317
1711005231181,-6275.567274901317
1711005231221,-6275.567274901317
1711005231262,-6275.567274901317
1711005231301,-6275.567274901317
1711005231342,-6678.921112223063
1711005231382,-6907.981780169532
1711005231422,-7226.824846300064
1711005231463,-7226.824846300064
1711005231502,-7226.824846300064
1711005231542,-7226.824846300064
1711005231582,-7226.824846300064
1711005231622,-7226.824846300064
1711005231663,-7226.824846300064
1711005231703,-7226.824846300064
1711005231743,-7226.824846300064
1711005231783,-9901.832418766106
1711005231823,-9901.832418766106
1711005231864,-9901.832418766106
1711005231903,-9901.832418766106
1711005231943,-9901.832418766106
1711005231983,-9901.832418766106
1711005232023,-9901.832418766106
1711005232064,-9901.832418766106
1711005232104,-9901.832418766106
1711005232144,-9901.832418766106
1711005232184,-9901.832418766106
1711005232224,-9901.832418766106
1711005232265,-9901.832418766106
1711005232304,-9901.832418766106
1711005232344,-9901.832418766106
1711005232385,-9901.832418766106
1711005232425,-9901.832418766106
1711005232466,-9901.832418766106
1711005232505,-9901.832418766106
1711005232545,-9901.832418766106
1711005232585,-9901.832418766106
1711005232625,-10099.971812313888
1711005232666,-10099.971812313888
1711005232706,-10099.971812313888
1711005232746,-10099.971812313888
1711005232786,-10099.971812313888
1711005232826,-10099.971812313888
1711005232867,-10099.971812313888
1711005232907,-10099.971812313888
1711005232947,-10099.971812313888
1711005232987,-10099.971812313888
1711005233027,-10099.971812313888
1711005233068,-8489.442994912155
1711005233107,-6743.118579333648
1711005233148,-4125.897554653231
1711005233188,-2724.0266958158463
1711005233228,-2560.4495984213427
1711005233269,-2006.9620465361513
1711005233308,-1492.5680143348873
1711005233348,-1039.6685667270795
1711005233388,-248.3728681972716
1711005233428,-136.1899220214691
1711005233469,1312.6535201028455
1711005233509,1913.9448379576206
1711005233549,2401.7993299167138
1711005233589,3034.491773678921
1711005233629,3995.5738248201087
1711005233670,5157.064267180394
1711005233710,5157.064267180394
1711005233750,5157.064267180394
1711005233790,5157.064267180394
1711005233830,5157.064267180394
1711005233871,3995.5738248201087
1711005233910,3995.5738248201087
1711005233951,3995.5738248201087
1711005233991,3995.5738248201087
1711005234031,3995.5738248201087
1711005234072,3995.5738248201087
1711005234111,3995.5738248201087
1711005234151,3995.5738248201087
1711005234191,3995.5738248201087
1711005234232,3995.5738248201087
1711005234272,2049.1351749100722
1711005234312,-1914.2657440702897
1711005234352,-4621.754511199426
1711005234392,-4621.754511199426
1711005234432,-4621.754511199426
1711005234473,-4621.754511199426
1711005234513,-4621.754511199426
1711005234553,-4621.754511199426
1711005234593,-4621.754511199426
1711005234633,-4621.754511199426
1711005234674,-4654.116127612069
1711005234714,-5660.331695844885
1711005234754,-5801.675159014296
1711005234794,-5801.675159014296
1711005234834,-5660.331695844885
1711005234875,-4654.116127612069
1711005234914,-4635.555665004998
1711005234954,-3577.6983789666556
1711005234994,-3131.213935690932
1711005235034,-2539.6137140379287
1711005235075,-1981.414908671286
1711005235114,-647.7947394698858
1711005235155,-355.88318550167605
1711005235195,-86.03887742059305
1711005235235,1218.223213029094
1711005235276,2673.0534603837878
1711005235315,3105.0003170622513
1711005235355,3276.741974565666
1711005235395,6071.664438327309
1711005235435,8527.819557642099
1711005235476,8527.819557642099
1711005235515,8527.819557642099
1711005235556,8527.819557642099
1711005235596,8527.819557642099
1711005235636,8527.819557642099
1711005235677,8527.819557642099
1711005235716,8527.819557642099
1711005235756,8527.819557642099
1711005235796,8527.819557642099
1711005235836,8527.819557642099
1711005235877,5005.571332493564
1711005235917,1117.9622792068403
1711005235957,1117.9622792068403
1711005235997,1117.9622792068403
1711005236037,1117.9622792068403
1711005236078,1117.9622792068403
1711005236117,1117.9622792068403
1711005236157,1117.9622792068403
1711005236197,1117.9622792068403
1711005236238,1117.9622792068403
1711005236278,1117.9622792068403
1711005236318,1117.9622792068403
1711005236358,3337.6642826702446
1711005236398,5138.59533391986
1711005236438,7290.652546074241
1711005236479,8075.963725789916
1711005236518,8075.963725789916
1711005236558,8075.963725789916
1711005236599,8075.963725789916
1711005236639,8075.963725789916
1711005236680,8075.963725789916
1711005236719,8075.963725789916
1711005236759,8075.963725789916
1711005236799,8075.963725789916
1711005236839,8075.963725789916
1711005236880,8075.963725789916
1711005236919,6424.325497884303
1711005236960,6173.952284543309
1711005237000,5187.69448641059
1711005237040,4169.812129165512
1711005237081,4004.368954682257
1711005237120,3820.6740023563616
1711005237160,2965.009358660551
1711005237200,2411.2965835914947
1711005237241,1968.4109911746345
1711005237281,1947.3356305495836
1711005237321,1706.0795986885205
1711005237361,1321.7768215727992
1711005237401,1275.9349034756888
1711005237441,1174.9255459553096
1711005237482,1079.2617066483945
1711005237521,812.7925321646035
1711005237561,253.76102093607187
1711005237602,-4473.281568055041
1711005237642,-8554.454769116826
1711005237682,-10749.078070129734
1711005237722,-10749.078070129734
1711005237762,-10749.078070129734
1711005237802,-10749.078070129734
1711005237842,-10749.078070129734
1711005237883,-10749.078070129734
1711005237923,-10749.078070129734
1711005237963,-10749.078070129734
1711005238003,-10749.078070129734
1711005238043,-10749.078070129734
1711005238084,-10749.078070129734
1711005238123,-9831.946655359352
1711005238163,-9831.946655359352
1711005238203,-9831.946655359352
1711005238243,-9831.946655359352
1711005238284,-9831.946655359352
1711005238324,-9831.946655359352
1711005238364,-9831.946655359352
1711005238404,-9831.946655359352
1711005238444,-9831.946655359352
1711005238485,-9831.946655359352
1711005238524,-9831.946655359352
1711005238565,-10676.294740836602
1711005238605,-12164.593529654201
1711005238645,-12164.593529654201
1711005238686,-12164.593529654201
1711005238725,-12164.593529654201
1711005238765,-12164.593529654201
1711005238806,-12164.593529654201
1711005238846,-12164.593529654201
1711005238886,-12164.593529654201
1711005238926,-12164.593529654201
1711005238966,-12164.593529654201
1711005239006,-12164.593529654201
1711005239046,-10012.375665531494
1711005239087,-7823.7990265474655
1711005239126,-6882.810213054065
1711005239167,-6882.810213054065
1711005239207,-6882.810213054065
1711005239247,-6882.810213054065
1711005239288,-6882.810213054065
1711005239327,-6882.810213054065
1711005239367,-6882.810213054065
1711005239407,-6882.810213054065
1711005239447,-6882.810213054065
1711005239488,-6455.17843414098
1711005239528,-5836.757969262078
1711005239568,-4547.182497172849
1711005239608,-4377.737529230071
1711005239648,-4377.737529230071
1711005239689,-4377.737529230071
1711005239728,-4377.737529230071
1711005239769,-4377.737529230071
1711005239809,-4377.737529230071
1711005239849,-4377.737529230071
1711005239890,-4377.737529230071
1711005239929,-5230.207330726087
1711005239969,-5230.207330726087
1711005240010,-5230.207330726087
1711005240050,-5230.207330726087
1711005240090,-5230.207330726087
1711005240130,-5230.207330726087
1711005240170,-5230.207330726087
1711005240210,-5230.207330726087
1711005240250,-5230.207330726087
1711005240291,-4305.162561568432
1711005240331,-4262.652467566077
1711005240371,-2529.1424228532705
1711005240411,-2426.944790443871
1711005240451,-2426.944790443871
1711005240492,-2426.944790443871
1711005240531,-2426.944790443871
1711005240571,-2426.944790443871
1711005240612,-2426.944790443871
1711005240652,-2426.944790443871
1711005240693,-2426.944790443871
1711005240732,-2426.944790443871
1711005240772,-2384.14429773367
1711005240812,-2384.14429773367
1711005240853,-2384.14429773367
1711005240893,-2384.14429773367
1711005240933,-2384.14429773367
1711005240973,-2384.14429773367
1711005241013,-2384.14429773367
1711005241053,-2384.14429773367
1711005241094,-2384.14429773367
1711005241133,-2384.14429773367
1711005241173,-2384.14429773367
1711005241213,-2384.14429773367
1711005241253,-2384.14429773367
1711005241294,-2384.14429773367
1711005241334,-2384.14429773367
1711005241374,-2384.14429773367
1711005241414,-2384.14429773367
1711005241454,-2384.14429773367
1711005241495,-2384.14429773367
1711005241534,-2384.14429773367
1711005241574,-2384.14429773367
1711005241614,-1594.0841886764392
1711005241654,-1513.8456293086056
1711005241695,-1513.8456293086056
1711005241735,-1513.8456293086056
1711005241775,-1513.8456293086056
1711005241815,-1513.8456293086056
1711005241855,-1513.8456293086056
1711005241896,-1513.8456293086056
1711005241935,-1513.8456293086056
1711005241975,-1513.8456293086056
1711005242015,-1513.8456293086056
1711005242056,-1513.8456293086056
1711005242096,-1627.1415284255054
1711005242136,-1627.1415284255054
1711005242176,-1627.1415284255054
1711005242216,-1627.1415284255054
1711005242256,-1627.1415284255054
1711005242297,-1627.1415284255054
1711005242336,-1627.1415284255054
1711005242376,-1627.1415284255054
1711005242416,-1627.1415284255054
1711005242456,-1627.1415284255054
1711005242497,-1627.1415284255054
1711005242537,-1385.540477633942
1711005242577,-1385.540477633942
1711005242617,-1385.540477633942
1711005242657,-1385.540477633942
1711005242698,-1385.540477633942
1711005242737,-1385.540477633942
1711005242777,-1385.540477633942
1711005242817,-1385.540477633942
1711005242857,-1385.540477633942
1711005242898,-1385.540477633942
1711005242938,-1385.540477633942
1711005242978,-1385.540477633942
1711005243018,-1385.540477633942
1711005243058,-1385.540477633942
1711005243099,-1385.540477633942
1711005243138,-1385.540477633942
1711005243178,-1385.540477633942
1711005243218,-1385.540477633942
1711005243259,-1385.540477633942
1711005243299,-1385.540477633942
1711005243339,-2318.961494242307
1711005243379,-3588.984318825882
1711005243419,-3681.982608947903
1711005243459,-2318.961494242307
1711005243500,-2235.15714650834
1711005243539,-740.0120732083451
1711005243580,-351.6931793629192
1711005243620,534.8383553661406
1711005243660,677.8125258961227
1711005243701,996.4288383801468
1711005243740,1320.2443365727086
1711005243780,1669.8820871952921
1711005243820,1756.9594119279645
1711005243861,2051.075547780143
1711005243901,2567.2492190096527
1711005243941,2682.551052329596
1711005243981,2682.551052329596
1711005244021,2682.551052329596
1711005244061,2682.551052329596
1711005244102,2567.2492190096527
1711005244141,2567.2492190096527
1711005244182,2567.2492190096527
1711005244222,2567.2492190096527
1711005244262,2567.2492190096527
1711005244303,2567.2492190096527
1711005244342,2567.2492190096527
1711005244382,1756.9594119279645
1711005244422,1357.692660980858
1711005244463,1357.692660980858
1711005244503,1357.692660980858
1711005244543,-1905.9753935269546
1711005244583,-4275.594711735379
1711005244623,-4275.594711735379
1711005244663,-4275.594711735379
1711005244704,-4275.594711735379
1711005244743,-4275.594711735379
1711005244784,-4275.594711735379
1711005244824,-4275.594711735379
1711005244864,-4275.594711735379
1711005244905,-4275.594711735379
1711005244944,-4275.594711735379
1711005244984,-5497.910357937217
1711005245025,-5504.686686543282
1711005245065,-5504.686686543282
1711005245106,-5504.686686543282
1711005245145,-5504.686686543282
1711005245185,-5504.686686543282
1711005245225,-5504.686686543282
1711005245265,-5504.686686543282
1711005245306,-6320.382408531383
1711005245346,-6320.382408531383
1711005245386,-5497.910357937217
1711005245426,-5072.829105056124
1711005245466,-5072.829105056124
1711005245507,-5072.829105056124
1711005245547,-5072.829105056124
1711005245587,-5072.829105056124
1711005245627,-5072.829105056124
1711005245667,-5072.829105056124
1711005245708,-5072.829105056124
1711005245747,-5072.829105056124
1711005245788,-5072.829105056124
1711005245828,-2137.553488478996
1711005245868,-884.3954491652548
1711005245909,-884.3954491652548
1711005245948,-764.2613241681829
1711005245988,-437.20527459308505
1711005246028,376.3588240821846
1711005246068,1093.9314621435478
1711005246109,1833.6546983192675
1711005246149,2896.245955145918
1711005246189,3011.548302046722
1711005246229,4175.919312899001
1711005246269,4546.880798523314
1711005246310,4872.432763846358
1711005246349,6408.423989048693
1711005246390,6408.423989048693
1711005246432,6408.423989048693
1711005246470,6408.423989048693
1711005246511,6408.423989048693
1711005246550,4872.432763846358
1711005246590,4175.919312899001
1711005246631,3011.548302046722
1711005246671,3011.548302046722
1711005246712,3011.548302046722
1711005246751,3011.548302046722
1711005246791,3011.548302046722
1711005246831,3011.548302046722
1711005246871,3011.548302046722
1711005246912,3011.548302046722
1711005246951,2258.1938020219095
1711005246992,-1442.7880340684205
1711005247032,-5068.996561843436
1711005247072,-5068.996561843436
1711005247113,-5068.996561843436
1711005247152,-5068.996561843436
1711005247192,-5068.996561843436
1711005247232,-5068.996561843436
1711005247272,-5068.996561843436
1711005247313,-5068.996561843436
1711005247352,-5068.996561843436
1711005247392,-5068.996561843436
1711005247433,-5068.996561843436
1711005247473,-5068.996561843436
1711005247514,-5068.996561843436
1711005247553,-5068.996561843436
1711005247593,-5068.996561843436
1711005247633,-5068.996561843436
1711005247673,-5068.996561843436
1711005247714,-5068.996561843436
1711005247754,-5068.996561843436
1711005247794,-5068.996561843436
1711005247834,-4239.427255311748
1711005247874,-3188.1657152967528
1711005247915,-3042.302820870653
1711005247954,-3042.302820870653
1711005247994,-3042.302820870653
1711005248034,-3042.302820870653
1711005248075,-3042.302820870653
1711005248115,-3042.302820870653
1711005248155,-3042.302820870653
1711005248195,-3042.302820870653
1711005248235,-3042.302820870653
1711005248275,-29.500891570933163
1711005248316,3171.8671907244716
1711005248355,4415.223194646882
1711005248395,4415.223194646882
1711005248435,4415.223194646882
1711005248475,4415.223194646882
1711005248516,4415.223194646882
1711005248556,4415.223194646882
1711005248596,4415.223194646882
1711005248639,4415.223194646882
1711005248676,4415.223194646882
1711005248717,4415.223194646882
1711005248756,4415.223194646882
1711005248796,1194.7998167776968
1711005248836,-409.94593442138284
1711005248876,-409.94593442138284
1711005248917,-409.94593442138284
1711005248957,-409.94593442138284
1711005248997,-409.94593442138284
1711005249037,-409.94593442138284
1711005249077,-409.94593442138284
1711005249118,-409.94593442138284
1711005249157,-409.94593442138284
1711005249197,-409.94593442138284
1711005249237,-409.94593442138284
1711005249278,-409.94593442138284
1711005249318,-409.94593442138284
1711005249358,-409.94593442138284
1711005249398,-409.94593442138284
1711005249438,-409.94593442138284
1711005249478,-409.94593442138284
1711005249519,-409.94593442138284
1711005249558,-409.94593442138284
1711005249598,-409.94593442138284
1711005249638,-409.94593442138284
1711005249678,-1284.6786754904315
1711005249719,-3919.040465919068
1711005249759,-3919.040465919068
1711005249799,-3919.040465919068
1711005249839,-3919.040465919068
1711005249879,-3919.040465919068
1711005249920,-3919.040465919068
1711005249959,-3919.040465919068
1711005250000,-3919.040465919068
1711005250040,-3919.040465919068
1711005250080,-3919.040465919068
1711005250121,-3919.040465919068
1711005250160,-3286.9952184320427
1711005250200,-3286.9952184320427
1711005250240,-3286.9952184320427
1711005250280,-3286.9952184320427
1711005250321,-3286.9952184320427
1711005250361,-3286.9952184320427
1711005250401,-3286.9952184320427
1711005250441,-3286.9952184320427
1711005250481,-3286.9952184320427
1711005250522,-3065.8598188939504
1711005250561,-2937.5741360085085
1711005250601,-1400.4892630169634
1711005250642,-1400.4892630169634
1711005250682,-1400.4892630169634
1711005250723,-1400.4892630169634
1711005250762,-1400.4892630169634
1711005250802,-1400.4892630169634
1711005250845,-1400.4892630169634
1711005250882,-1400.4892630169634
1711005250923,-1400.4892630169634
1711005250963,-3065.8598188939504
1711005251003,-3065.8598188939504
1711005251043,-3065.8598188939504
1711005251083,-3065.8598188939504
1711005251124,-3065.8598188939504
1711005251163,-3065.8598188939504
1711005251203,-3065.8598188939504
1711005251243,-3065.8598188939504
1711005251284,-1400.4892630169634
1711005251324,-1343.6844448312186
1711005251364,-1092.0984271774068
1711005251404,307.3754695034586
1711005251444,1390.88735894626
1711005251484,3046.5736856609583
1711005251525,3046.5736856609583
1711005251565,3046.5736856609583
1711005251605,3046.5736856609583
1711005251645,3046.5736856609583
1711005251685,3046.5736856609583
1711005251726,3046.5736856609583
1711005251765,10546.315197213087
1711005251805,19860.656041298527
1711005251845,28811.26947678812
1711005251886,38190.76023700228
1711005251927,38190.76023700228
1711005251966,38190.76023700228
1711005252006,38190.76023700228
1711005252046,38190.76023700228
1711005252086,38190.76023700228
1711005252127,38190.76023700228
1711005252167,38190.76023700228
1711005252207,38190.76023700228
1711005252247,38190.76023700228
1711005252287,38190.76023700228
1711005252328,27023.132989359554
1711005252367,17476.705671933014
1711005252407,9966.000254984945
1711005252447,4737.515754927881
1711005252487,1170.9617834615055
1711005252528,-557.912678388413
1711005252568,-872.5797333903611
1711005252608,-1138.861952574458
1711005252648,-1581.1002642703243
1711005252688,-1905.8477143347263
1711005252729,-1928.6268134205602
1711005252769,-2486.5166932898574
1711005252809,-2631.6564577405807
1711005252849,-3025.477837521117
1711005252889,-6102.173701872816
1711005252930,-11561.735018707346
1711005252969,-12250.2727266734
1711005253010,-12250.2727266734
1711005253050,-12250.2727266734
1711005253090,-12250.2727266734
1711005253131,-12250.2727266734
1711005253170,-12250.2727266734
1711005253210,-12250.2727266734
1711005253250,-13871.091459374642
1711005253290,-14306.03440428502
1711005253331,-14512.129782977281
1711005253370,-15197.995304002427
1711005253410,-15197.995304002427
1711005253450,-15197.995304002427
1711005253491,-15197.995304002427
1711005253531,-15197.995304002427
1711005253571,-15197.995304002427
1711005253611,-15246.58729325654
1711005253651,-15770.354505598778
1711005253691,-15590.302827271866
1711005253732,-15590.302827271866
1711005253771,-15590.302827271866
1711005253812,-15590.302827271866
1711005253852,-16196.440286460333
1711005253892,-16590.80807158677
1711005253932,-17348.006644111127
1711005253972,-17672.676583842374
1711005254012,-18163.82849277649
1711005254052,-18268.620100721717
1711005254092,-18483.967458045343
1711005254133,-19329.86696988996
1711005254173,-19329.86696988996
1711005254213,-19329.86696988996
1711005254253,-19329.86696988996
1711005254293,-20981.37990493863
1711005254334,-24471.003001914825
1711005254373,-24471.003001914825
1711005254413,-24471.003001914825
1711005254453,-24471.003001914825
1711005254493,-24471.003001914825
1711005254534,-24471.003001914825
1711005254574,-24471.003001914825
1711005254614,-25549.452200729167
1711005254654,-26511.77256746497
1711005254694,-28617.735705691855
1711005254735,-28810.33460271405
1711005254774,-29147.783314317
1711005254814,-29474.18935015425
1711005254854,-29474.18935015425
1711005254894,-29474.18935015425
1711005254935,-29474.18935015425
1711005254975,-29474.18935015425
1711005255015,-29474.18935015425
1711005255055,-28810.33460271405
1711005255095,-28810.33460271405
1711005255136,-28810.33460271405
1711005255175,-28810.33460271405
1711005255215,-28810.33460271405
1711005255255,-28810.33460271405
1711005255296,-28810.33460271405
1711005255336,-28810.33460271405
1711005255376,-28810.33460271405
1711005255416,-28810.33460271405
1711005255456,-28676.386319844984
1711005255496,-28676.386319844984
1711005255537,-28676.386319844984
1711005255576,-28676.386319844984
1711005255616,-28676.386319844984
1711005255657,-28676.386319844984
1711005255697,-28676.386319844984
1711005255737,-28676.386319844984
1711005255777,-28676.386319844984
1711005255817,-27688.64333573333
1711005255857,-26553.011390048545
1711005255897,-25590.470309671247
1711005255938,-24943.925333956024
1711005255977,-24943.925333956024
1711005256018,-24943.925333956024
1711005256058,-24943.925333956024
1711005256098,-24943.925333956024
1711005256139,-24943.925333956024
1711005256178,-24943.925333956024
1711005256218,-24943.925333956024
1711005256258,-24943.925333956024
1711005256298,-21419.060383994365
1711005256339,-18164.558677021414
1711005256379,-17094.188768815715
1711005256418,-17094.188768815715
1711005256459,-17094.188768815715
1711005256499,-17094.188768815715
1711005256539,-17094.188768815715
1711005256579,-17094.188768815715
1711005256619,-17094.188768815715
1711005256659,-15675.117029405665
1711005256699,-15108.514418631792
1711005256740,-13110.738967339043
1711005256779,-12997.218706289073
1711005256820,-12468.250811360078
1711005256860,-10412.01836401783
1711005256900,-10412.01836401783
1711005256941,-10412.01836401783
1711005256980,-10412.01836401783
1711005257020,-10412.01836401783
1711005257060,-10412.01836401783
1711005257101,-10412.01836401783
1711005257141,-10412.01836401783
1711005257181,-7940.870486705098
1711005257221,-4732.559065487701
1711005257261,-1848.263797099702
1711005257301,-1848.263797099702
1711005257342,-1848.263797099702
1711005257381,-1848.263797099702
1711005257422,-1848.263797099702
1711005257462,-1848.263797099702
1711005257502,-1848.263797099702
1711005257543,-1848.263797099702
1711005257582,-1848.263797099702
1711005257622,-766.9869023030624
1711005257662,-87.40297538670711
1711005257703,199.48275659885257
1711005257743,1643.5180884241126
1711005257783,1643.5180884241126
1711005257823,1643.5180884241126
1711005257863,1643.5180884241126
1711005257903,1643.5180884241126
1711005257944,1643.5180884241126
1711005257984,1643.5180884241126
1711005258024,1643.5180884241126
1711005258064,1643.5180884241126
1711005258104,4069.1063113636337
1711005258145,5881.557731054956
1711005258185,8216.182067454793
1711005258225,8216.182067454793
1711005258265,8216.182067454793
1711005258305,8216.182067454793
1711005258346,8216.182067454793
1711005258385,8216.182067454793
1711005258425,8216.182067454793
1711005258465,8216.182067454793
1711005258506,8216.182067454793
1711005258547,9056.05397213623
1711005258586,9139.794753618306
1711005258626,10686.957759632729
1711005258666,11007.078811484855
1711005258706,11007.078811484855
1711005258747,11007.078811484855
1711005258787,11007.078811484855
1711005258827,11007.078811484855
1711005258867,11007.078811484855
1711005258907,11007.078811484855
1711005258948,11007.078811484855
1711005258987,11007.078811484855
1711005259028,13307.93203526223
1711005259068,14416.40152593283
1711005259108,14416.40152593283
1711005259149,14416.40152593283
1711005259188,14416.40152593283
1711005259228,14416.40152593283
1711005259268,14416.40152593283
1711005259308,14416.40152593283
1711005259349,14416.40152593283
1711005259389,14416.40152593283
1711005259429,14880.333717565052
1711005259469,15104.732655011583
1711005259509,16012.431888234336
1711005259549,16259.466458322713
1711005259589,16259.466458322713
1711005259629,16259.466458322713
1711005259669,16259.466458322713
1711005259709,16259.466458322713
1711005259750,16259.466458322713
1711005259789,16259.466458322713
1711005259829,16259.466458322713
1711005259870,16259.466458322713
1711005259910,16259.466458322713
1711005259950,16259.466458322713
1711005259990,16259.466458322713
1711005260030,16259.466458322713
1711005260070,16259.466458322713
1711005260110,16259.466458322713
1711005260151,16259.466458322713
1711005260190,16259.466458322713
1711005260231,16259.466458322713
1711005260271,16259.466458322713
1711005260311,15253.018197749509
1711005260352,15253.018197749509
1711005260391,15253.018197749509
1711005260431,15253.018197749509
1711005260471,15253.018197749509
1711005260511,15253.018197749509
1711005260552,15253.018197749509
1711005260592,15253.018197749509
1711005260631,15253.018197749509
1711005260672,15253.018197749509
1711005260712,15253.018197749509
1711005260753,15676.643034684472
1711005260792,16731.316441446776
1711005260832,16731.316441446776
1711005260872,16731.316441446776
1711005260912,16731.316441446776
1711005260953,16731.316441446776
1711005260992,16731.316441446776
1711005261033,16731.316441446776
1711005261073,16731.316441446776
1711005261113,16731.316441446776
1711005261154,16731.316441446776
1711005261193,16731.316441446776
1711005261233,13745.875808304874
1711005261273,11119.98267358495
1711005261313,11119.98267358495
1711005261354,11119.98267358495
1711005261394,11119.98267358495
1711005261434,11119.98267358495
1711005261474,11119.98267358495
1711005261514,11119.98267358495
1711005261555,11119.98267358495
1711005261594,11119.98267358495
1711005261634,11119.98267358495
1711005261674,11119.98267358495
1711005261714,12099.899576985044
1711005261755,12099.899576985044
1711005261795,12099.899576985044
1711005261835,12099.899576985044
1711005261875,12099.899576985044
1711005261915,12099.899576985044
1711005261956,12099.899576985044
1711005261995,12099.899576985044
1711005262036,12099.899576985044
1711005262076,12099.899576985044
1711005262116,12099.899576985044
1711005262157,8201.489039873937
1711005262196,5498.246233513579
1711005262236,4005.906493102433
1711005262276,4005.906493102433
1711005262316,4005.906493102433
1711005262357,4005.906493102433
1711005262397,4005.906493102433
1711005262437,4005.906493102433
1711005262477,4005.906493102433
1711005262517,4005.906493102433
1711005262558,4005.906493102433
1711005262597,4005.906493102433
1711005262637,3296.443741571391
1711005262677,3296.443741571391
1711005262717,3296.443741571391
1711005262758,3296.443741571391
1711005262798,3296.443741571391
1711005262838,3296.443741571391
1711005262878,3296.443741571391
1711005262918,3296.443741571391
1711005262959,3296.443741571391
1711005262999,3296.443741571391
1711005263039,1124.13319384004
1711005263079,-2054.2339255353436
1711005263119,-3173.7779653635807
1711005263160,-3173.7779653635807
1711005263199,-3173.7779653635807
1711005263239,-3173.7779653635807
1711005263279,-3173.7779653635807
1711005263320,-3173.7779653635807
1711005263361,-3173.7779653635807
1711005263400,-3173.7779653635807
1711005263440,-3173.7779653635807
1711005263479,-3173.7779653635807
1711005263519,-4583.989643859677
1711005263560,-4583.989643859677
1711005263600,-4583.989643859677
1711005263640,-4583.989643859677
1711005263680,-4583.989643859677
1711005263720,-4583.989643859677
1711005263761,-4583.989643859677
1711005263800,-4583.989643859677
1711005263841,-4583.989643859677
1711005263881,-4583.989643859677
1711005263921,-7692.100793004502
1711005263962,-12288.448877891991
1711005264001,-15039.208611292765
1711005264041,-15039.208611292765
1711005264082,-15039.208611292765
1711005264122,-15039.208611292765
1711005264163,-15039.208611292765
1711005264202,-15039.208611292765
1711005264242,-15039.208611292765
1711005264282,-15039.208611292765
1711005264323,-15039.208611292765
1711005264363,-15039.208611292765
1711005264403,-15039.208611292765
1711005264443,-15788.083077870775
1711005264483,-15788.083077870775
1711005264523,-15788.083077870775
1711005264564,-15788.083077870775
1711005264604,-15788.083077870775
1711005264644,-15788.083077870775
1711005264684,-15788.083077870775
1711005264724,-15788.083077870775
1711005264765,-15788.083077870775
1711005264805,-15788.083077870775
1711005264845,-16010.020609790925
1711005264885,-20522.561367460992
1711005264925,-20540.12849883968
1711005264966,-20540.12849883968
1711005265006,-20540.12849883968
1711005265046,-20540.12849883968
1711005265086,-20540.12849883968
1711005265126,-20540.12849883968
1711005265167,-20540.12849883968
1711005265206,-20540.12849883968
1711005265246,-20540.12849883968
1711005265287,-20540.12849883968
1711005265327,-20540.12849883968
1711005265367,-18497.640437050723
1711005265407,-18497.640437050723
1711005265447,-18497.640437050723
1711005265487,-18497.640437050723
1711005265527,-18497.640437050723
1711005265568,-18497.640437050723
1711005265607,-18497.640437050723
1711005265648,-18497.640437050723
1711005265688,-18497.640437050723
1711005265728,-18497.640437050723
1711005265769,-18075.078651053598
1711005265808,-16252.309283050243
1711005265848,-15912.172730371123
1711005265888,-15912.172730371123
1711005265928,-15912.172730371123
1711005265969,-15912.172730371123
1711005266009,-15912.172730371123
1711005266049,-15912.172730371123
1711005266089,-15912.172730371123
1711005266129,-15912.172730371123
1711005266170,-15912.172730371123
1711005266209,-15912.172730371123
1711005266249,-13733.342412518337
1711005266289,-11820.701466688653
1711005266330,-10623.81899040984
1711005266370,-10623.81899040984
1711005266410,-10623.81899040984
1711005266450,-10623.81899040984
1711005266490,-10623.81899040984
1711005266530,-10623.81899040984
1711005266571,-10623.81899040984
1711005266611,-10623.81899040984
1711005266651,-10623.81899040984
1711005266691,-8898.650809219107
1711005266731,-8866.414559029043
1711005266772,-7160.775786112528
1711005266811,-7160.775786112528
1711005266851,-7160.775786112528
1711005266891,-7160.775786112528
1711005266931,-7160.775786112528
1711005266972,-7160.775786112528
1711005267012,-7160.775786112528
1711005267052,-7160.775786112528
1711005267092,-7160.775786112528
1711005267132,-6673.240103616845
1711005267173,-4740.708765274612
1711005267212,-4740.708765274612
1711005267252,-4740.708765274612
1711005267293,-4740.708765274612
1711005267333,-4740.708765274612
1711005267374,-4740.708765274612
1711005267413,-4740.708765274612
1711005267453,-4740.708765274612
1711005267493,-4740.708765274612
1711005267533,-3835.582985304063
1711005267574,-3830.4617527241353
1711005267614,-3263.9759201458655
1711005267654,-2145.5943831685
1711005267694,-2145.5943831685
1711005267734,-2145.5943831685
1711005267775,-2145.5943831685
1711005267814,-2145.5943831685
1711005267854,-2145.5943831685
1711005267894,-2145.5943831685
1711005267935,-2145.5943831685
1711005267975,-3083.2173551106825
1711005268015,-3083.2173551106825
1711005268055,-3083.2173551106825
1711005268095,-3083.2173551106825
1711005268135,-3083.2173551106825
1711005268176,-3083.2173551106825
1711005268215,-3083.2173551106825
1711005268256,-3083.2173551106825
1711005268296,-3083.2173551106825
1711005268336,-2145.5943831685
1711005268377,-2119.7631795001216
1711005268416,-704.7284882618114
1711005268456,-704.7284882618114
1711005268496,-704.7284882618114
1711005268537,-704.7284882618114
1711005268577,-704.7284882618114
1711005268617,-704.7284882618114
1711005268657,-704.7284882618114
1711005268697,-704.7284882618114
1711005268737,-704.7284882618114
1711005268778,-704.7284882618114
1711005268818,-704.7284882618114
1711005268858,-704.7284882618114
1711005268898,-704.7284882618114
1711005268938,-704.7284882618114
1711005268979,-704.7284882618114
1711005269018,-704.7284882618114
1711005269058,-704.7284882618114
1711005269098,-704.7284882618114
1711005269139,-704.7284882618114
1711005269179,-704.7284882618114
1711005269219,-1540.5009439741261
1711005269259,-1540.5009439741261
1711005269299,-1540.5009439741261
1711005269339,-1540.5009439741261
1711005269380,-1540.5009439741261
1711005269420,-1540.5009439741261
1711005269460,-1540.5009439741261
1711005269500,-1540.5009439741261
1711005269540,-1540.5009439741261
1711005269581,-1540.5009439741261
1711005269621,-1540.5009439741261
1711005269661,284.9395778863691
1711005269701,2137.343942990061
1711005269741,3612.4183242756408
1711005269782,5137.1504285151605
1711005269821,6866.084553267341
1711005269861,6866.084553267341
1711005269902,6866.084553267341
1711005269942,6866.084553267341
1711005269983,6866.084553267341
1711005270022,6866.084553267341
1711005270062,6866.084553267341
1711005270102,6866.084553267341
1711005270142,6866.084553267341
1711005270183,6866.084553267341
1711005270223,6866.084553267341
1711005270263,4361.762393882498
1711005270303,4361.762393882498
1711005270344,4361.762393882498
1711005270384,4361.762393882498
1711005270424,4361.762393882498
1711005270464,4361.762393882498
1711005270504,4361.762393882498
1711005270544,4361.762393882498
1711005270585,4361.762393882498
1711005270625,4361.762393882498
1711005270665,4361.762393882498
1711005270705,7663.102497235639
1711005270745,9949.450869136024
1711005270786,11977.71724853362
1711005270825,11977.71724853362
1711005270865,11977.71724853362
1711005270905,11977.71724853362
1711005270945,11977.71724853362
1711005270986,11977.71724853362
1711005271025,11977.71724853362
1711005271066,11977.71724853362
1711005271106,11977.71724853362
1711005271146,11977.71724853362
1711005271187,11977.71724853362
1711005271226,10091.963353894185
1711005271266,8230.693714122055
1711005271306,8230.693714122055
1711005271346,8230.693714122055
1711005271387,8230.693714122055
1711005271427,8230.693714122055
1711005271467,8230.693714122055
1711005271507,8230.693714122055
1711005271547,8230.693714122055
1711005271588,8230.693714122055
1711005271627,8230.693714122055
1711005271667,8230.693714122055
1711005271707,9221.243563083932
1711005271747,10789.787836866453
1711005271788,10789.787836866453
1711005271828,10789.787836866453
1711005271868,10789.787836866453
1711005271908,10789.787836866453
1711005271948,10789.787836866453
1711005271989,10789.787836866453
1711005272028,10789.787836866453
1711005272068,10789.787836866453
1711005272108,10789.787836866453
1711005272149,10789.787836866453
1711005272189,9839.867368629668
1711005272229,8071.957540890668
1711005272269,8071.957540890668
1711005272309,8071.957540890668
1711005272349,8071.957540890668
1711005272390,8071.957540890668
1711005272429,8071.957540890668
1711005272469,8071.957540890668
1711005272510,8071.957540890668
1711005272550,8071.957540890668
1711005272590,8071.957540890668
1711005272630,8071.957540890668
1711005272670,9170.579995165579
1711005272710,9170.579995165579
1711005272750,9170.579995165579
1711005272791,9170.579995165579
1711005272830,9170.579995165579
1711005272871,9170.579995165579
1711005272911,9170.579995165579
1711005272951,9170.579995165579
1711005272992,9170.579995165579
1711005273031,9170.579995165579
1711005273071,9170.579995165579
1711005273111,7533.006832246436
1711005273151,7533.006832246436
1711005273192,7533.006832246436
1711005273232,7533.006832246436
1711005273272,7533.006832246436
1711005273312,7533.006832246436
1711005273352,7533.006832246436
1711005273393,7533.006832246436
1711005273432,7533.006832246436
1711005273473,7533.006832246436
1711005273513,7533.006832246436
1711005273553,7038.1935809806455
1711005273594,7038.1935809806455
1711005273633,7038.1935809806455
1711005273673,7038.1935809806455
1711005273713,7038.1935809806455
1711005273753,7038.1935809806455
1711005273794,7038.1935809806455
1711005273834,7038.1935809806455
1711005273874,7038.1935809806455
1711005273914,7038.1935809806455
1711005273954,6708.198726721341
1711005273995,3739.0760308944155
1711005274034,2380.5656880706083
1711005274075,2380.5656880706083
1711005274115,2380.5656880706083
1711005274155,2380.5656880706083
1711005274196,2380.5656880706083
1711005274235,2380.5656880706083
1711005274275,2380.5656880706083
1711005274315,2380.5656880706083
1711005274355,2380.5656880706083
1711005274396,2380.5656880706083
1711005274436,2380.5656880706083
1711005274476,2380.5656880706083
1711005274516,2380.5656880706083
1711005274556,2380.5656880706083
1711005274597,2380.5656880706083
1711005274636,2380.5656880706083
1711005274677,2380.5656880706083
1711005274717,2380.5656880706083
1711005274757,2380.5656880706083
1711005274798,2380.5656880706083
1711005274837,2380.5656880706083
1711005274877,600.7944378315005
1711005274918,-2386.7062780226115
1711005274958,-3154.5594655189198
1711005274999,-3154.5594655189198
1711005275038,-3154.5594655189198
1711005275078,-3154.5594655189198
1711005275118,-3154.5594655189198
1711005275159,-3154.5594655189198
1711005275199,-3154.5594655189198
1711005275239,-3154.5594655189198
1711005275279,-3154.5594655189198
1711005275319,-3154.5594655189198
1711005275359,-3154.5594655189198
1711005275400,-3154.5594655189198
1711005275440,-3154.5594655189198
1711005275480,-3154.5594655189198
1711005275519,-3154.5594655189198
1711005275559,-3154.5594655189198
1711005275600,-3154.5594655189198
1711005275640,-3154.5594655189198
1711005275680,-3154.5594655189198
1711005275720,-3154.5594655189198
1711005275760,-3154.5594655189198
1711005275801,-5802.793716040673
1711005275840,-6034.889816506067
1711005275881,-6034.889816506067
1711005275921,-6034.889816506067
1711005275961,-6034.889816506067
1711005276002,-6034.889816506067
1711005276041,-6034.889816506067
1711005276081,-6034.889816506067
1711005276121,-6034.889816506067
1711005276161,-6034.889816506067
1711005276202,-6034.889816506067
1711005276242,-7595.470739606768
1711005276282,-7595.470739606768
1711005276322,-7595.470739606768
1711005276362,-7595.470739606768
1711005276403,-7595.470739606768
1711005276443,-7595.470739606768
1711005276483,-7595.470739606768
1711005276523,-7595.470739606768
1711005276563,-7595.470739606768
1711005276604,-7595.470739606768
1711005276643,-7595.470739606768
1711005276683,-11000.620774523122
1711005276723,-11000.620774523122
1711005276763,-11000.620774523122
1711005276804,-11000.620774523122
1711005276844,-11000.620774523122
1711005276884,-11000.620774523122
1711005276924,-11000.620774523122
1711005276964,-11000.620774523122
1711005277005,-11000.620774523122
1711005277044,-11000.620774523122
1711005277084,-11000.620774523122
1711005277124,-10843.380300990772
1711005277164,-10843.380300990772
1711005277205,-10843.380300990772
1711005277245,-10843.380300990772
1711005277285,-10843.380300990772
1711005277325,-10843.380300990772
1711005277365,-10843.380300990772
1711005277406,-10843.380300990772
1711005277445,-10843.380300990772
1711005277485,-10843.380300990772
1711005277525,-10843.380300990772
1711005277566,-12643.58529049973
1711005277606,-12643.58529049973
1711005277646,-12643.58529049973
1711005277686,-12643.58529049973
1711005277726,-12643.58529049973
1711005277766,-12643.58529049973
1711005277807,-12643.58529049973
1711005277846,-12643.58529049973
1711005277886,-12643.58529049973
1711005277927,-12643.58529049973
1711005277967,-12643.58529049973
1711005278008,-11901.0614118292
1711005278047,-9344.88034625398
1711005278087,-7448.503780551488
1711005278127,-7448.503780551488
1711005278167,-7448.503780551488
1711005278208,-7448.503780551488
1711005278248,-7448.503780551488
1711005278288,-7448.503780551488
1711005278328,-7448.503780551488
1711005278368,-7448.503780551488
1711005278409,-7448.503780551488
1711005278448,-7448.503780551488
1711005278488,-7448.503780551488
1711005278529,-8643.686742584687
1711005278569,-8838.077121098293
1711005278609,-8838.077121098293
1711005278649,-8838.077121098293
1711005278689,-8838.077121098293
1711005278729,-8838.077121098293
1711005278769,-8838.077121098293
1711005278810,-8838.077121098293
1711005278849,-8838.077121098293
1711005278890,-8838.077121098293
1711005278930,-8838.077121098293
1711005278970,-8838.077121098293
1711005279011,-6904.322305188049
1711005279050,-4829.606193885673
1711005279090,-4829.606193885673
1711005279130,-4829.606193885673
1711005279170,-4829.606193885673
1711005279211,-4829.606193885673
1711005279251,-4829.606193885673
1711005279291,-4829.606193885673
1711005279331,-4829.606193885673
1711005279371,-4829.606193885673
1711005279412,-4221.411510305945
1711005279451,-3567.2316797217354
1711005279492,-2644.052695629187
1711005279532,-2031.566962318262
1711005279572,-2031.566962318262
1711005279613,-2031.566962318262
1711005279652,-2031.566962318262
1711005279692,-2031.566962318262
1711005279732,-2031.566962318262
1711005279772,-2031.566962318262
1711005279813,-2031.566962318262
1711005279853,-1681.6674758279696
1711005279893,118.61489896057174
1711005279933,770.134914918337
1711005279973,770.134914918337
1711005280014,770.134914918337
1711005280053,770.134914918337
1711005280094,770.134914918337
1711005280134,770.134914918337
1711005280174,976.5141593893059
1711005280215,2244.6756994335447
1711005280254,2676.3575906248298
1711005280294,2849.0207555389497
1711005280334,3586.6999136842787
1711005280374,4565.514610072132
1711005280415,4565.514610072132
1711005280455,4565.514610072132
1711005280495,4565.514610072132
1711005280535,4565.514610072132
1711005280575,4565.514610072132
1711005280616,4565.514610072132
1711005280655,4565.514610072132
1711005280696,4565.514610072132
1711005280736,6216.503921221476
1711005280776,6758.396237762645
1711005280817,6758.396237762645
1711005280856,6758.396237762645
1711005280896,6758.396237762645
1711005280936,6758.396237762645
1711005280976,6758.396237762645
1711005281017,6758.396237762645
1711005281057,6758.396237762645
1711005281097,6758.396237762645
1711005281137,6758.396237762645
1711005281177,6758.396237762645
1711005281218,6758.396237762645
1711005281257,6758.396237762645
1711005281298,6758.396237762645
1711005281338,6758.396237762645
1711005281378,6758.396237762645
1711005281419,6758.396237762645
1711005281458,6758.396237762645
1711005281498,6758.396237762645
1711005281538,6758.396237762645
1711005281579,6758.396237762645
1711005281619,7399.9839850270655
1711005281659,8155.952564530075
1711005281699,8155.952564530075
1711005281739,8155.952564530075
1711005281779,8155.952564530075
1711005281820,8155.952564530075
1711005281860,8155.952564530075
1711005281900,8401.339532207232
1711005281940,8527.11978471186
1711005281980,9361.195881213993
1711005282021,9635.917451144429
1711005282060,10028.58861732576
1711005282101,10049.494270685129
1711005282141,11055.374506103108
1711005282181,11055.374506103108
1711005282222,11055.374506103108
1711005282261,11055.374506103108
1711005282301,11055.374506103108
1711005282341,11055.374506103108
1711005282381,11055.374506103108
1711005282422,11055.374506103108
1711005282461,11055.374506103108
1711005282502,11055.374506103108
1711005282542,11055.374506103108
1711005282582,11055.374506103108
1711005282623,11055.374506103108
1711005282662,11055.374506103108
1711005282702,11055.374506103108
1711005282742,11055.374506103108
1711005282782,11055.374506103108
1711005282823,11055.374506103108
1711005282862,11055.374506103108
1711005282902,8640.712480080314
1711005282942,6798.3093583593145
1711005282983,6149.868119853083
1711005283023,6149.868119853083
1711005283063,6149.868119853083
1711005283103,6149.868119853083
1711005283143,6149.868119853083
1711005283183,6149.868119853083
1711005283224,5267.400396415964
1711005283263,5182.177912787534
1711005283303,5008.039463615045
1711005283344,4801.155757419299
1711005283384,4500.766219184268
1711005283425,4400.9124753000215
1711005283464,4229.715557376854
1711005283504,4068.8193880226463
1711005283544,3353.9161968128756
1711005283584,3353.9161968128756
1711005283625,3353.9161968128756
1711005283664,2624.395850080531
1711005283705,1382.9974421062507
1711005283745,1382.9974421062507
1711005283785,1382.9974421062507
1711005283826,1382.9974421062507
1711005283865,1382.9974421062507
1711005283905,1382.9974421062507
1711005283945,1382.9974421062507
1711005283985,1382.9974421062507
1711005284026,1382.9974421062507
1711005284066,1227.0955636582803
1711005284106,40.853388882474974
1711005284146,-284.5506556094624
1711005284186,-284.5506556094624
1711005284227,-284.5506556094624
1711005284266,-284.5506556094624
1711005284306,-284.5506556094624
1711005284346,-284.5506556094624
1711005284386,-284.5506556094624
1711005284427,-284.5506556094624
1711005284467,-284.5506556094624
1711005284507,-1931.324040682288
1711005284547,-4494.516135669313
1711005284587,-4494.516135669313
1711005284628,-4494.516135669313
1711005284667,-4494.516135669313
1711005284707,-4494.516135669313
1711005284747,-4494.516135669313
1711005284788,-4494.516135669313
1711005284828,-4494.516135669313
1711005284868,-4494.516135669313
1711005284908,-4494.516135669313
1711005284948,-5007.216269735945
1711005284988,-5294.040940733161
1711005285029,-5294.040940733161
1711005285068,-5294.040940733161
1711005285108,-5294.040940733161
1711005285149,-5294.040940733161
1711005285189,-5294.040940733161
1711005285229,-5294.040940733161
1711005285269,-5294.040940733161
1711005285309,-5294.040940733161
1711005285349,-5294.040940733161
1711005285389,-9116.55984651018
1711005285430,-11979.241273376625
1711005285469,-12630.900721634505
1711005285510,-12630.900721634505
1711005285550,-12630.900721634505
1711005285590,-12630.900721634505
1711005285631,-12630.900721634505
1711005285670,-12630.900721634505
1711005285710,-12630.900721634505
1711005285750,-12630.900721634505
1711005285790,-12630.900721634505
1711005285831,-12757.04142968217
1711005285871,-13598.112630543299
1711005285911,-13598.112630543299
1711005285951,-13598.112630543299
1711005285991,-13598.112630543299
1711005286032,-13598.112630543299
1711005286071,-13598.112630543299
1711005286111,-13598.112630543299
1711005286151,-13598.112630543299
1711005286192,-13598.112630543299
1711005286232,-13598.112630543299
1711005286272,-12757.04142968217
1711005286312,-12757.04142968217
1711005286352,-12757.04142968217
1711005286392,-12757.04142968217
1711005286433,-12757.04142968217
1711005286473,-12757.04142968217
1711005286513,-12757.04142968217
1711005286553,-12757.04142968217
1711005286593,-12757.04142968217
1711005286634,-12757.04142968217
1711005286673,-14009.214084506966
1711005286713,-14009.214084506966
1711005286753,-14009.214084506966
1711005286794,-14009.214084506966
1711005286834,-14009.214084506966
1711005286874,-14009.214084506966
1711005286914,-14009.214084506966
1711005286954,-13826.077815676574
1711005286994,-12217.117786969058
1711005287035,-11713.388360948302
1711005287075,-11527.113315755269
1711005287115,-10462.064314346993
1711005287155,-10462.064314346993
1711005287195,-10462.064314346993
1711005287236,-10462.064314346993
1711005287275,-10462.064314346993
1711005287315,-10462.064314346993
1711005287355,-10462.064314346993
1711005287396,-10462.064314346993
1711005287437,-10462.064314346993
1711005287476,-10462.064314346993
1711005287516,-10462.064314346993
1711005287558,-10462.064314346993
1711005287598,-10462.064314346993
1711005287639,-10462.064314346993
1711005287679,-10462.064314346993
1711005287719,-10462.064314346993
1711005287759,-10462.064314346993
1711005287799,-10462.064314346993
1711005287840,-9819.091079883277
1711005287879,-9266.242691638414
1711005287920,-9266.242691638414
1711005287960,-9266.242691638414
1711005288000,-9266.242691638414
1711005288041,-9266.242691638414
1711005288080,-9266.242691638414
1711005288120,-9266.242691638414
1711005288160,-9266.242691638414
1711005288200,-9266.242691638414
1711005288241,-9266.242691638414
1711005288281,-7512.581763119437
1711005288321,-6063.907686541788
1711005288361,-6063.907686541788
1711005288401,-6063.907686541788
1711005288442,-6063.907686541788
1711005288481,-6063.907686541788
1711005288522,-5388.147891148459
1711005288562,-4247.882284032181
1711005288602,-4205.735726690618
1711005288643,-3451.379706325475
1711005288682,-2920.815533919027
1711005288722,-2057.3872842229903
1711005288762,-1871.5419424786232
1711005288802,-678.1529579560738
1711005288843,-10.905228739604354
1711005288882,360.3905692144763
1711005288922,360.3905692144763
1711005288963,360.3905692144763
1711005289003,360.3905692144763
1711005289043,360.3905692144763
1711005289083,2278.472783772275
1711005289123,4509.502967881504
1711005289163,7042.33013133565
1711005289203,8414.532495452557
1711005289244,8414.532495452557
1711005289283,8414.532495452557
1711005289323,8414.532495452557
1711005289364,8414.532495452557
1711005289404,8414.532495452557
1711005289444,8414.532495452557
1711005289484,8414.532495452557
1711005289524,8414.532495452557
1711005289564,8414.532495452557
1711005289604,8414.532495452557
1711005289645,8225.676580259576
1711005289684,8225.676580259576
1711005289725,8225.676580259576
1711005289765,8225.676580259576
1711005289805,8225.676580259576
1711005289846,8225.676580259576
1711005289885,8225.676580259576
1711005289925,7735.645296477014
1711005289965,7678.770738752326
1711005290005,6907.188194682123
1711005290046,6734.694902616087
1711005290086,6734.694902616087
1711005290126,6734.694902616087
1711005290166,6734.694902616087
1711005290206,6734.694902616087
1711005290247,6734.694902616087
1711005290286,6734.694902616087
1711005290326,6734.694902616087
1711005290366,2999.7480206363834
1711005290406,824.2569929810707
1711005290447,824.2569929810707
1711005290487,824.2569929810707
1711005290527,824.2569929810707
1711005290567,824.2569929810707
1711005290607,824.2569929810707
1711005290648,824.2569929810707
1711005290687,216.21854926878586
1711005290727,-645.1720858528279
1711005290767,-1309.8949914453551
1711005290808,-2029.1524160886183
1711005290848,-2841.962206638418
1711005290888,-2972.200255941134
1711005290928,-2972.200255941134
1711005290968,-3209.9662722835783
1711005291008,-3209.9662722835783
1711005291049,-3209.9662722835783
1711005291088,-2841.962206638418
1711005291128,-2058.776942197932
1711005291169,-1309.8949914453551
1711005291209,-645.1720858528279
1711005291249,-645.1720858528279
1711005291289,-645.1720858528279
1711005291329,-645.1720858528279
1711005291369,-645.1720858528279
1711005291409,-683.5239296294749
1711005291450,-2058.776942197932
1711005291489,-3209.9662722835783
1711005291530,-3417.5350108162966
1711005291570,-3695.818817303516
1711005291610,-3695.818817303516
1711005291651,-3695.818817303516
1711005291690,-3695.818817303516
1711005291730,-3695.818817303516
1711005291770,-3695.818817303516
1711005291810,-3695.818817303516
1711005291851,-3695.818817303516
1711005291891,-3695.818817303516
1711005291931,-3695.818817303516
1711005291971,-3695.818817303516
1711005292011,-3695.818817303516
1711005292052,-3695.818817303516
1711005292091,-3695.818817303516
1711005292131,-3695.818817303516
1711005292171,-3695.818817303516
1711005292212,-3695.818817303516
1711005292252,-3695.818817303516
1711005292292,-3715.7614697283134
1711005292332,-3715.7614697283134
1711005292372,-3715.7614697283134
1711005292412,-3715.7614697283134
1711005292453,-3715.7614697283134
1711005292492,-3715.7614697283134
1711005292533,-3715.7614697283134
1711005292573,-3715.7614697283134
1711005292613,-3715.7614697283134
1711005292654,-3715.7614697283134
1711005292693,-2143.9655179637484
1711005292733,-720.244241418317
1711005292773,-710.1805359679274
1711005292814,-710.1805359679274
1711005292854,-710.1805359679274
1711005292894,-710.1805359679274
1711005292934,-710.1805359679274
1711005292974,-710.1805359679274
1711005293014,-710.1805359679274
1711005293055,-710.1805359679274
1711005293094,-710.1805359679274
1711005293134,1431.7907641604543
1711005293175,1431.7907641604543
1711005293215,1431.7907641604543
1711005293256,1431.7907641604543
1711005293295,1431.7907641604543
1711005293335,1431.7907641604543
1711005293375,1431.7907641604543
1711005293415,1431.7907641604543
1711005293456,1431.7907641604543
1711005293496,1431.7907641604543
1711005293536,1476.9341191097628
1711005293576,2152.6139193479903
1711005293616,2152.6139193479903
1711005293657,2152.6139193479903
1711005293697,2152.6139193479903
1711005293737,2152.6139193479903
1711005293777,2152.6139193479903
1711005293817,2152.6139193479903
1711005293858,2152.6139193479903
1711005293897,2152.6139193479903
1711005293937,2152.6139193479903
1711005293977,3130.1321101537906
1711005294017,3130.1321101537906
1711005294058,3130.1321101537906
1711005294098,3130.1321101537906
1711005294138,3130.1321101537906
1711005294178,3130.1321101537906
1711005294218,3130.1321101537906
1711005294259,3130.1321101537906
1711005294298,3130.1321101537906
1711005294338,3130.1321101537906
1711005294378,3989.5410331077874
1711005294419,5109.227702394826
1711005294459,5283.025888037868
1711005294499,5283.025888037868
1711005294539,5283.025888037868
1711005294579,5283.025888037868
1711005294619,5283.025888037868
1711005294660,3857.2672539330088
1711005294700,3130.1321101537906
1711005294740,3074.708580759354
1711005294780,2576.5980186639354
1711005294820,2055.256183891557
1711005294861,2055.256183891557
1711005294900,2055.256183891557
1711005294940,1309.6487679784186
1711005294980,1295.7617967319675
1711005295020,1295.7617967319675
1711005295061,1295.7617967319675
1711005295100,970.5908152759075
1711005295141,970.5908152759075
1711005295181,970.5908152759075
1711005295221,970.5908152759075
1711005295262,970.5908152759075
1711005295301,970.5908152759075
1711005295341,970.5908152759075
1711005295381,970.5908152759075
1711005295421,970.5908152759075
1711005295462,970.5908152759075
1711005295501,970.5908152759075
1711005295541,256.2022205805406
1711005295581,256.2022205805406
1711005295622,256.2022205805406
1711005295662,256.2022205805406
1711005295702,256.2022205805406
1711005295742,256.2022205805406
1711005295782,256.2022205805406
1711005295822,256.2022205805406
1711005295863,256.2022205805406
1711005295902,256.2022205805406
1711005295942,256.2022205805406
1711005295983,-2862.4243651542347
1711005296023,-2862.4243651542347
1711005296063,-2862.4243651542347
1711005296103,-2862.4243651542347
1711005296143,-2862.4243651542347
1711005296183,-2862.4243651542347
1711005296223,-2862.4243651542347
1711005296264,-2862.4243651542347
1711005296303,-2862.4243651542347
1711005296343,-2862.4243651542347
1711005296383,-2862.4243651542347
1711005296424,-1665.4264067956246
1711005296464,-1665.4264067956246
1711005296504,-1665.4264067956246
1711005296544,-1665.4264067956246
1711005296584,-1665.4264067956246
1711005296624,-1665.4264067956246
1711005296665,-1665.4264067956246
1711005296704,-1665.4264067956246
1711005296744,-1665.4264067956246
1711005296784,-1665.4264067956246
1711005296824,-1665.4264067956246
1711005296865,-2612.2689716834575
1711005296905,-2612.2689716834575
1711005296945,-2612.2689716834575
1711005296985,-2612.2689716834575
1711005297025,-2612.2689716834575
1711005297066,-2612.2689716834575
1711005297105,-2612.2689716834575
1711005297145,-2612.2689716834575
1711005297185,-2612.2689716834575
1711005297225,-2612.2689716834575
1711005297266,-2612.2689716834575
1711005297306,-1159.9945047588553
1711005297346,-1159.9945047588553
1711005297386,-1159.9945047588553
1711005297426,-1159.9945047588553
1711005297467,-1159.9945047588553
1711005297506,-1159.9945047588553
1711005297546,-1159.9945047588553
1711005297586,-1159.9945047588553
1711005297626,-1159.9945047588553
1711005297667,-326.3941012690775
1711005297707,205.56675294041634
1711005297747,1268.4210005947389
1711005297787,1268.4210005947389
1711005297827,1268.4210005947389
1711005297868,1268.4210005947389
1711005297907,1268.4210005947389
1711005297947,1268.4210005947389
1711005297987,1268.4210005947389
1711005298027,1268.4210005947389
1711005298068,205.56675294041634
1711005298107,-326.3941012690775
1711005298148,-532.2261257390492
1711005298188,-532.2261257390492
1711005298228,-532.2261257390492
1711005298269,-532.2261257390492
1711005298308,-532.2261257390492
1711005298348,-532.2261257390492
1711005298388,-532.2261257390492
1711005298428,-326.3941012690775
1711005298469,-10.848879920318723
1711005298509,205.56675294041634
1711005298549,1402.1475006816909
1711005298589,1402.1475006816909
1711005298629,1402.1475006816909
1711005298670,1402.1475006816909
1711005298709,1402.1475006816909
1711005298749,1402.1475006816909
1711005298789,1402.1475006816909
1711005298829,-10.848879920318723
1711005298870,-532.2261257390492
1711005298910,-1380.903295275988
1711005298950,-1380.903295275988
1711005298990,-1380.903295275988
1711005299030,-1380.903295275988
1711005299071,-1380.903295275988
1711005299110,-1380.903295275988
1711005299150,-1380.903295275988
1711005299190,-1380.903295275988
1711005299231,-1380.903295275988
1711005299271,-2605.1248437920585
1711005299311,-2605.1248437920585
1711005299351,-2605.1248437920585
1711005299391,-2605.1248437920585
1711005299431,-2605.1248437920585
1711005299472,-2605.1248437920585
1711005299511,-2605.1248437920585
1711005299551,-3914.909283094341
1711005299592,-4734.215031357249
1711005299632,-4941.615003119223
1711005299673,-5803.953507094644
1711005299712,-6010.456615367439
1711005299752,-6489.764903831296
1711005299792,-6535.289812687086
1711005299832,-7268.182493282948
1711005299873,-7268.182493282948
1711005299913,-7268.182493282948
1711005299953,-7268.182493282948
1711005299993,-6882.333763032686
1711005300033,-6882.333763032686
1711005300074,-6882.333763032686
1711005300113,-6882.333763032686
1711005300153,-6882.333763032686
1711005300194,-6882.333763032686
1711005300233,-6882.333763032686
1711005300274,-6882.333763032686
1711005300314,-6882.333763032686
1711005300354,-6882.333763032686
1711005300394,-7875.459465460852
1711005300434,-8264.490494192112
1711005300475,-8264.490494192112
1711005300514,-8264.490494192112
1711005300555,-8264.490494192112
1711005300595,-8264.490494192112
1711005300635,-8264.490494192112
1711005300676,-8264.490494192112
1711005300715,-8407.922302006977
1711005300755,-8685.830562263494
1711005300795,-8403.290870713536
1711005300835,-8403.290870713536
1711005300876,-8403.290870713536
1711005300916,-8403.290870713536
1711005300956,-8403.290870713536
1711005300996,-8403.290870713536
1711005301036,-8403.290870713536
1711005301077,-8403.290870713536
1711005301116,-8403.290870713536
1711005301157,-8403.290870713536
1711005301197,-8403.290870713536
1711005301237,-6646.372977617197
1711005301278,-6646.372977617197
1711005301317,-6169.267537818989
1711005301357,-6106.913205864374
1711005301397,-6106.913205864374
1711005301437,-6105.136820970336
1711005301478,-6047.095730696805
1711005301518,-5219.75800100062
1711005301558,-5197.60400562617
1711005301598,-4584.627824838273
1711005301638,-3955.3047685064375
1711005301679,-3853.0981583483517
1711005301718,-2823.3411591565236
1711005301758,-2823.3411591565236
1711005301798,-2823.3411591565236
1711005301838,-2823.3411591565236
1711005301879,-2823.3411591565236
1711005301919,-2823.3411591565236
1711005301959,-3955.3047685064375
1711005301999,-4584.627824838273
1711005302039,-4584.627824838273
1711005302080,-4584.627824838273
1711005302119,-4584.627824838273
1711005302159,-4584.627824838273
1711005302199,-4584.627824838273
1711005302239,-4584.627824838273
1711005302280,-4584.627824838273
1711005302319,-4584.627824838273
1711005302360,-3955.3047685064375
1711005302400,-3259.6953733756673
1711005302440,-3259.6953733756673
1711005302481,-3259.6953733756673
1711005302520,-3259.6953733756673
1711005302560,-3259.6953733756673
1711005302600,-3259.6953733756673
1711005302640,-3259.6953733756673
1711005302681,-3259.6953733756673
1711005302720,-3259.6953733756673
1711005302760,-3259.6953733756673
1711005302801,-1073.0601088891272
1711005302841,-1073.0601088891272
1711005302881,-1073.0601088891272
1711005302921,-1073.0601088891272
1711005302961,-1073.0601088891272
1711005303001,-1073.0601088891272
1711005303041,-1073.0601088891272
1711005303082,-1073.0601088891272
1711005303121,-1073.0601088891272
1711005303161,-1073.0601088891272
1711005303202,-1073.0601088891272
1711005303242,-2239.785383633338
1711005303282,-2970.384026654996
1711005303322,-2970.384026654996
1711005303362,-2970.384026654996
1711005303402,-2970.384026654996
1711005303442,-2970.384026654996
1711005303483,-2970.384026654996
1711005303522,-2970.384026654996
1711005303562,-2970.384026654996
1711005303602,-2970.384026654996
1711005303643,-2970.384026654996
1711005303683,-2593.1942925357725
1711005303723,-2593.1942925357725
1711005303763,-2593.1942925357725
1711005303803,-2593.1942925357725
1711005303843,-2593.1942925357725
1711005303884,-2593.1942925357725
1711005303923,-2593.1942925357725
1711005303963,-2593.1942925357725
1711005304003,-2438.320869338233
1711005304044,-2438.320869338233
1711005304084,-1033.138014971977
1711005304124,-536.1152588794939
1711005304164,327.810229586903
1711005304204,627.4753985216375
1711005304244,627.4753985216375
1711005304285,627.4753985216375
1711005304324,627.4753985216375
1711005304364,627.4753985216375
1711005304404,627.4753985216375
1711005304444,608.619004752487
1711005304485,-536.1152588794939
1711005304525,-536.1152588794939
1711005304565,490.18142395233735
1711005304605,608.619004752487
1711005304645,608.619004752487
1711005304686,608.619004752487
1711005304725,608.619004752487
1711005304765,627.4753985216375
1711005304805,799.840576290153
1711005304845,1537.1536654175725
1711005304886,2280.0266394088976
1711005304926,2294.897141323192
1711005304966,3490.344231778756
1711005305006,3490.344231778756
1711005305046,3490.344231778756
1711005305087,3490.344231778756
1711005305126,3490.344231778756
1711005305166,3490.344231778756
1711005305206,3490.344231778756
1711005305246,3490.344231778756
1711005305287,4630.449289321667
1711005305327,4630.449289321667
1711005305367,4630.449289321667
1711005305407,4630.449289321667
1711005305447,4630.449289321667
1711005305488,4630.449289321667
1711005305527,4630.449289321667
1711005305567,4630.449289321667
1711005305607,4630.449289321667
1711005305647,4630.449289321667
1711005305688,4630.449289321667
1711005305728,4648.838740187464
1711005305768,4648.838740187464
1711005305808,4648.838740187464
1711005305848,4648.838740187464
1711005305889,4648.838740187464
1711005305928,4648.838740187464
1711005305968,4648.838740187464
1711005306008,4648.838740187464
1711005306048,4648.838740187464
1711005306089,4648.838740187464
1711005306129,4648.838740187464
1711005306169,6704.044693866279
1711005306209,6704.044693866279
1711005306249,6704.044693866279
1711005306290,6704.044693866279
1711005306329,6704.044693866279
1711005306369,6704.044693866279
1711005306409,6704.044693866279
1711005306450,6704.044693866279
1711005306490,6704.044693866279
1711005306530,6704.044693866279
1711005306570,6704.044693866279
1711005306613,6366.914334007539
1711005306650,3695.559569124365
1711005306691,3695.559569124365
1711005306730,3695.559569124365
1711005306771,3695.559569124365
1711005306811,3695.559569124365
1711005306851,3695.559569124365
1711005306892,3695.559569124365
1711005306931,3695.559569124365
1711005306971,3695.559569124365
1711005307011,3695.559569124365
1711005307052,3454.450478548417
1711005307092,2783.824003316695
1711005307132,2783.824003316695
1711005307172,2783.824003316695
1711005307212,2783.824003316695
1711005307252,2783.824003316695
1711005307293,2783.824003316695
1711005307332,2783.824003316695
1711005307373,2783.824003316695
1711005307413,2783.824003316695
1711005307453,2783.824003316695
1711005307494,3454.450478548417
1711005307533,3454.450478548417
1711005307573,3454.450478548417
1711005307613,3454.450478548417
1711005307653,3454.450478548417
1711005307694,3454.450478548417
1711005307734,3454.450478548417
1711005307774,3454.450478548417
1711005307814,3454.450478548417
1711005307854,3454.450478548417
1711005307895,3888.018679921981
1711005307934,3888.018679921981
1711005307974,3888.018679921981
1711005308015,3888.018679921981
1711005308055,3888.018679921981
1711005308096,3888.018679921981
1711005308135,3888.018679921981
1711005308175,3888.018679921981
1711005308215,3888.018679921981
1711005308255,3888.018679921981
1711005308296,3888.018679921981
1711005308336,2548.3277437584475
1711005308376,2548.3277437584475
1711005308416,2548.3277437584475
1711005308456,2548.3277437584475
1711005308497,2548.3277437584475
1711005308536,2548.3277437584475
1711005308576,2548.3277437584475
1711005308617,2548.3277437584475
1711005308656,2548.3277437584475
1711005308697,1664.1094356351532
1711005308737,1176.1941233610269
1711005308777,697.8501404023264
1711005308820,697.8501404023264
1711005308857,697.8501404023264
1711005308898,697.8501404023264
1711005308937,697.8501404023264
1711005308977,697.8501404023264
1711005309017,697.8501404023264
1711005309057,697.8501404023264
1711005309098,697.8501404023264
1711005309138,-3497.7352820262313
1711005309178,-7037.910428228788
1711005309218,-7037.910428228788
1711005309258,-7037.910428228788
1711005309299,-7037.910428228788
1711005309338,-7037.910428228788
1711005309378,-7037.910428228788
1711005309418,-7037.910428228788
1711005309459,-7037.910428228788
1711005309499,-7037.910428228788
1711005309539,-7037.910428228788
1711005309579,-7037.910428228788
1711005309619,-7251.861314122099
1711005309659,-7251.861314122099
1711005309700,-7251.861314122099
1711005309739,-7251.861314122099
1711005309779,-7251.861314122099
1711005309819,-7251.861314122099
1711005309859,-7251.861314122099
1711005309900,-7251.861314122099
1711005309940,-6515.238886054605
1711005309980,-5675.5203571065795
1711005310020,-5660.754516339162
1711005310060,-4907.82807263732
1711005310101,-4907.82807263732
1711005310140,-4907.82807263732
1711005310180,-4907.82807263732
1711005310220,-4907.82807263732
1711005310261,-4907.82807263732
1711005310301,-4907.82807263732
1711005310341,-4907.82807263732
1711005310381,-4954.924771149177
1711005310421,-5675.5203571065795
1711005310461,-5675.5203571065795
1711005310502,-5675.5203571065795
1711005310541,-5675.5203571065795
1711005310581,-5675.5203571065795
1711005310622,-5675.5203571065795
1711005310662,-5675.5203571065795
1711005310702,-5675.5203571065795
1711005310742,-5675.5203571065795
1711005310782,-5675.5203571065795
1711005310822,-5884.96624759282
1711005310862,-5884.96624759282
1711005310903,-5884.96624759282
1711005310942,-5884.96624759282
1711005310983,-5884.96624759282
1711005311026,-5884.96624759282
1711005311063,-5884.96624759282
1711005311104,-5884.96624759282
1711005311143,-7464.712439847179
1711005311183,-7766.4434952386655
1711005311223,-7934.4032732043415
1711005311264,-9366.35351206339
1711005311304,-9366.35351206339
1711005311344,-9366.35351206339
1711005311384,-9366.35351206339
1711005311424,-9366.35351206339
1711005311464,-9366.35351206339
1711005311505,-9366.35351206339
1711005311544,-9366.35351206339
1711005311584,-8679.852612857241
1711005311625,-8679.852612857241
1711005311664,-8679.852612857241
1711005311705,-8679.852612857241
1711005311745,-8679.852612857241
1711005311785,-8679.852612857241
1711005311825,-8679.852612857241
1711005311865,-8679.852612857241
1711005311906,-8679.852612857241
1711005311945,-10316.611314047128
1711005311986,-11376.99324353179
1711005312026,-11376.99324353179
1711005312066,-11376.99324353179
1711005312107,-11376.99324353179
1711005312146,-11376.99324353179
1711005312186,-11376.99324353179
1711005312226,-11376.99324353179
1711005312266,-11376.99324353179
1711005312307,-10316.611314047128
1711005312347,-8815.131065516267
1711005312387,-8679.852612857241
1711005312427,-7484.522632269654
1711005312467,-7484.522632269654
1711005312508,-7484.522632269654
1711005312547,-7484.522632269654
1711005312588,-7484.522632269654
1711005312628,-7484.522632269654
1711005312668,-7484.522632269654
1711005312709,-7484.522632269654
1711005312748,-5757.223674766254
1711005312788,-2434.79235397093
1711005312829,-2434.79235397093
1711005312869,-2434.79235397093
1711005312909,-2434.79235397093
1711005312949,-2434.79235397093
1711005312989,-2434.79235397093
1711005313029,-2434.79235397093
1711005313069,-2434.79235397093
1711005313110,-2434.79235397093
1711005313150,-2434.79235397093
1711005313190,-2434.79235397093
1711005313230,-6081.396802124567
1711005313270,-6470.5441452211235
1711005313311,-6470.5441452211235
1711005313350,-6470.5441452211235
1711005313390,-6470.5441452211235
1711005313431,-6470.5441452211235
1711005313471,-6470.5441452211235
1711005313511,-6470.5441452211235
1711005313551,-6470.5441452211235
1711005313591,-6470.5441452211235
1711005313631,-6470.5441452211235
1711005313671,-6470.5441452211235
1711005313712,-6470.5441452211235
1711005313752,-6470.5441452211235
1711005313792,-6470.5441452211235
1711005313832,-6470.5441452211235
1711005313872,-6470.5441452211235
1711005313913,-6470.5441452211235
1711005313952,-6470.5441452211235
1711005313993,-6427.382086432073
1711005314033,-4907.379067037255
1711005314073,-4431.3954249692615
1711005314114,-3088.5279515513685
1711005314153,-2842.3227843996137
1711005314193,-2842.3227843996137
1711005314234,-2842.3227843996137
1711005314274,-2842.3227843996137
1711005314315,-2842.3227843996137
1711005314354,-2842.3227843996137
1711005314394,-2842.3227843996137
1711005314434,-2842.3227843996137
1711005314474,-772.5886260424741
1711005314515,1206.6934086908586
1711005314555,2978.1175543284044
1711005314595,2978.1175543284044
1711005314635,2978.1175543284044
1711005314675,2978.1175543284044
1711005314716,2978.1175543284044
1711005314755,2978.1175543284044
1711005314795,2978.1175543284044
1711005314835,3586.9738616072573
1711005314876,4034.6975502406713
1711005314916,5008.706007273868
1711005314956,5153.786431925371
1711005314996,5650.510430746246
1711005315036,5937.673326400109
1711005315076,5937.673326400109
1711005315117,5937.673326400109
1711005315156,5937.673326400109
1711005315196,5937.673326400109
1711005315236,5937.673326400109
1711005315276,5650.510430746246
1711005315317,5554.784719906282
1711005315357,5008.706007273868
1711005315397,5008.706007273868
1711005315437,5008.706007273868
1711005315477,5008.706007273868
1711005315518,5008.706007273868
1711005315557,5218.724322591443
1711005315597,5554.784719906282
1711005315637,5937.673326400109
1711005315677,6273.517835336039
1711005315718,7498.093860994559
1711005315758,7541.537082100054
1711005315798,7672.918604488019
1711005315838,7672.918604488019
1711005315878,7672.918604488019
1711005315919,7672.918604488019
1711005315958,7498.093860994559
1711005315998,6878.495183370309
1711005316038,6273.517835336039
1711005316079,5554.784719906282
1711005316119,5218.724322591443
1711005316159,5218.724322591443
1711005316199,5218.724322591443
1711005316239,5218.724322591443
1711005316279,5218.724322591443
1711005316320,5218.724322591443
1711005316359,5218.724322591443
1711005316399,4332.583708680468
1711005316440,4332.583708680468
1711005316480,4332.583708680468
1711005316520,4332.583708680468
1711005316560,4332.583708680468
1711005316600,4332.583708680468
1711005316640,4332.583708680468
1711005316680,4332.583708680468
1711005316721,4332.583708680468
1711005316760,2879.6368965753354
1711005316801,2096.118339857552
1711005316840,1615.5736253305804
1711005316881,1421.0048919855617
1711005316922,1421.0048919855617
1711005316961,1421.0048919855617
1711005317001,1421.0048919855617
1711005317041,1421.0048919855617
1711005317081,1421.0048919855617
1711005317122,1421.0048919855617
1711005317162,1421.0048919855617
1711005317202,2056.4543605968356
1711005317242,2056.4543605968356
1711005317282,2056.4543605968356
1711005317323,2056.4543605968356
1711005317362,2056.4543605968356
1711005317402,2056.4543605968356
1711005317442,2056.4543605968356
1711005317482,2056.4543605968356
1711005317523,2056.4543605968356
1711005317563,2056.4543605968356
1711005317603,2056.4543605968356
1711005317643,2085.450861379504
1711005317683,2085.450861379504
1711005317724,2085.450861379504
1711005317763,2085.450861379504
1711005317803,2085.450861379504
1711005317843,2085.450861379504
1711005317884,2085.450861379504
1711005317924,2085.450861379504
1711005317964,2085.450861379504
1711005318004,3041.626674897503
1711005318044,3096.658137639519
1711005318084,4293.014698826941
1711005318125,4366.757989821024
1711005318164,4366.757989821024
1711005318205,4366.757989821024
1711005318245,4366.757989821024
1711005318285,4366.757989821024
1711005318326,4366.757989821024
1711005318365,3307.6810767110437
1711005318405,3041.626674897503
1711005318445,2085.450861379504
1711005318485,1780.6943211648613
1711005318526,1780.6943211648613
1711005318566,1780.6943211648613
1711005318606,1780.6943211648613
1711005318646,1780.6943211648613
1711005318686,1861.5281568458304
1711005318727,2081.0704227648675
1711005318766,3041.626674897503
1711005318806,3093.4442393947393
1711005318847,3307.6810767110437
1711005318887,3307.6810767110437
1711005318927,3307.6810767110437
1711005318967,3307.6810767110437
1711005319007,3307.6810767110437
1711005319047,3093.4442393947393
1711005319087,2489.3192450106144
1711005319128,2081.0704227648675
1711005319167,1861.5281568458304
1711005319208,1615.8499484637287
1711005319248,1435.9794544721954
1711005319288,1435.9794544721954
1711005319329,1435.9794544721954
1711005319368,1435.9794544721954
1711005319408,1435.9794544721954
1711005319449,1122.947781942552
1711005319489,-1165.0986024839804
1711005319529,-1165.0986024839804
1711005319569,-1165.0986024839804
1711005319609,-1165.0986024839804
1711005319649,-1165.0986024839804
1711005319689,-1165.0986024839804
1711005319730,-1165.0986024839804
1711005319770,-1165.0986024839804
1711005319810,-2493.0204743165523
1711005319850,-3005.8744905793574
1711005319890,-3654.649286190048
1711005319931,-3897.1514109962154
1711005319970,-5027.42997844005
1711005320011,-5027.42997844005
1711005320051,-5027.42997844005
1711005320091,-5027.42997844005
1711005320132,-5027.42997844005
1711005320171,-5027.42997844005
1711005320211,-5027.42997844005
1711005320251,-6602.358627312817
1711005320292,-6602.358627312817
1711005320332,-6602.358627312817
1711005320372,-6602.358627312817
1711005320412,-6602.358627312817
1711005320452,-6602.358627312817
1711005320492,-6602.358627312817
1711005320533,-6602.358627312817
1711005320573,-6602.358627312817
1711005320613,-7024.406184570398
1711005320653,-7570.907684430946
1711005320693,-8979.523118955549
1711005320734,-8979.523118955549
1711005320773,-8979.523118955549
1711005320813,-8979.523118955549
1711005320853,-8979.523118955549
1711005320894,-8979.523118955549
1711005320934,-8885.771275103092
1711005320974,-7570.907684430946
1711005321014,-7514.677740526851
1711005321054,-7024.406184570398
1711005321094,-6334.8596629863605
1711005321135,-6334.8596629863605
1711005321174,-6334.8596629863605
1711005321214,-6334.8596629863605
1711005321254,-6334.8596629863605
1711005321294,-6334.8596629863605
1711005321335,-7024.406184570398
1711005321375,-7391.911021871725
1711005321415,-7514.677740526851
1711005321455,-8885.771275103092
1711005321495,-8885.771275103092
1711005321536,-8885.771275103092
1711005321575,-8885.771275103092
1711005321615,-8885.771275103092
1711005321655,-8885.771275103092
1711005321695,-8459.40904503013
1711005321736,-7514.677740526851
1711005321776,-7391.911021871725
1711005321816,-6953.163954500342
1711005321856,-6953.163954500342
1711005321896,-6953.163954500342
1711005321937,-6953.163954500342
1711005321976,-6953.163954500342
1711005322016,-6953.163954500342
1711005322057,-7391.911021871725
1711005322097,-8021.835416434798
1711005322138,-8459.40904503013
1711005322177,-9469.080206835875
1711005322217,-9469.080206835875
1711005322257,-9469.080206835875
1711005322297,-9469.080206835875
1711005322338,-9469.080206835875
1711005322378,-9469.080206835875
1711005322418,-9469.080206835875
1711005322458,-9150.00274133985
1711005322498,-8459.40904503013
1711005322539,-8021.835416434798
1711005322578,-8021.835416434798
1711005322618,-8021.835416434798
1711005322658,-8021.835416434798
1711005322699,-8021.835416434798
1711005322739,-8021.835416434798
1711005322779,-8021.835416434798
1711005322819,-8021.835416434798
1711005322859,-8021.835416434798
1711005322899,-9150.00274133985
1711005322940,-9150.00274133985
1711005322979,-9150.00274133985
1711005323020,-9150.00274133985
1711005323060,-9150.00274133985
1711005323100,-9150.00274133985
1711005323141,-9150.00274133985
1711005323180,-9150.00274133985
1711005323220,-9149.019472331041
1711005323260,-7574.775393859716
1711005323301,-7418.673066081479
1711005323341,-7392.011942517245
1711005323381,-7392.011942517245
1711005323421,-7392.011942517245
1711005323461,-7392.011942517245
1711005323501,-7392.011942517245
1711005323542,-7392.011942517245
1711005323581,-7392.011942517245
1711005323621,-7392.011942517245
1711005323662,-7392.011942517245
1711005323702,-5763.7544325653
1711005323743,-4248.16507129604
1711005323782,-3944.0942653089296
1711005323822,-3944.0942653089296
1711005323862,-3944.0942653089296
1711005323903,-3944.0942653089296
1711005323943,-3944.0942653089296
1711005323983,-3944.0942653089296
1711005324023,-3944.0942653089296
1711005324063,-3944.0942653089296
1711005324103,-3254.3854472292587
1711005324144,-2261.4139002275188
1711005324183,-1627.6292497082613
1711005324224,-1077.2886495648418
1711005324264,-1077.2886495648418
1711005324304,-1077.2886495648418
1711005324345,-1077.2886495648418
1711005324384,-1077.2886495648418
1711005324424,-1077.2886495648418
1711005324464,-1077.2886495648418
1711005324505,-1077.2886495648418
1711005324545,-1077.2886495648418
1711005324585,962.5632572632749
1711005324625,2883.290727722924
1711005324665,2967.0651325425133
1711005324705,2967.0651325425133
1711005324746,2967.0651325425133
1711005324786,2967.0651325425133
1711005324826,2967.0651325425133
1711005324866,2967.0651325425133
1711005324906,2967.0651325425133
1711005324947,2967.0651325425133
1711005324987,3386.222803643439
1711005325027,4067.4417509909254
1711005325067,4224.632677627727
1711005325107,4896.832720043603
1711005325148,4896.832720043603
1711005325187,4896.832720043603
1711005325227,4896.832720043603
1711005325268,4896.832720043603
1711005325308,4896.832720043603
1711005325349,4896.832720043603
1711005325388,4896.832720043603
1711005325428,4387.186939951032
1711005325469,4224.632677627727
1711005325509,4224.632677627727
1711005325549,4224.632677627727
1711005325589,4224.632677627727
1711005325629,4224.632677627727
1711005325669,4224.632677627727
1711005325709,4224.632677627727
1711005325750,4387.186939951032
1711005325790,4996.12528171856
1711005325830,5975.038726466941
1711005325870,6130.9538193338085
1711005325910,6713.943643841427
1711005325951,6713.943643841427
1711005325991,6713.943643841427
1711005326031,6713.943643841427
1711005326071,6713.943643841427
1711005326111,6713.943643841427
1711005326152,6170.965204365086
1711005326192,6130.9538193338085
1711005326232,4996.12528171856
1711005326272,4996.12528171856
1711005326312,4996.12528171856
1711005326353,4996.12528171856
1711005326392,4996.12528171856
1711005326432,4996.12528171856
1711005326472,4996.12528171856
1711005326512,4996.12528171856
1711005326553,4996.12528171856
1711005326593,2987.6449663767125
1711005326633,2987.6449663767125
1711005326673,2987.6449663767125
1711005326713,2987.6449663767125
1711005326754,2987.6449663767125
1711005326793,2987.6449663767125
1711005326833,2987.6449663767125
1711005326874,2987.6449663767125
1711005326914,2987.6449663767125
1711005326954,2899.598039575387
1711005326994,2049.05137259583
1711005327034,1288.1266746937763
1711005327074,331.3272675606422
1711005327114,331.3272675606422
1711005327155,331.3272675606422
1711005327194,331.3272675606422
1711005327235,331.3272675606422
1711005327275,331.3272675606422
1711005327315,331.3272675606422
1711005327356,-139.3265971748624
1711005327395,-570.9385489451233
1711005327435,-570.9385489451233
1711005327475,-570.9385489451233
1711005327516,-570.9385489451233
1711005327556,-570.9385489451233
1711005327596,-570.9385489451233
1711005327636,-570.9385489451233
1711005327676,-570.9385489451233
1711005327716,-570.9385489451233
1711005327757,-570.9385489451233
1711005327796,-570.9385489451233
1711005327836,-570.9385489451233
1711005327877,-570.9385489451233
1711005327917,-570.9385489451233
1711005327957,-570.9385489451233
1711005327997,-570.9385489451233
1711005328037,-570.9385489451233
1711005328077,-570.9385489451233
1711005328117,-570.9385489451233
1711005328158,-570.9385489451233
1711005328197,-570.9385489451233
1711005328238,-168.47017820039764
1711005328278,-168.47017820039764
1711005328318,-168.47017820039764
1711005328359,-168.47017820039764
1711005328398,-168.47017820039764
1711005328438,-168.47017820039764
1711005328479,-168.47017820039764
1711005328519,-168.47017820039764
1711005328559,-168.47017820039764
1711005328599,-168.47017820039764
1711005328639,-168.47017820039764
1711005328679,-168.47017820039764
1711005328719,-168.47017820039764
1711005328760,-168.47017820039764
1711005328799,-168.47017820039764
1711005328840,-168.47017820039764
1711005328880,-168.47017820039764
1711005328920,-168.47017820039764
1711005328961,-168.47017820039764
1711005329000,-168.47017820039764
1711005329040,-168.47017820039764
1711005329081,-1177.6305691529997
1711005329121,-1177.6305691529997
1711005329161,-1177.6305691529997
1711005329201,-1177.6305691529997
1711005329241,-1177.6305691529997
1711005329281,-1177.6305691529997
1711005329321,-1177.6305691529997
1711005329362,-1177.6305691529997
1711005329401,-1177.6305691529997
1711005329442,-1177.6305691529997
1711005329482,-1177.6305691529997
1711005329522,-1069.4238811277319
1711005329563,-1069.4238811277319
1711005329602,-1069.4238811277319
1711005329642,-1069.4238811277319
1711005329683,-1069.4238811277319
1711005329723,-1069.4238811277319
1711005329764,-1069.4238811277319
1711005329803,-1069.4238811277319
1711005329843,-866.55931173102
1711005329883,-73.44726879964583
1711005329924,369.65039344271645
1711005329964,689.3433355269954
1711005330004,689.3433355269954
1711005330044,689.3433355269954
1711005330084,689.3433355269954
1711005330124,689.3433355269954
1711005330165,689.3433355269954
1711005330205,689.3433355269954
1711005330245,369.65039344271645
1711005330285,-638.4851859696209
1711005330325,-866.55931173102
1711005330366,-866.55931173102
1711005330405,-866.55931173102
1711005330445,-866.55931173102
1711005330486,-866.55931173102
1711005330526,-866.55931173102
1711005330567,-866.55931173102
1711005330606,-866.55931173102
1711005330646,-638.4851859696209
1711005330686,-429.9016709511634
1711005330727,-429.9016709511634
1711005330768,-429.9016709511634
1711005330807,-429.9016709511634
1711005330847,-429.9016709511634
1711005330887,-429.9016709511634
1711005330927,-429.9016709511634
1711005330968,-429.9016709511634
1711005331008,-429.9016709511634
1711005331048,-638.4851859696209
1711005331088,-1320.9565514507703
1711005331128,-1320.9565514507703
1711005331169,-1320.9565514507703
1711005331208,-1320.9565514507703
1711005331248,-1320.9565514507703
1711005331288,-1320.9565514507703
1711005331329,-1320.9565514507703
1711005331370,-1320.9565514507703
1711005331409,-1320.9565514507703
1711005331449,-1244.3736726271454
1711005331489,-1244.3736726271454
1711005331529,-1244.3736726271454
1711005331570,-1244.3736726271454
1711005331610,-1244.3736726271454
1711005331650,-1244.3736726271454
1711005331690,-1244.3736726271454
1711005331730,-1244.3736726271454
1711005331771,-1244.3736726271454
1711005331810,-1244.3736726271454
1711005331850,-2200.4817367636133
1711005331890,-2200.4817367636133
1711005331931,-2200.4817367636133
1711005331971,-2200.4817367636133
1711005332011,-2200.4817367636133
1711005332051,-2200.4817367636133
1711005332091,-2200.4817367636133
1711005332131,-2200.4817367636133
1711005332172,-2200.4817367636133
1711005332211,-2200.4817367636133
1711005332251,-4443.284520918271
1711005332292,-4443.284520918271
1711005332332,-4443.284520918271
1711005332372,-4443.284520918271
1711005332412,-4443.284520918271
1711005332452,-4443.284520918271
1711005332492,-4443.284520918271
1711005332532,-4443.284520918271
1711005332573,-4443.284520918271
1711005332612,-4443.284520918271
1711005332653,-4443.284520918271
1711005332693,-3193.9998320653103
1711005332733,-2188.6787750779185
1711005332774,-2188.6787750779185
1711005332813,-2188.6787750779185
1711005332853,-2188.6787750779185
1711005332893,-2188.6787750779185
1711005332933,-2188.6787750779185
1711005332974,-2188.6787750779185
1711005333014,-2188.6787750779185
1711005333054,-2188.6787750779185
1711005333094,-2188.6787750779185
1711005333134,-2188.6787750779185
1711005333175,-2667.8241021502763
1711005333214,-2667.8241021502763
1711005333254,-2667.8241021502763
1711005333295,-2667.8241021502763
1711005333335,-2667.8241021502763
1711005333375,-2667.8241021502763
1711005333415,-2667.8241021502763
1711005333455,-2667.8241021502763
1711005333495,-2667.8241021502763
1711005333535,-2667.8241021502763
1711005333576,-2667.8241021502763
1711005333615,-831.5144498571754
1711005333656,237.34458840312436
1711005333696,237.34458840312436
1711005333736,237.34458840312436
1711005333777,237.34458840312436
1711005333816,237.34458840312436
1711005333856,237.34458840312436
1711005333896,237.34458840312436
1711005333936,237.34458840312436
1711005333977,237.34458840312436
1711005334017,237.34458840312436
1711005334057,237.34458840312436
1711005334097,1082.5813989639282
1711005334137,1082.5813989639282
1711005334178,1082.5813989639282
1711005334217,1082.5813989639282
1711005334257,1082.5813989639282
1711005334297,1082.5813989639282
1711005334338,1082.5813989639282
1711005334379,1082.5813989639282
1711005334418,1082.5813989639282
1711005334458,1082.5813989639282
1711005334498,1287.7301257164218
1711005334538,2421.512025748845
1711005334579,2421.512025748845
1711005334619,2421.512025748845
1711005334659,2421.512025748845
1711005334699,2421.512025748845
1711005334739,2421.512025748845
1711005334780,2421.512025748845
1711005334819,2421.512025748845
1711005334859,2421.512025748845
1711005334899,2421.512025748845
1711005334940,2421.512025748845
1711005334980,2867.407602599589
1711005335020,2867.407602599589
1711005335060,2867.407602599589
1711005335100,2867.407602599589
1711005335140,2867.407602599589
1711005335181,2867.407602599589
1711005335221,2867.407602599589
1711005335261,2867.407602599589
1711005335301,2867.407602599589
1711005335341,2764.009894997813
1711005335382,1766.9524282878265
1711005335421,1766.9524282878265
1711005335461,1766.9524282878265
1711005335501,1766.9524282878265
1711005335542,1766.9524282878265
1711005335582,1766.9524282878265
1711005335622,1766.9524282878265
1711005335662,1766.9524282878265
1711005335702,1766.9524282878265
1711005335742,1808.1218806244433
1711005335783,2764.009894997813
1711005335823,2764.009894997813
1711005335863,2764.009894997813
1711005335903,2764.009894997813
1711005335943,2764.009894997813
1711005335984,2764.009894997813
1711005336023,2764.009894997813
1711005336064,1808.1218806244433
1711005336104,1786.089730232954
1711005336144,1161.9044979396276
1711005336185,458.27884725038894
1711005336224,414.0558089350816
1711005336264,414.0558089350816
1711005336304,414.0558089350816
1711005336344,414.0558089350816
1711005336385,414.0558089350816
1711005336425,414.0558089350816
1711005336465,414.0558089350816
1711005336505,-1922.6889218350407
1711005336545,-2449.9631061675027
1711005336586,-2449.9631061675027
1711005336625,-2449.9631061675027
1711005336666,-2449.9631061675027
1711005336706,-2449.9631061675027
1711005336746,-2449.9631061675027
1711005336787,-2449.9631061675027
1711005336826,-2449.9631061675027
1711005336866,-3458.2741433957126
1711005336907,-3928.327576436568
1711005336947,-4362.1984994167
1711005336987,-4395.5112742250785
1711005337027,-4395.5112742250785
1711005337067,-4395.5112742250785
1711005337107,-4395.5112742250785
1711005337147,-4395.5112742250785
1711005337188,-4395.5112742250785
1711005337228,-4395.5112742250785
1711005337268,-4395.5112742250785
1711005337308,-7606.726507707965
1711005337348,-7606.726507707965
1711005337389,-7606.726507707965
1711005337428,-7606.726507707965
1711005337468,-7606.726507707965
1711005337509,-7606.726507707965
1711005337549,-7606.726507707965
1711005337589,-7606.726507707965
1711005337629,-7606.726507707965
1711005337669,-7606.726507707965
1711005337709,-7606.726507707965
1711005337749,-8637.885222930694
1711005337790,-8637.885222930694
1711005337829,-8637.885222930694
1711005337869,-8637.885222930694
1711005337909,-8637.885222930694
1711005337949,-8637.885222930694
