Timestamp,Cleaned PPG
1712209380388,0.0
1712209380427,0.0
1712209380466,0.0
1712209380506,0.0
1712209380546,0.0
1712209380586,0.0
1712209380627,0.0
1712209380666,0.0
1712209380706,0.0
1712209380747,0.0
1712209380787,0.0
1712209380828,0.0
1712209380867,0.0
1712209380907,0.0
1712209380947,0.0
1712209380988,0.0
1712209381029,0.0
1712209381068,0.0
1712209381108,0.0
1712209381148,0.0
1712209381188,0.0
1712209381229,0.0
1712209381268,0.0
1712209381309,0.0
1712209381349,0.0
1712209381389,0.0
1712209381430,0.0
1712209381469,0.0
1712209381509,0.0
1712209381549,0.0
1712209381590,0.0
1712209381631,0.0
1712209381670,1110671.117081653
1712209381710,1110671.117081653
1712209381750,1110671.117081653
1712209381790,1110671.117081653
1712209381832,1110671.117081653
1712209381871,1110671.117081653
1712209381911,1110671.117081653
1712209381951,1110671.117081653
1712209381991,1110671.117081653
1712209382032,1110671.117081653
1712209382072,1110671.117081653
1712209382111,1040782.2684847529
1712209382152,977341.0017850238
1712209382192,913791.0444154732
1712209382233,855282.5996412206
1712209382272,799364.7068978751
1712209382312,749332.0975840194
1712209382352,700977.7330393279
1712209382392,656525.8902341647
1712209382433,615838.8732819655
1712209382472,572662.8753422583
1712209382512,538350.1378600309
1712209382553,502016.2965304423
1712209382595,468747.2090465368
1712209382634,438629.32662228076
1712209382673,407107.51940861484
1712209382713,392029.68420392903
1712209382753,356259.01939050853
1712209382793,336398.600692922
1712209382834,316004.3632833408
1712209382873,299502.5404609563
1712209382914,270905.5480701444
1712209382954,248588.2817531426
1712209382994,239219.8374719231
1712209383035,213168.23921970674
1712209383074,191057.63004824077
1712209383114,174259.29768787324
1712209383154,153886.6392716118
1712209383194,130570.88482004823
1712209383235,114321.24741485436
1712209383275,102151.95963313943
1712209383315,98208.88528930908
1712209383355,89719.03025812074
1712209383395,83631.8368053534
1712209383436,73851.17007656582
1712209383475,69958.3236192069
1712209383515,66143.27720273868
1712209383555,62620.83209195384
1712209383595,57374.01835431205
1712209383637,53772.02295350307
1712209383676,49120.18118868163
1712209383716,41588.50797017291
1712209383756,39849.781588952756
1712209383796,33543.56662031915
1712209383837,32038.570944706677
1712209383876,31308.745971364435
1712209383916,23776.417243150063
1712209383956,16298.92579471413
1712209383997,10223.149701971095
1712209384037,9463.920741842827
1712209384077,9463.920741842827
1712209384117,9463.920741842827
1712209384157,9463.920741842827
1712209384197,9463.920741842827
1712209384238,9463.920741842827
1712209384277,9463.920741842827
1712209384317,8260.696532504633
1712209384358,7742.229304352077
1712209384398,7150.267746198922
1712209384439,5036.101350512356
1712209384478,4004.7637771700975
1712209384518,3503.857380109839
1712209384558,3503.857380109839
1712209384598,3503.857380109839
1712209384639,3503.857380109839
1712209384678,3503.857380109839
1712209384719,3503.857380109839
1712209384759,-2074.6342770492192
1712209384801,-2074.6342770492192
1712209384840,-2074.6342770492192
1712209384879,-2074.6342770492192
1712209384919,-2074.6342770492192
1712209384959,-2074.6342770492192
1712209384999,-2074.6342770492192
1712209385040,-2074.6342770492192
1712209385080,-2074.6342770492192
1712209385120,-2074.6342770492192
1712209385160,-3499.822844013106
1712209385200,-3499.822844013106
1712209385241,-3499.822844013106
1712209385280,-3499.822844013106
1712209385320,-3499.822844013106
1712209385360,-3499.822844013106
1712209385401,-3499.822844013106
1712209385442,-3499.822844013106
1712209385481,-3499.822844013106
1712209385521,-3499.822844013106
1712209385561,-5233.336021669209
1712209385601,-5233.336021669209
1712209385642,-5233.336021669209
1712209385682,-5233.336021669209
1712209385722,-5233.336021669209
1712209385762,-5233.336021669209
1712209385802,-5233.336021669209
1712209385843,-6574.851409448544
1712209385882,-6976.007678663591
1712209385922,-7041.092469535302
1712209385962,-8189.881092605414
1712209386002,-8215.131678738166
1712209386044,-8215.131678738166
1712209386083,-8215.131678738166
1712209386123,-8215.131678738166
1712209386163,-8215.131678738166
1712209386203,-8416.08349529421
1712209386244,-8662.071472534444
1712209386283,-8416.08349529421
1712209386323,-8045.187362305354
1712209386364,-8045.187362305354
1712209386404,-8045.187362305354
1712209386445,-8045.187362305354
1712209386484,-8045.187362305354
1712209386524,-8045.187362305354
1712209386564,-8045.187362305354
1712209386605,-8045.187362305354
1712209386646,-10331.648666910361
1712209386685,-12570.481801164337
1712209386725,-12570.481801164337
1712209386765,-12570.481801164337
1712209386805,-12570.481801164337
1712209386846,-12570.481801164337
1712209386886,-12570.481801164337
1712209386926,-12570.481801164337
1712209386966,-12570.481801164337
1712209387006,-12570.481801164337
1712209387047,-14901.10350441793
1712209387086,-14901.10350441793
1712209387127,-14901.10350441793
1712209387167,-14901.10350441793
1712209387207,-14901.10350441793
1712209387248,-14901.10350441793
1712209387287,-14901.10350441793
1712209387327,-14901.10350441793
1712209387367,-14901.10350441793
1712209387407,-14901.10350441793
1712209387449,-15055.96979167359
1712209387488,-16839.88024673029
1712209387528,-16839.88024673029
1712209387568,-16839.88024673029
1712209387608,-16839.88024673029
1712209387649,-16839.88024673029
1712209387688,-16839.88024673029
1712209387729,-16839.88024673029
1712209387769,-16839.88024673029
1712209387809,-15833.605243634433
1712209387850,-15055.96979167359
1712209387889,-13889.987123120809
1712209387929,-13889.987123120809
1712209387970,-13889.987123120809
1712209388010,-13889.987123120809
1712209388051,-13889.987123120809
1712209388090,-13889.987123120809
1712209388130,-13889.987123120809
1712209388170,-13889.987123120809
1712209388210,-15833.605243634433
1712209388251,-17724.36984162405
1712209388290,-17724.36984162405
1712209388330,-17724.36984162405
1712209388370,-17724.36984162405
1712209388410,-17724.36984162405
1712209388452,-17724.36984162405
1712209388491,-17724.36984162405
1712209388531,-17429.886206829222
1712209388571,-16188.274285465013
1712209388611,-15833.605243634433
1712209388652,-14100.325698722154
1712209388691,-14100.325698722154
1712209388731,-14100.325698722154
1712209388771,-14100.325698722154
1712209388811,-14100.325698722154
1712209388852,-14100.325698722154
1712209388892,-14100.325698722154
1712209388932,-16188.274285465013
1712209388972,-17429.886206829222
1712209389012,-17944.89064157894
1712209389053,-17944.89064157894
1712209389092,-17944.89064157894
1712209389132,-17944.89064157894
1712209389172,-17944.89064157894
1712209389212,-17944.89064157894
1712209389253,-17944.89064157894
1712209389293,-18039.181548618944
1712209389333,-17429.886206829222
1712209389373,-16350.88091035001
1712209389413,-16350.88091035001
1712209389454,-16350.88091035001
1712209389493,-16350.88091035001
1712209389533,-16350.88091035001
1712209389573,-16350.88091035001
1712209389613,-16350.88091035001
1712209389654,-16350.88091035001
1712209389693,-16350.88091035001
1712209389733,-19353.44053927576
1712209389774,-19353.44053927576
1712209389814,-19353.44053927576
1712209389855,-19353.44053927576
1712209389894,-19353.44053927576
1712209389934,-19353.44053927576
1712209389974,-19353.44053927576
1712209390014,-19353.44053927576
1712209390055,-19353.44053927576
1712209390094,-18927.030062784674
1712209390135,-16350.88091035001
1712209390175,-15753.787968961988
1712209390215,-15753.787968961988
1712209390256,-15753.787968961988
1712209390295,-15753.787968961988
1712209390335,-15753.787968961988
1712209390375,-15753.787968961988
1712209390415,-15753.787968961988
1712209390456,-15753.787968961988
1712209390496,-15753.787968961988
1712209390536,-15753.787968961988
1712209390576,-12466.45544510521
1712209390616,-12466.45544510521
1712209390657,-12466.45544510521
1712209390696,-12466.45544510521
1712209390736,-12466.45544510521
1712209390776,-12466.45544510521
1712209390816,-12466.45544510521
1712209390858,-12466.45544510521
1712209390897,-12466.45544510521
1712209390937,-12466.45544510521
1712209390977,-12466.45544510521
1712209391017,-11634.41210203548
1712209391058,-11634.41210203548
1712209391097,-11634.41210203548
1712209391137,-11634.41210203548
1712209391177,-11634.41210203548
1712209391218,-11634.41210203548
1712209391259,-11634.41210203548
1712209391298,-11634.41210203548
1712209391338,-11634.41210203548
1712209391378,-11634.41210203548
1712209391418,-11634.41210203548
1712209391459,-8241.73688370618
1712209391498,-8241.73688370618
1712209391538,-8241.73688370618
1712209391578,-8241.73688370618
1712209391618,-8241.73688370618
1712209391660,-8241.73688370618
1712209391699,-8241.73688370618
1712209391739,-8241.73688370618
1712209391779,-7717.7289289268665
1712209391819,-7128.5926669642795
1712209391860,-5630.833470523823
1712209391899,-5205.895053996937
1712209391939,-3048.344985646894
1712209391979,-2704.662698442815
1712209392019,-2704.662698442815
1712209392061,-2704.662698442815
1712209392100,-2704.662698442815
1712209392140,-2704.662698442815
1712209392180,-2704.662698442815
1712209392220,-2704.662698442815
1712209392261,-2704.662698442815
1712209392300,-2704.662698442815
1712209392340,-2704.662698442815
1712209392381,-2704.662698442815
1712209392418,-2704.662698442815
1712209392459,-2704.662698442815
1712209392498,-2704.662698442815
1712209392538,-2704.662698442815
1712209392578,-2704.662698442815
1712209392618,-2509.2677186094224
1712209392659,-218.1404619233217
1712209392698,735.9227343089879
1712209392739,1937.2298053409904
1712209392779,1937.2298053409904
1712209392819,1937.2298053409904
1712209392860,1937.2298053409904
1712209392899,1937.2298053409904
1712209392939,1937.2298053409904
1712209392979,1937.2298053409904
1712209393019,735.9227343089879
1712209393060,-2509.2677186094224
1712209393100,-3519.6785152782686
1712209393140,-3519.6785152782686
1712209393180,-3519.6785152782686
1712209393220,-3519.6785152782686
1712209393261,-3308.9754009097815
1712209393300,-3308.9754009097815
1712209393340,-3308.9754009097815
1712209393381,-3308.9754009097815
1712209393421,-2509.2677186094224
1712209393462,-1955.9175698859617
1712209393501,-1955.9175698859617
1712209393541,-1955.9175698859617
1712209393581,-1955.9175698859617
1712209393622,-1955.9175698859617
1712209393663,-1955.9175698859617
1712209393702,-1955.9175698859617
1712209393742,-1955.9175698859617
1712209393782,-1955.9175698859617
1712209393822,-3308.9754009097815
1712209393863,-3308.9754009097815
1712209393902,-3308.9754009097815
1712209393943,-3308.9754009097815
1712209393983,-3308.9754009097815
1712209394023,-3308.9754009097815
1712209394064,-3308.9754009097815
1712209394103,-3671.1031344798394
1712209394143,-3756.8495608908124
1712209394183,-3756.8495608908124
1712209394224,-3939.945106148487
1712209394265,-9398.678178629838
1712209394304,-9398.678178629838
1712209394344,-9398.678178629838
1712209394384,-9398.678178629838
1712209394424,-9398.678178629838
1712209394466,-9398.678178629838
1712209394505,-9398.678178629838
1712209394545,-9398.678178629838
1712209394585,-9398.678178629838
1712209394625,-9398.678178629838
1712209394666,-9398.678178629838
1712209394705,-7672.424300234765
1712209394745,-7672.424300234765
1712209394786,-7672.424300234765
1712209394826,-7672.424300234765
1712209394867,-7672.424300234765
1712209394906,-7672.424300234765
1712209394946,-7672.424300234765
1712209394986,-7672.424300234765
1712209395026,-7672.424300234765
1712209395067,-7672.424300234765
1712209395106,-7672.424300234765
1712209395146,-7672.424300234765
1712209395187,-7672.424300234765
1712209395227,-7672.424300234765
1712209395268,-7672.424300234765
1712209395307,-7672.424300234765
1712209395347,-7672.424300234765
1712209395387,-7672.424300234765
1712209395427,-7672.424300234765
1712209395468,-7672.424300234765
1712209395507,-7672.424300234765
1712209395548,-7528.368389085634
1712209395588,-4329.360026916955
1712209395628,-4329.360026916955
1712209395669,-4329.360026916955
1712209395708,-4329.360026916955
1712209395748,-4329.360026916955
1712209395788,-4329.360026916955
1712209395828,-4329.360026916955
1712209395869,-4329.360026916955
1712209395908,-4329.360026916955
1712209395948,-4329.360026916955
1712209395989,-4329.360026916955
1712209396029,-3795.362883862108
1712209396070,-3795.362883862108
1712209396109,-3795.362883862108
1712209396149,-3795.362883862108
1712209396189,-3795.362883862108
1712209396229,-3795.362883862108
1712209396270,-3795.362883862108
1712209396309,-3795.362883862108
1712209396349,-3795.362883862108
1712209396390,-3795.362883862108
1712209396430,-3795.362883862108
1712209396471,-1075.1761551175732
1712209396510,-1075.1761551175732
1712209396550,-1075.1761551175732
1712209396590,-1075.1761551175732
1712209396630,-1075.1761551175732
1712209396671,-1075.1761551175732
1712209396710,-1075.1761551175732
1712209396751,-1075.1761551175732
1712209396791,-1075.1761551175732
1712209396831,-1075.1761551175732
1712209396872,-1075.1761551175732
1712209396911,-894.2613400095142
1712209396951,-894.2613400095142
1712209396991,-894.2613400095142
1712209397031,-894.2613400095142
1712209397072,-894.2613400095142
1712209397112,-894.2613400095142
1712209397152,-894.2613400095142
1712209397192,-894.2613400095142
1712209397232,-894.2613400095142
1712209397273,-1176.789305898361
1712209397312,-3719.3090526468586
1712209397352,-3719.3090526468586
1712209397392,-3719.3090526468586
1712209397432,-3719.3090526468586
1712209397473,-3719.3090526468586
1712209397513,-3719.3090526468586
1712209397553,-3719.3090526468586
1712209397593,-3719.3090526468586
1712209397633,-2828.081573458854
1712209397674,-1176.789305898361
1712209397713,-224.3698885096237
1712209397753,-224.3698885096237
1712209397793,-224.3698885096237
1712209397834,-224.3698885096237
1712209397874,-224.3698885096237
1712209397914,-224.3698885096237
1712209397954,-224.3698885096237
1712209397994,-224.3698885096237
1712209398034,-224.3698885096237
1712209398075,-2828.081573458854
1712209398114,-2828.081573458854
1712209398155,-2828.081573458854
1712209398195,-2828.081573458854
1712209398235,-2828.081573458854
1712209398276,-2828.081573458854
1712209398315,-2828.081573458854
1712209398355,-2828.081573458854
1712209398395,-2828.081573458854
1712209398436,-2828.081573458854
1712209398476,-3848.0716146808118
1712209398516,-3848.0716146808118
1712209398556,-3848.0716146808118
1712209398596,-3848.0716146808118
1712209398636,-3848.0716146808118
1712209398677,-3848.0716146808118
1712209398717,-3848.0716146808118
1712209398757,-3848.0716146808118
1712209398797,-3848.0716146808118
1712209398837,-3848.0716146808118
1712209398878,-6470.934439225588
1712209398917,-6470.934439225588
1712209398957,-6470.934439225588
1712209398997,-6470.934439225588
1712209399038,-6470.934439225588
1712209399078,-6470.934439225588
1712209399118,-6470.934439225588
1712209399158,-6470.934439225588
1712209399198,-6470.934439225588
1712209399238,-6470.934439225588
1712209399279,-6628.640139807016
1712209399319,-6628.640139807016
1712209399359,-6628.640139807016
1712209399399,-6628.640139807016
1712209399439,-6628.640139807016
1712209399480,-6628.640139807016
1712209399519,-6628.640139807016
1712209399559,-6628.640139807016
1712209399600,-6628.640139807016
1712209399640,-6628.640139807016
1712209399681,-6628.640139807016
1712209399720,-6628.640139807016
1712209399760,-6628.640139807016
1712209399800,-6628.640139807016
1712209399841,-6628.640139807016
1712209399882,-6628.640139807016
1712209399921,-6628.640139807016
1712209399961,-6628.640139807016
1712209400001,-6628.640139807016
1712209400041,-6628.640139807016
1712209400082,-6255.633948139148
1712209400122,-3791.4406024613418
1712209400162,-3481.8719276254997
1712209400202,-3481.8719276254997
1712209400242,-3481.8719276254997
1712209400283,-3481.8719276254997
1712209400322,-3481.8719276254997
1712209400363,-3481.8719276254997
1712209400403,-3481.8719276254997
1712209400443,-3481.8719276254997
1712209400484,-3481.8719276254997
1712209400523,-3481.8719276254997
1712209400563,-3481.8719276254997
1712209400603,-3481.8719276254997
1712209400644,-3481.8719276254997
1712209400684,-3481.8719276254997
1712209400724,-3481.8719276254997
1712209400764,-3481.8719276254997
1712209400804,-3481.8719276254997
1712209400844,-3481.8719276254997
1712209400885,-3481.8719276254997
1712209400924,-3481.8719276254997
1712209400964,-3105.029010108672
1712209401004,-3105.029010108672
1712209401044,-3105.029010108672
1712209401085,-3105.029010108672
1712209401125,-3105.029010108672
1712209401165,-3105.029010108672
1712209401205,-3105.029010108672
1712209401245,-3105.029010108672
1712209401286,-3105.029010108672
1712209401325,-3105.029010108672
1712209401365,-3725.660998399835
1712209401405,-5492.5409320215695
1712209401446,-5492.5409320215695
1712209401486,-5492.5409320215695
1712209401526,-5492.5409320215695
1712209401566,-5492.5409320215695
1712209401606,-5196.170862331986
1712209401646,-4633.313286327291
1712209401687,-3771.7971059903502
1712209401726,-3105.029010108672
1712209401766,-1699.2759920591488
1712209401806,-334.3029873925261
1712209401846,431.66810402460396
1712209401887,431.66810402460396
1712209401927,431.66810402460396
1712209401967,431.66810402460396
1712209402007,431.66810402460396
1712209402047,431.66810402460396
1712209402088,431.66810402460396
1712209402127,431.66810402460396
1712209402167,431.66810402460396
1712209402207,431.66810402460396
1712209402247,431.66810402460396
1712209402288,431.66810402460396
1712209402328,431.66810402460396
1712209402368,431.66810402460396
1712209402408,431.66810402460396
1712209402448,431.66810402460396
1712209402489,431.66810402460396
1712209402528,431.66810402460396
1712209402568,431.66810402460396
1712209402609,-1064.335137209855
1712209402649,-1064.335137209855
1712209402690,-1064.335137209855
1712209402729,-1064.335137209855
1712209402769,-1064.335137209855
1712209402809,-1064.335137209855
1712209402849,-1064.335137209855
1712209402890,-1064.335137209855
1712209402929,-1064.335137209855
1712209402969,-1064.335137209855
1712209403010,-1064.335137209855
1712209403050,-983.1191976207774
1712209403091,-983.1191976207774
1712209403130,-983.1191976207774
1712209403170,-983.1191976207774
1712209403210,-983.1191976207774
1712209403250,-983.1191976207774
1712209403291,-983.1191976207774
1712209403331,-983.1191976207774
1712209403371,-983.1191976207774
1712209403411,-983.1191976207774
1712209403451,-334.7573043247685
1712209403492,-334.7573043247685
1712209403531,-334.7573043247685
1712209403571,-334.7573043247685
1712209403612,-334.7573043247685
1712209403651,-334.7573043247685
1712209403692,-334.7573043247685
1712209403732,-334.7573043247685
1712209403772,-334.7573043247685
1712209403812,-334.7573043247685
1712209403852,-334.7573043247685
1712209403893,2108.650115214754
1712209403932,2108.650115214754
1712209403972,2108.650115214754
1712209404012,2108.650115214754
1712209404052,2108.650115214754
1712209404093,2108.650115214754
1712209404133,2108.650115214754
1712209404173,2108.650115214754
1712209404213,2108.650115214754
1712209404253,2108.650115214754
1712209404294,2108.650115214754
1712209404333,2734.2825100352056
1712209404373,2734.2825100352056
1712209404414,2734.2825100352056
1712209404452,2734.2825100352056
1712209404493,2734.2825100352056
1712209404532,2734.2825100352056
1712209404572,2734.2825100352056
1712209404612,2734.2825100352056
1712209404652,2065.7000945266336
1712209404693,-141.3074297516141
1712209404733,-878.3295603527222
1712209404773,-878.3295603527222
1712209404813,-878.3295603527222
1712209404853,-878.3295603527222
1712209404894,-878.3295603527222
1712209404933,-878.3295603527222
1712209404973,-878.3295603527222
1712209405013,-878.3295603527222
1712209405053,-141.3074297516141
1712209405094,1496.0080544366501
1712209405134,1496.0080544366501
1712209405174,1496.0080544366501
1712209405214,1496.0080544366501
1712209405254,1496.0080544366501
1712209405295,1496.0080544366501
1712209405334,1496.0080544366501
1712209405374,1496.0080544366501
1712209405415,-1049.434598770924
1712209405455,-1607.42368438025
1712209405496,-2961.282355772797
1712209405535,-2961.282355772797
1712209405575,-2961.282355772797
1712209405615,-2961.282355772797
1712209405655,-2961.282355772797
1712209405696,-2961.282355772797
1712209405736,-2961.282355772797
1712209405776,-2961.282355772797
1712209405816,-2272.0531527772546
1712209405856,-2272.0531527772546
1712209405897,-2272.0531527772546
1712209405936,-2272.0531527772546
1712209405976,-2272.0531527772546
1712209406017,-2272.0531527772546
1712209406057,-2272.0531527772546
1712209406097,-2272.0531527772546
1712209406137,-2272.0531527772546
1712209406177,-3913.527399898274
1712209406217,-4856.080890544457
1712209406257,-5864.524293228984
1712209406298,-5864.524293228984
1712209406337,-5864.524293228984
1712209406378,-5864.524293228984
1712209406418,-5864.524293228984
1712209406458,-5864.524293228984
1712209406499,-6415.918012663722
1712209406538,-6482.824654307682
1712209406578,-5884.672725051176
1712209406619,-5884.672725051176
1712209406659,-5884.672725051176
1712209406699,-5884.672725051176
1712209406739,-5884.672725051176
1712209406779,-5884.672725051176
1712209406819,-5884.672725051176
1712209406859,-8639.504810263403
1712209406900,-9204.448248772416
1712209406940,-10350.040230792947
1712209406980,-10751.790388432797
1712209407020,-10870.198077114997
1712209407060,-10870.198077114997
1712209407101,-10870.198077114997
1712209407140,-10870.198077114997
1712209407180,-10870.198077114997
1712209407220,-10870.198077114997
1712209407260,-10751.790388432797
1712209407301,-10751.790388432797
1712209407341,-8941.236849419773
1712209407380,-8941.236849419773
1712209407421,-8941.236849419773
1712209407461,-8941.236849419773
1712209407501,-8941.236849419773
1712209407541,-8941.236849419773
1712209407581,-10171.530456334818
1712209407621,-13217.814977750648
1712209407661,-14734.693756551482
1712209407702,-14734.693756551482
1712209407741,-14734.693756551482
1712209407781,-14734.693756551482
1712209407822,-14734.693756551482
1712209407862,-14734.693756551482
1712209407902,-14734.693756551482
1712209407942,-14734.693756551482
1712209407982,-13217.814977750648
1712209408022,-12705.90171145671
1712209408062,-10565.212151353713
1712209408103,-10565.212151353713
1712209408142,-10565.212151353713
1712209408182,-10565.212151353713
1712209408222,-10565.212151353713
1712209408263,-10565.212151353713
1712209408303,-10565.212151353713
1712209408343,-10565.212151353713
1712209408383,-10565.212151353713
1712209408423,-12705.90171145671
1712209408463,-12705.90171145671
1712209408504,-12705.90171145671
1712209408543,-10693.46564727719
1712209408583,-10565.212151353713
1712209408623,-9383.000707517844
1712209408664,-7522.231617075857
1712209408704,-7313.2311842776835
1712209408744,-7305.248357070144
1712209408784,-6705.80616662791
1712209408824,-6335.860149478074
1712209408864,-6142.669985730434
1712209408905,-3674.3341043321416
1712209408944,-1833.0922012273222
1712209408984,-1833.0922012273222
1712209409024,-1833.0922012273222
1712209409064,-3689.8709308330435
1712209409105,-6142.669985730434
1712209409145,-6335.860149478074
1712209409185,-7305.248357070144
1712209409225,-7305.248357070144
1712209409265,-6335.860149478074
1712209409306,-6142.669985730434
1712209409345,-4378.28101329552
1712209409385,-3689.8709308330435
1712209409425,-2417.264005965553
1712209409465,-1833.0922012273222
1712209409506,-1425.9015798638575
1712209409546,-1181.6434638428036
1712209409586,382.372031789273
1712209409626,1452.5706004679669
1712209409666,2835.872968041571
1712209409707,2835.872968041571
1712209409746,382.372031789273
1712209409786,-804.943148647435
1712209409826,-1181.6434638428036
1712209409867,-1425.9015798638575
1712209409907,-1425.9015798638575
1712209409947,-1425.9015798638575
1712209409987,-1425.9015798638575
1712209410027,-1425.9015798638575
1712209410067,-1425.9015798638575
1712209410108,-1425.9015798638575
1712209410147,-1425.9015798638575
1712209410187,-1181.6434638428036
1712209410228,-804.943148647435
1712209410267,-804.943148647435
1712209410308,-804.943148647435
1712209410348,-804.943148647435
1712209410388,-804.943148647435
1712209410428,-804.943148647435
1712209410468,-2520.648843055358
1712209410509,-5429.135701669147
1712209410548,-5821.622409362812
1712209410588,-6570.786837444641
1712209410628,-6570.786837444641
1712209410669,-6570.786837444641
1712209410709,-6570.786837444641
1712209410749,-6570.786837444641
1712209410789,-6570.786837444641
1712209410829,-5821.622409362812
1712209410869,-5445.342889028136
1712209410910,-5429.135701669147
1712209410949,-2692.011673707515
1712209410989,-2692.011673707515
1712209411030,-2692.011673707515
1712209411070,-2692.011673707515
1712209411110,-2692.011673707515
1712209411150,-2692.011673707515
1712209411190,-4722.1092640380375
1712209411230,-5445.342889028136
1712209411270,-7766.333431231789
1712209411311,-7250.42743497435
1712209411350,-5445.342889028136
1712209411390,-5064.589563567657
1712209411431,-4722.1092640380375
1712209411471,-2946.5371635602787
1712209411512,-2692.011673707515
1712209411551,-2119.872354730498
1712209411591,-1909.9176434732508
1712209411631,-962.246717418544
1712209411672,707.0753978602588
1712209411712,1661.2326397600118
1712209411752,3665.437662771903
1712209411792,4391.967784982175
1712209411832,4391.967784982175
1712209411872,1661.2326397600118
1712209411913,-580.2349020373076
1712209411952,-962.246717418544
1712209411992,-1909.9176434732508
1712209412033,-962.246717418544
1712209412073,-821.6295100226998
1712209412114,-580.2349020373076
1712209412153,1220.160955242347
1712209412193,1661.2326397600118
1712209412233,1716.3534589731134
1712209412274,2079.8492176644504
1712209412314,2818.378552248236
1712209412354,4256.7541000710335
1712209412394,4391.967784982175
1712209412434,6824.435044483282
1712209412474,6824.435044483282
1712209412515,6824.435044483282
1712209412554,4256.7541000710335
1712209412594,2818.378552248236
1712209412635,2079.8492176644504
1712209412675,1716.3534589731134
1712209412715,1716.3534589731134
1712209412755,1716.3534589731134
1712209412795,1716.3534589731134
1712209412835,1716.3534589731134
1712209412875,1716.3534589731134
1712209412916,1716.3534589731134
1712209412955,1863.3841235227883
1712209412996,1863.3841235227883
1712209413036,1863.3841235227883
1712209413076,1863.3841235227883
1712209413117,1863.3841235227883
1712209413156,1863.3841235227883
1712209413196,1863.3841235227883
1712209413236,1863.3841235227883
1712209413276,-1192.0046890340745
1712209413317,-1841.4366430498194
1712209413357,-2542.5165310218
1712209413397,-2552.1451413775794
1712209413437,-2552.1451413775794
1712209413477,-2552.1451413775794
1712209413518,-2552.1451413775794
1712209413557,-2552.1451413775794
1712209413598,-2552.1451413775794
1712209413638,-3070.7664420932997
1712209413678,-2552.1451413775794
1712209413719,-1192.0046890340745
1712209413758,-931.417809008155
1712209413798,-931.417809008155
1712209413838,-931.417809008155
1712209413878,-931.417809008155
1712209413919,-931.417809008155
1712209413958,-931.417809008155
1712209413998,-931.417809008155
1712209414039,-931.417809008155
1712209414079,-3403.297780930996
1712209414119,-3403.297780930996
1712209414159,-3403.297780930996
1712209414199,-3403.297780930996
1712209414239,-3403.297780930996
1712209414279,-3403.297780930996
1712209414320,-3403.297780930996
1712209414359,-3357.5905297095887
1712209414399,-1776.7476475122385
1712209414440,-931.417809008155
1712209414480,132.5001346853096
1712209414520,355.86607602471486
1712209414560,355.86607602471486
1712209414600,355.86607602471486
1712209414640,355.86607602471486
1712209414680,355.86607602471486
1712209414721,355.86607602471486
1712209414760,355.86607602471486
1712209414800,132.5001346853096
1712209414840,-1776.7476475122385
1712209414881,-3357.5905297095887
1712209414921,-3357.5905297095887
1712209414961,-2409.805410457542
1712209415001,-1776.7476475122385
1712209415041,-250.02897238754667
1712209415081,-250.02897238754667
1712209415122,-98.91171844373457
1712209415161,243.87754879379645
1712209415201,355.86607602471486
1712209415241,1723.8304921695963
1712209415282,3580.1198015154805
1712209415322,4015.4078170838766
1712209415362,4015.4078170838766
1712209415402,4015.4078170838766
1712209415442,4015.4078170838766
1712209415482,4015.4078170838766
1712209415523,1723.8304921695963
1712209415562,243.87754879379645
1712209415602,-98.91171844373457
1712209415642,-98.91171844373457
1712209415682,-98.91171844373457
1712209415723,-98.91171844373457
1712209415763,-98.91171844373457
1712209415803,-98.91171844373457
1712209415843,-98.91171844373457
1712209415883,-609.6368080065586
1712209415924,-652.406465412816
1712209415963,-652.406465412816
1712209416003,-652.406465412816
1712209416043,-652.406465412816
1712209416083,-652.406465412816
1712209416124,-652.406465412816
1712209416164,-652.406465412816
1712209416204,-652.406465412816
1712209416244,-652.406465412816
1712209416284,-652.406465412816
1712209416325,-1239.8562630717643
1712209416364,-4145.489044149173
1712209416404,-4145.489044149173
1712209416444,-4145.489044149173
1712209416487,-4145.489044149173
1712209416527,-4145.489044149173
1712209416567,-4145.489044149173
1712209416607,-4145.489044149173
1712209416647,-3365.484436407918
1712209416687,-1239.8562630717643
1712209416728,-900.991663757246
1712209416767,1045.6148666134104
1712209416807,1045.6148666134104
1712209416848,1045.6148666134104
1712209416888,1045.6148666134104
1712209416928,1045.6148666134104
1712209416968,1045.6148666134104
1712209417008,1045.6148666134104
1712209417048,1045.6148666134104
1712209417088,-900.991663757246
1712209417129,-2521.3417583247647
1712209417168,-2521.3417583247647
1712209417209,-2521.3417583247647
1712209417249,-2521.3417583247647
1712209417289,-2521.3417583247647
1712209417330,-2521.3417583247647
1712209417369,-2521.3417583247647
1712209417409,-2521.3417583247647
1712209417449,-2521.3417583247647
1712209417489,-900.991663757246
1712209417530,-638.6879392052069
1712209417570,-638.6879392052069
1712209417610,-638.6879392052069
1712209417650,-638.6879392052069
1712209417690,-638.6879392052069
1712209417731,-638.6879392052069
1712209417770,-638.6879392052069
1712209417810,-2521.3417583247647
1712209417851,-2807.977388497442
1712209417891,-3612.379141399637
1712209417931,-3624.2964712679386
1712209417971,-3624.2964712679386
1712209418011,-3624.2964712679386
1712209418051,-3612.379141399637
1712209418091,-3090.514209523564
1712209418132,-2933.231504911091
1712209418172,-2807.977388497442
1712209418211,-2566.222098423168
1712209418252,-666.180636332836
1712209418292,-638.6879392052069
1712209418332,1773.2199717557523
1712209418372,1897.6526742668357
1712209418412,1897.6526742668357
1712209418452,1897.6526742668357
1712209418492,1897.6526742668357
1712209418533,-666.180636332836
1712209418573,-2566.222098423168
1712209418613,-2933.231504911091
1712209418653,-2933.231504911091
1712209418693,-2933.231504911091
1712209418734,-2933.231504911091
1712209418773,-2933.231504911091
1712209418813,-2933.231504911091
1712209418853,-2933.231504911091
1712209418894,-3090.514209523564
1712209418934,-3372.4027815284207
1712209418974,-3372.4027815284207
1712209419014,-3372.4027815284207
1712209419054,-3372.4027815284207
1712209419094,-3372.4027815284207
1712209419135,-3372.4027815284207
1712209419174,-3372.4027815284207
1712209419215,-3372.4027815284207
1712209419255,-5566.778561272193
1712209419295,-7495.059580347268
1712209419336,-7604.372510986868
1712209419375,-8899.289455626626
1712209419415,-8899.289455626626
1712209419455,-8899.289455626626
1712209419496,-8899.289455626626
1712209419536,-8899.289455626626
1712209419576,-8899.289455626626
1712209419616,-8899.289455626626
1712209419656,-8899.289455626626
1712209419696,-7604.372510986868
1712209419737,-7495.059580347268
1712209419776,-7495.059580347268
1712209419816,-7495.059580347268
1712209419857,-7495.059580347268
1712209419897,-7495.059580347268
1712209419937,-7495.059580347268
1712209419977,-7495.059580347268
1712209420017,-9498.574913862394
1712209420057,-12547.995027056197
1712209420097,-12887.047375830356
1712209420138,-12887.047375830356
1712209420177,-12887.047375830356
1712209420218,-12887.047375830356
1712209420258,-12887.047375830356
1712209420298,-12690.670730476268
1712209420339,-12547.995027056197
1712209420378,-10217.9924901966
1712209420418,-9498.574913862394
1712209420458,-6950.539236712037
1712209420498,-6241.933240728453
1712209420539,-4502.240516020218
1712209420579,-4502.240516020218
1712209420618,-4502.240516020218
1712209420659,-6950.539236712037
1712209420699,-7996.4375593864825
1712209420739,-10217.9924901966
1712209420779,-12690.670730476268
1712209420819,-12887.047375830356
1712209420859,-12953.784340064507
1712209420899,-12690.670730476268
1712209420940,-12102.911649526563
1712209420979,-11871.432550416794
1712209421019,-11813.574366621906
1712209421060,-10356.331333625596
1712209421099,-10217.9924901966
1712209421140,-7996.4375593864825
1712209421180,-7579.4998101233505
1712209421220,-7579.4998101233505
1712209421260,-7579.4998101233505
1712209421300,-7579.4998101233505
1712209421341,-7579.4998101233505
1712209421380,-7996.4375593864825
1712209421421,-8229.724488131236
1712209421460,-10356.331333625596
1712209421501,-11813.574366621906
1712209421542,-11813.574366621906
1712209421581,-11813.574366621906
1712209421621,-11813.574366621906
1712209421661,-11813.574366621906
1712209421701,-11813.574366621906
1712209421742,-11813.574366621906
1712209421781,-10832.617937589996
1712209421821,-10356.331333625596
1712209421861,-8229.724488131236
1712209421902,-8229.724488131236
1712209421942,-8229.724488131236
1712209421982,-8229.724488131236
1712209422022,-8229.724488131236
1712209422062,-8229.724488131236
1712209422102,-8229.724488131236
1712209422143,-10832.617937589996
1712209422182,-12796.8485011952
1712209422222,-13671.436049919575
1712209422262,-13671.436049919575
1712209422302,-13671.436049919575
1712209422343,-13671.436049919575
1712209422383,-13671.436049919575
1712209422423,-13671.436049919575
1712209422463,-13671.436049919575
1712209422503,-12796.8485011952
1712209422544,-10951.78904854972
1712209422583,-10832.617937589996
1712209422623,-8058.681987229269
1712209422663,-8058.681987229269
1712209422704,-8058.681987229269
1712209422744,-8058.681987229269
1712209422784,-8058.681987229269
1712209422824,-8058.681987229269
1712209422864,-8058.681987229269
1712209422904,-8058.681987229269
1712209422945,-8058.681987229269
1712209422984,-7304.865289072506
1712209423024,-5986.012449836824
1712209423064,-5905.135765924584
1712209423105,-5028.84303212259
1712209423145,-4871.601891856408
1712209423185,-2977.2280083540827
1712209423225,-1739.2252976028249
1712209423265,-1531.3162625185214
1712209423305,-681.6039466147777
1712209423346,-103.41688798251562
1712209423385,149.6645750128664
1712209423425,272.8037814341951
1712209423465,570.3421775209717
1712209423505,2113.4422374239657
1712209423546,3562.185097712325
1712209423586,3562.185097712325
1712209423626,3562.185097712325
1712209423666,3562.185097712325
1712209423706,3562.185097712325
1712209423747,6069.016558935866
1712209423786,9480.337244838476
1712209423826,13680.70635615522
1712209423866,18312.571815956617
1712209423907,23947.193705946673
1712209423947,32225.48906087689
1712209423987,33290.13921642862
1712209424027,33391.49882144877
1712209424067,37466.16538698645
1712209424107,39257.56915444136
1712209424148,41156.74770327541
1712209424187,41204.09821286751
1712209424227,41204.09821286751
1712209424268,41204.09821286751
1712209424308,41204.09821286751
1712209424348,41204.09821286751
1712209424388,41204.09821286751
1712209424428,41204.09821286751
1712209424468,41204.09821286751
1712209424508,41204.09821286751
1712209424549,41204.09821286751
1712209424588,41204.09821286751
1712209424629,38851.4127678955
1712209424669,36988.6750968541
1712209424709,36988.6750968541
1712209424750,36988.6750968541
1712209424789,36626.579119437374
1712209424829,35863.79709886853
1712209424869,35759.56250837026
1712209424909,33895.34048755653
1712209424950,33150.35676524462
1712209424990,33116.30433906452
1712209425030,33052.21745994268
1712209425070,33052.21745994268
1712209425110,33052.21745994268
1712209425151,33052.21745994268
1712209425190,33052.21745994268
1712209425230,33052.21745994268
1712209425271,33052.21745994268
1712209425311,33052.21745994268
1712209425351,33052.21745994268
1712209425391,33052.21745994268
1712209425431,33052.21745994268
1712209425471,33052.21745994268
1712209425511,33028.41941028042
1712209425552,31456.57031649002
1712209425591,31442.776194078382
1712209425632,30226.05410358752
1712209425672,25128.610560543835
1712209425712,25128.610560543835
1712209425753,25128.610560543835
1712209425792,25128.610560543835
1712209425832,25128.610560543835
1712209425873,25128.610560543835
1712209425912,25128.610560543835
1712209425953,25128.610560543835
1712209425993,25128.610560543835
1712209426033,25011.919057185994
1712209426073,25004.65266213729
1712209426113,25004.65266213729
1712209426154,25004.65266213729
1712209426193,25004.65266213729
1712209426234,25004.65266213729
1712209426274,25004.65266213729
1712209426314,25004.65266213729
1712209426355,25004.65266213729
1712209426394,25004.65266213729
1712209426434,24675.8012376111
1712209426475,23501.407354143914
1712209426515,23501.407354143914
1712209426555,23501.407354143914
1712209426595,23501.407354143914
1712209426635,23501.407354143914
1712209426675,23501.407354143914
1712209426715,23501.407354143914
1712209426756,22923.957243222743
1712209426796,22334.024185456336
1712209426836,22207.636526783463
1712209426876,21336.00239082612
1712209426916,21336.00239082612
1712209426957,21336.00239082612
1712209426996,21336.00239082612
1712209427036,21336.00239082612
1712209427077,21336.00239082612
1712209427117,20694.58947958285
1712209427157,17716.88409723388
1712209427197,8703.000360618578
1712209427237,8703.000360618578
1712209427277,8703.000360618578
1712209427317,8703.000360618578
1712209427358,8703.000360618578
1712209427397,8703.000360618578
1712209427437,8703.000360618578
1712209427477,8703.000360618578
1712209427517,8703.000360618578
1712209427558,6686.285286764614
1712209427598,6276.953958844766
1712209427638,5859.523963205051
1712209427678,5859.523963205051
1712209427718,5859.523963205051
1712209427759,5859.523963205051
1712209427798,5859.523963205051
1712209427838,5859.523963205051
1712209427878,5383.217493522447
1712209427918,5383.217493522447
1712209427959,2686.2526071113534
1712209427998,2448.1072774699423
1712209428039,865.2150490521453
1712209428079,678.3978133567143
1712209428119,530.1195173412561
1712209428160,530.1195173412561
1712209428199,530.1195173412561
1712209428239,530.1195173412561
1712209428279,530.1195173412561
1712209428319,471.19467904698104
1712209428360,106.13170746457763
1712209428399,106.13170746457763
1712209428439,106.13170746457763
1712209428480,106.13170746457763
1712209428520,106.13170746457763
1712209428560,106.13170746457763
1712209428600,106.13170746457763
1712209428640,106.13170746457763
1712209428680,106.13170746457763
1712209428720,-10463.284939249512
1712209428761,-10777.96589642507
1712209428800,-10777.96589642507
1712209428840,-10777.96589642507
1712209428881,-10777.96589642507
1712209428921,-10777.96589642507
1712209428962,-10777.96589642507
1712209429001,-10777.96589642507
1712209429041,-10777.96589642507
1712209429081,-11150.58638213249
1712209429122,-12878.325020016637
1712209429162,-14696.257540530525
1712209429201,-14696.257540530525
1712209429242,-14696.257540530525
1712209429282,-14696.257540530525
1712209429322,-14427.240117855603
1712209429363,-14087.979415644892
1712209429402,-13700.392275739228
1712209429442,-12878.325020016637
1712209429482,-12395.338881127536
1712209429522,-11150.58638213249
1712209429563,-10777.96589642507
1712209429603,-10413.770381208975
1712209429643,-10413.770381208975
1712209429683,-10413.770381208975
1712209429723,-10413.770381208975
1712209429764,-10413.770381208975
1712209429803,-10413.770381208975
1712209429843,-11150.58638213249
1712209429883,-12395.338881127536
1712209429923,-13700.392275739228
1712209429964,-13700.392275739228
1712209430004,-13700.392275739228
1712209430044,-13700.392275739228
1712209430084,-13700.392275739228
1712209430124,-13700.392275739228
1712209430165,-13700.392275739228
1712209430204,-13700.392275739228
1712209430244,-12395.338881127536
1712209430285,-11301.392098442186
1712209430325,-11301.392098442186
1712209430365,-11301.392098442186
1712209430405,-11301.392098442186
1712209430445,-11301.392098442186
1712209430485,-11301.392098442186
1712209430525,-11301.392098442186
1712209430566,-11301.392098442186
1712209430606,-11301.392098442186
1712209430646,-11301.392098442186
1712209430686,-11301.392098442186
1712209430726,-11301.392098442186
1712209430767,-11301.392098442186
1712209430806,-11078.048050592188
1712209430846,-11078.048050592188
1712209430886,-11059.46222684905
1712209430927,-10650.345716395415
1712209430967,-10544.154404996196
1712209431007,-9912.857036505593
1712209431047,-8378.632278789068
1712209431087,-8186.866721182829
1712209431127,-6296.308103051735
1712209431168,-6296.308103051735
1712209431207,-6296.308103051735
1712209431247,-6296.308103051735
1712209431288,-6296.308103051735
1712209431328,-6296.308103051735
1712209431368,-6296.308103051735
1712209431408,-8186.866721182829
1712209431448,-9506.650388915557
1712209431488,-9506.650388915557
1712209431529,-9506.650388915557
1712209431569,-9506.650388915557
1712209431609,-9506.650388915557
1712209431649,-9506.650388915557
1712209431689,-8924.368442335632
1712209431729,-8382.540732698515
1712209431770,-8186.866721182829
1712209431809,-6315.814482733142
1712209431849,-6296.308103051735
1712209431890,-3740.4671804341488
1712209431930,-3738.750991418492
1712209431970,-3738.750991418492
1712209432010,-3738.750991418492
1712209432050,-3738.750991418492
1712209432090,-3738.750991418492
1712209432131,-3738.750991418492
1712209432171,-6315.814482733142
1712209432211,-8382.540732698515
1712209432251,-8382.540732698515
1712209432291,-8382.540732698515
1712209432331,-8382.540732698515
1712209432372,-6940.129650217947
1712209432411,-6940.129650217947
1712209432451,-6940.129650217947
1712209432492,-6471.868023029529
1712209432532,-6315.814482733142
1712209432573,-5034.981294594938
1712209432612,-3738.750991418492
1712209432652,-3076.8401055191644
1712209432692,-3076.8401055191644
1712209432733,-3076.8401055191644
1712209432773,-3076.8401055191644
1712209432813,-3076.8401055191644
1712209432853,-4027.794334550388
1712209432893,-5034.981294594938
1712209432933,-6471.868023029529
1712209432974,-6940.129650217947
1712209433014,-6940.129650217947
1712209433054,-6940.129650217947
1712209433094,-6940.129650217947
1712209433134,-6940.129650217947
1712209433175,-6940.129650217947
1712209433214,-7112.163991479902
1712209433254,-6471.868023029529
1712209433294,-5034.981294594938
1712209433335,-4290.868210441666
1712209433375,-4027.794334550388
1712209433415,-4027.794334550388
1712209433455,-4027.794334550388
1712209433495,-4027.794334550388
1712209433535,-4027.794334550388
1712209433576,-4290.868210441666
1712209433615,-7112.163991479902
1712209433655,-8740.548937098123
1712209433695,-9498.69551517209
1712209433735,-9498.69551517209
1712209433776,-9498.69551517209
1712209433816,-9498.69551517209
1712209433856,-9498.69551517209
1712209433896,-9498.69551517209
1712209433936,-8740.548937098123
1712209433977,-8150.337574938778
1712209434016,-7112.163991479902
1712209434056,-5532.7191995456815
1712209434096,-5532.7191995456815
1712209434136,-5532.7191995456815
1712209434177,-5532.7191995456815
1712209434217,-5532.7191995456815
1712209434257,-5532.7191995456815
1712209434297,-5532.7191995456815
1712209434337,-5532.7191995456815
1712209434378,-8150.337574938778
1712209434417,-8150.337574938778
1712209434457,-8150.337574938778
1712209434497,-8150.337574938778
1712209434538,-8150.337574938778
1712209434578,-8150.337574938778
1712209434618,-8150.337574938778
1712209434658,-8150.337574938778
1712209434698,-6765.991940475069
1712209434738,-5532.7191995456815
1712209434779,-4288.427309882361
1712209434818,-3509.443248787429
1712209434858,-3509.443248787429
1712209434898,-3509.443248787429
1712209434938,-3509.443248787429
1712209434979,-3509.443248787429
1712209435019,-3509.443248787429
1712209435059,-3509.443248787429
1712209435099,-3509.443248787429
1712209435139,-3509.443248787429
1712209435180,-3758.853600333445
1712209435219,-3758.853600333445
1712209435259,-3758.853600333445
1712209435299,-3758.853600333445
1712209435339,-3758.853600333445
1712209435380,-3758.853600333445
1712209435420,-3758.853600333445
1712209435460,-3758.853600333445
1712209435500,-3758.853600333445
1712209435543,-3008.703287814278
1712209435581,-1826.3073124296498
1712209435620,-976.1415016246028
1712209435660,-976.1415016246028
1712209435700,-976.1415016246028
1712209435741,-976.1415016246028
1712209435781,-976.1415016246028
1712209435821,-976.1415016246028
1712209435861,-976.1415016246028
1712209435901,-1920.910980039509
1712209435941,-3008.703287814278
1712209435982,-3758.853600333445
1712209436021,-4242.9258253432345
1712209436061,-4242.9258253432345
1712209436102,-4242.9258253432345
1712209436142,-4242.9258253432345
1712209436182,-4242.9258253432345
1712209436222,-4242.9258253432345
1712209436262,-4362.147234765813
1712209436302,-4362.147234765813
1712209436342,-5339.43108005682
1712209436383,-5339.43108005682
1712209436422,-5339.43108005682
1712209436463,-5339.43108005682
1712209436503,-5339.43108005682
1712209436543,-5339.43108005682
1712209436584,-5339.43108005682
1712209436623,-5339.43108005682
1712209436663,-5339.43108005682
1712209436703,-7927.536219145171
1712209436743,-9844.221663845005
1712209436784,-9844.221663845005
1712209436824,-9844.221663845005
1712209436864,-9844.221663845005
1712209436904,-9844.221663845005
1712209436944,-9844.221663845005
1712209436985,-9438.779735608958
1712209437024,-8058.860594831407
1712209437064,-7927.536219145171
1712209437104,-6080.98758025025
1712209437145,-5339.43108005682
1712209437185,-3901.7698599251453
1712209437225,-3901.7698599251453
1712209437265,-3901.7698599251453
1712209437305,-3901.7698599251453
1712209437345,-3901.7698599251453
1712209437386,-3901.7698599251453
1712209437426,-3901.7698599251453
1712209437466,-3901.7698599251453
1712209437506,-6080.98758025025
1712209437546,-6080.98758025025
1712209437587,-6080.98758025025
1712209437626,-6080.98758025025
1712209437666,-6080.98758025025
1712209437706,-5496.331089336891
1712209437749,-4883.2905067445245
1712209437787,-4883.2905067445245
1712209437827,-4475.806588115171
1712209437867,-3901.7698599251453
1712209437907,-2421.8763746793848
1712209437947,-1516.0671221408993
1712209437988,-622.7559529989958
1712209438027,-622.7559529989958
1712209438067,-622.7559529989958
1712209438108,-622.7559529989958
1712209438148,-622.7559529989958
1712209438189,-622.7559529989958
1712209438228,-2421.8763746793848
1712209438268,-2795.8981616692618
1712209438308,-4475.806588115171
1712209438348,-4475.806588115171
1712209438389,-4475.806588115171
1712209438429,-4475.806588115171
1712209438469,-4475.806588115171
1712209438509,-4475.806588115171
1712209438549,-4475.806588115171
1712209438590,-4290.029147293419
1712209438629,-2795.8981616692618
1712209438670,-2421.8763746793848
1712209438710,-1799.6053571256343
1712209438750,-1799.6053571256343
1712209438791,-1799.6053571256343
1712209438830,-1799.6053571256343
1712209438870,-1799.6053571256343
1712209438910,-1799.6053571256343
1712209438951,-1799.6053571256343
1712209438991,-1799.6053571256343
1712209439031,-2795.8981616692618
1712209439071,-4290.029147293419
1712209439111,-4290.029147293419
1712209439151,-4290.029147293419
1712209439192,-4290.029147293419
1712209439231,-4290.029147293419
1712209439271,-4290.029147293419
1712209439312,-4290.029147293419
1712209439352,-4290.029147293419
1712209439393,-4290.029147293419
1712209439432,-1863.4850518873427
1712209439472,-1863.4850518873427
1712209439512,-1863.4850518873427
1712209439553,-1863.4850518873427
1712209439594,-1863.4850518873427
1712209439633,-1863.4850518873427
1712209439673,-1863.4850518873427
1712209439713,-1863.4850518873427
1712209439753,-1863.4850518873427
1712209439794,-1863.4850518873427
1712209439833,-4408.43223868194
1712209439873,-4408.43223868194
1712209439913,-4408.43223868194
1712209439956,-4408.43223868194
1712209439994,-4408.43223868194
1712209440034,-4408.43223868194
1712209440074,-4408.43223868194
1712209440114,-4408.43223868194
1712209440154,-4408.43223868194
1712209440195,-4408.43223868194
1712209440234,-1890.3525703931227
1712209440274,-1890.3525703931227
1712209440314,-1890.3525703931227
1712209440354,-1890.3525703931227
1712209440395,-1890.3525703931227
1712209440435,-1890.3525703931227
1712209440475,-1890.3525703931227
1712209440515,-1890.3525703931227
1712209440555,-1890.3525703931227
1712209440596,-1890.3525703931227
1712209440635,-4532.126011549495
1712209440675,-4532.126011549495
1712209440715,-4532.126011549495
1712209440755,-4532.126011549495
1712209440796,-4532.126011549495
1712209440836,-4532.126011549495
1712209440876,-4532.126011549495
1712209440916,-4532.126011549495
1712209440956,-4532.126011549495
1712209440997,-4434.093549775891
1712209441036,-1890.3525703931227
1712209441076,-1498.2134388699196
1712209441116,-1498.2134388699196
1712209441157,-1498.2134388699196
1712209441197,-1498.2134388699196
1712209441237,-1498.2134388699196
1712209441277,-1498.2134388699196
1712209441317,-1498.2134388699196
1712209441357,-1498.2134388699196
1712209441398,-4434.093549775891
1712209441437,-5866.492541440297
1712209441477,-6089.605789724737
1712209441518,-6089.605789724737
1712209441558,-6089.605789724737
1712209441598,-6089.605789724737
1712209441638,-6089.605789724737
1712209441678,-6089.605789724737
1712209441718,-6089.605789724737
1712209441758,-4434.093549775891
1712209441799,-4349.226908136625
1712209441838,-1943.0726141713094
1712209441879,-1943.0726141713094
1712209441918,-1943.0726141713094
1712209441959,-1943.0726141713094
1712209442000,-1943.0726141713094
1712209442039,-1943.0726141713094
1712209442079,-1943.0726141713094
1712209442119,-1943.0726141713094
1712209442159,-1943.0726141713094
1712209442200,-4349.226908136625
1712209442240,-4349.226908136625
1712209442280,-4349.226908136625
1712209442320,-4349.226908136625
1712209442360,-4349.226908136625
1712209442401,-4349.226908136625
1712209442440,-4349.226908136625
1712209442480,-4349.226908136625
1712209442520,-4349.226908136625
1712209442560,-4349.226908136625
1712209442601,-5684.098764539463
1712209442641,-5684.098764539463
1712209442681,-5684.098764539463
1712209442721,-5684.098764539463
1712209442761,-5684.098764539463
1712209442802,-5684.098764539463
1712209442841,-5684.098764539463
1712209442881,-5684.098764539463
1712209442921,-5684.098764539463
1712209442962,-5684.098764539463
1712209443002,-8450.049093247857
1712209443042,-8450.049093247857
1712209443082,-8450.049093247857
1712209443122,-8450.049093247857
1712209443162,-8450.049093247857
1712209443203,-8450.049093247857
1712209443242,-8450.049093247857
1712209443282,-8450.049093247857
1712209443323,-8450.049093247857
1712209443363,-8100.032116426621
1712209443403,-5814.87359194085
1712209443443,-5814.87359194085
1712209443483,-5814.87359194085
1712209443523,-5814.87359194085
1712209443563,-5814.87359194085
1712209443604,-5814.87359194085
1712209443643,-5814.87359194085
1712209443684,-5814.87359194085
1712209443724,-5814.87359194085
1712209443764,-5814.87359194085
1712209443805,-7808.048033490311
1712209443844,-7808.048033490311
1712209443884,-7808.048033490311
1712209443924,-7808.048033490311
1712209443964,-7808.048033490311
1712209444005,-7808.048033490311
1712209444045,-7738.499747012509
1712209444085,-7432.162557481322
1712209444125,-6479.631918866653
1712209444165,-5814.87359194085
1712209444206,-4674.724207092542
1712209444245,-2476.5694759020116
1712209444285,-2317.101847337326
1712209444325,-2317.101847337326
1712209444366,-2317.101847337326
1712209444407,-2317.101847337326
1712209444446,-2317.101847337326
1712209444486,-2317.101847337326
1712209444526,-3821.2583018033765
1712209444566,-4674.724207092542
1712209444607,-6479.631918866653
1712209444647,-6479.631918866653
1712209444687,-6479.631918866653
1712209444727,-6479.631918866653
1712209444767,-6479.631918866653
1712209444808,-6479.631918866653
1712209444847,-6479.631918866653
1712209444887,-6479.631918866653
1712209444927,-5083.506017793436
1712209444968,-4674.724207092542
1712209445008,-3821.2583018033765
1712209445048,-3821.2583018033765
1712209445088,-3821.2583018033765
1712209445128,-3821.2583018033765
1712209445168,-3821.2583018033765
1712209445209,-3821.2583018033765
1712209445249,-3821.2583018033765
1712209445289,-3821.2583018033765
1712209445329,-5083.506017793436
1712209445369,-7436.314256760292
1712209445410,-7436.314256760292
1712209445449,-7436.314256760292
1712209445489,-7436.314256760292
1712209445529,-7436.314256760292
1712209445570,-7436.314256760292
1712209445611,-7436.314256760292
1712209445650,-7436.314256760292
1712209445690,-7436.314256760292
1712209445730,-5083.506017793436
1712209445770,-4704.959643614711
1712209445811,-4704.959643614711
1712209445851,-4704.959643614711
1712209445891,-4704.959643614711
1712209445931,-4704.959643614711
1712209445971,-4704.959643614711
1712209446012,-4704.959643614711
1712209446051,-4704.959643614711
1712209446091,-8002.530875888187
1712209446131,-8017.585028491449
1712209446171,-8127.081722696312
1712209446212,-8127.081722696312
1712209446251,-8127.081722696312
1712209446291,-8127.081722696312
1712209446331,-8127.081722696312
1712209446371,-8127.081722696312
1712209446412,-8127.081722696312
1712209446452,-8127.081722696312
1712209446492,-8017.585028491449
1712209446532,-7826.813974658493
1712209446572,-7826.813974658493
1712209446613,-7826.813974658493
1712209446652,-7826.813974658493
1712209446692,-7826.813974658493
1712209446732,-7826.813974658493
1712209446772,-7826.813974658493
1712209446813,-7826.813974658493
1712209446852,-8017.585028491449
1712209446893,-10020.9939326616
1712209446933,-11515.552364617353
1712209446973,-11515.552364617353
1712209447014,-11515.552364617353
1712209447053,-11515.552364617353
1712209447093,-11515.552364617353
1712209447133,-11250.403721284121
1712209447173,-10020.9939326616
1712209447214,-9578.57624555286
1712209447253,-7826.813974658493
1712209447293,-7427.124280633638
1712209447333,-7066.076992376009
1712209447374,-7066.076992376009
1712209447414,-7066.076992376009
1712209447454,-7066.076992376009
1712209447494,-7066.076992376009
1712209447534,-7066.076992376009
1712209447574,-7066.076992376009
1712209447615,-7427.124280633638
1712209447654,-9578.57624555286
1712209447694,-9578.57624555286
1712209447735,-9578.57624555286
1712209447775,-9578.57624555286
1712209447815,-9578.57624555286
1712209447855,-9578.57624555286
1712209447895,-9578.57624555286
1712209447935,-9578.57624555286
1712209447975,-7721.379335481208
1712209448016,-7427.124280633638
1712209448055,-4872.143157040235
1712209448095,-4872.143157040235
1712209448136,-4872.143157040235
1712209448176,-4872.143157040235
1712209448216,-4872.143157040235
1712209448256,-4872.143157040235
1712209448296,-4872.143157040235
1712209448336,-4872.143157040235
1712209448376,-4872.143157040235
1712209448417,-7721.379335481208
1712209448456,-7721.379335481208
1712209448497,-7721.379335481208
1712209448536,-7721.379335481208
1712209448577,-7721.379335481208
1712209448618,-7721.379335481208
1712209448657,-7721.379335481208
1712209448697,-7721.379335481208
1712209448737,-7360.519991990179
1712209448777,-4925.427828420419
1712209448818,-4872.143157040235
1712209448857,-4012.146445247112
1712209448897,-4012.146445247112
1712209448938,-4012.146445247112
1712209448978,-4012.146445247112
1712209449019,-4012.146445247112
1712209449058,-4012.146445247112
1712209449098,-4012.146445247112
1712209449138,-4012.146445247112
1712209449178,-4012.146445247112
1712209449219,-4925.427828420419
1712209449259,-4925.427828420419
1712209449299,-4925.427828420419
1712209449339,-4925.427828420419
1712209449379,-4925.427828420419
1712209449420,-4545.05234226305
1712209449459,-4221.089801430004
1712209449499,-3326.9971420238726
1712209449539,-2588.9865687869024
1712209449580,-2003.2988860779442
1712209449620,-1670.4665387419518
1712209449660,437.3133932845667
1712209449700,437.3133932845667
1712209449740,437.3133932845667
1712209449780,437.3133932845667
1712209449821,437.3133932845667
1712209449860,437.3133932845667
1712209449900,437.3133932845667
1712209449941,-1670.4665387419518
1712209449980,-2588.9865687869024
1712209450021,-3326.9971420238726
1712209450061,-3326.9971420238726
1712209450101,-3326.9971420238726
1712209450141,-2929.81415142864
1712209450181,-2751.8655588156544
1712209450222,-2160.972736505326
1712209450261,-1670.4665387419518
1712209450301,-980.5136517034844
1712209450342,437.3133932845667
1712209450382,1182.3102072263137
1712209450423,1437.4604594397824
1712209450462,1437.4604594397824
1712209450502,1437.4604594397824
1712209450542,1437.4604594397824
1712209450582,1437.4604594397824
1712209450623,1437.4604594397824
1712209450663,1182.3102072263137
1712209450702,-858.1000820256304
1712209450743,-980.5136517034844
1712209450783,-980.5136517034844
1712209450824,-980.5136517034844
1712209450863,-980.5136517034844
1712209450903,-980.5136517034844
1712209450943,-980.5136517034844
1712209450983,-980.5136517034844
1712209451024,-980.5136517034844
1712209451064,-858.1000820256304
1712209451104,-439.79271373990923
1712209451144,-439.79271373990923
1712209451184,-439.79271373990923
1712209451225,-439.79271373990923
1712209451264,-439.79271373990923
1712209451304,-439.79271373990923
1712209451345,-439.79271373990923
1712209451385,-439.79271373990923
1712209451425,-439.79271373990923
1712209451465,-858.1000820256304
1712209451505,-1982.7147733061574
1712209451545,-1982.7147733061574
1712209451585,-1982.7147733061574
1712209451626,-1982.7147733061574
1712209451666,-1982.7147733061574
1712209451706,-1982.7147733061574
1712209451746,-1982.7147733061574
1712209451786,-1982.7147733061574
1712209451827,-923.5603186548688
1712209451866,-439.79271373990923
1712209451906,-0.21077830623835325
1712209451947,-0.21077830623835325
1712209451987,-0.21077830623835325
1712209452028,-0.21077830623835325
1712209452067,-0.21077830623835325
1712209452107,-0.21077830623835325
1712209452147,-0.21077830623835325
1712209452187,-0.21077830623835325
1712209452228,-923.5603186548688
1712209452268,-3327.2334233222064
1712209452308,-3327.2334233222064
1712209452348,-3327.2334233222064
1712209452388,-3327.2334233222064
1712209452429,-3327.2334233222064
1712209452469,-3327.2334233222064
1712209452508,-2699.9782196087763
1712209452549,-1338.412968543591
1712209452648,-923.5603186548688
1712209452689,226.80116186011583
1712209452728,1128.9307910660282
1712209452768,1284.887970768381
1712209452808,1284.887970768381
1712209452848,1284.887970768381
1712209452889,1284.887970768381
1712209452929,1284.887970768381
1712209452969,1284.887970768381
1712209453009,226.80116186011583
1712209453049,-185.1781455867458
1712209453090,-1338.412968543591
1712209453129,-1338.412968543591
1712209453169,-1338.412968543591
1712209453209,-705.8755469804164
1712209453249,-185.1781455867458
1712209453290,-185.1781455867458
1712209453329,-128.94565383647569
1712209453370,-111.48559245839715
1712209453410,226.80116186011583
1712209453450,1674.9268076133449
1712209453491,2517.8872807831503
1712209453530,3889.790312461788
1712209453570,3889.790312461788
1712209453610,3889.790312461788
1712209453650,3889.790312461788
1712209453691,3730.662354602013
1712209453731,1674.9268076133449
1712209453771,-111.48559245839715
1712209453811,-128.94565383647569
1712209453851,-128.94565383647569
1712209453892,-128.94565383647569
1712209453931,-128.94565383647569
1712209453971,-128.94565383647569
1712209454011,-128.94565383647569
1712209454051,-128.94565383647569
1712209454092,-552.820150715299
1712209454131,-128.94565383647569
1712209454172,1674.9268076133449
1712209454212,1702.236046015285
1712209454252,1702.236046015285
1712209454293,1702.236046015285
1712209454332,1702.236046015285
1712209454372,1702.236046015285
1712209454412,1702.236046015285
1712209454453,-715.2380019277334
1712209454493,-2391.4121001441963
1712209454533,-3121.029088844545
1712209454573,-3121.029088844545
1712209454613,-3121.029088844545
1712209454653,-3121.029088844545
1712209454694,-3121.029088844545
1712209454733,-3121.029088844545
1712209454773,-3121.029088844545
1712209454813,-3239.221910497872
1712209454853,-4524.515609971248
1712209454894,-4524.515609971248
1712209454934,-4524.515609971248
1712209454974,-4524.515609971248
1712209455014,-4524.515609971248
1712209455054,-4524.515609971248
1712209455095,-4524.515609971248
1712209455134,-4524.515609971248
1712209455174,-4524.515609971248
1712209455214,-6606.551685289014
1712209455254,-7119.190555619774
1712209455295,-8152.552595837507
1712209455335,-8152.552595837507
1712209455375,-8152.552595837507
1712209455415,-7119.190555619774
1712209455455,-7089.23137400439
1712209455496,-6883.203704338986
1712209455535,-6831.4648291352205
1712209455575,-6002.771686080378
1712209455615,-4524.515609971248
1712209455656,-4164.582625035662
1712209455696,-1440.8747944517527
1712209455736,-1375.6082502936479
1712209455776,-1375.6082502936479
1712209455816,-1375.6082502936479
1712209455856,-1375.6082502936479
1712209455897,-1375.6082502936479
1712209455936,-1375.6082502936479
1712209455976,-4164.582625035662
1712209456017,-5218.003864900209
1712209456056,-5218.003864900209
1712209456097,-5218.003864900209
1712209456137,-5218.003864900209
1712209456177,-4334.650688676396
1712209456217,-4334.650688676396
1712209456257,-4334.650688676396
1712209456298,-4334.650688676396
1712209456337,-4164.582625035662
1712209456377,-2746.232207003981
1712209456417,-1375.6082502936479
1712209456457,-374.32245816709474
1712209456498,-374.32245816709474
1712209456538,-374.32245816709474
1712209456578,-374.32245816709474
1712209456618,-374.32245816709474
1712209456658,-1866.9251574075315
1712209456699,-2746.232207003981
1712209456738,-4334.650688676396
1712209456778,-4464.479700152297
1712209456818,-4464.479700152297
1712209456859,-4464.479700152297
1712209456899,-4464.479700152297
1712209456939,-4464.479700152297
1712209456979,-4464.479700152297
1712209457019,-4464.479700152297
1712209457059,-4217.272060915595
1712209457100,-2746.232207003981
1712209457139,-1956.2505256379955
1712209457179,-1866.9251574075315
1712209457220,-1866.9251574075315
1712209457260,-1866.9251574075315
1712209457300,-1866.9251574075315
1712209457340,-1866.9251574075315
1712209457380,-1866.9251574075315
1712209457420,-1956.2505256379955
1712209457460,-3830.931053905748
1712209457501,-4217.272060915595
1712209457540,-4217.272060915595
1712209457581,-4217.272060915595
1712209457621,-4217.272060915595
1712209457661,-4217.272060915595
1712209457702,-4217.272060915595
1712209457741,-4217.272060915595
1712209457781,-4217.272060915595
1712209457821,-3830.931053905748
1712209457861,-3678.9859212257434
1712209457902,-3678.9859212257434
1712209457942,-3678.9859212257434
1712209457982,-3678.9859212257434
1712209458022,-3678.9859212257434
1712209458062,-3678.9859212257434
1712209458103,-3678.9859212257434
1712209458142,-3678.9859212257434
1712209458183,-3830.931053905748
1712209458223,-5969.666732776212
1712209458263,-7589.928587401519
1712209458304,-7589.928587401519
1712209458345,-7571.6657875990495
1712209458386,-6229.46224822849
1712209458426,-5969.666732776212
1712209458466,-5569.350272328127
1712209458507,-5191.72313958942
1712209458547,-3678.9859212257434
1712209458587,-3568.8216778943315
1712209458627,-3463.4765772207174
1712209458668,-1324.0700081924442
1712209458709,-1235.3711227350868
1712209458748,-1235.3711227350868
1712209458789,-1235.3711227350868
1712209458829,-1235.3711227350868
1712209458869,-1235.3711227350868
1712209458910,-3463.4765772207174
1712209458949,-3568.8216778943315
1712209458989,-5191.72313958942
1712209459029,-5191.72313958942
1712209459070,-5191.72313958942
1712209459110,-5166.207847688114
1712209459150,-4512.0109284305945
1712209459190,-4062.9273554389365
1712209459230,-3629.6461534795817
1712209459271,-3463.4765772207174
1712209459311,-2089.957069542259
1712209459351,-1235.3711227350868
1712209459391,-69.35928055038676
1712209459431,-69.35928055038676
1712209459471,-69.35928055038676
1712209459512,-69.35928055038676
1712209459552,-69.35928055038676
1712209459592,-2089.957069542259
1712209459632,-2553.904605738353
1712209459672,-3629.6461534795817
1712209459713,-4062.9273554389365
1712209459753,-4062.9273554389365
1712209459793,-4062.9273554389365
1712209459833,-4062.9273554389365
1712209459874,-4062.9273554389365
1712209459914,-4062.9273554389365
1712209459954,-4062.9273554389365
1712209459994,-4062.9273554389365
1712209460035,-3629.6461534795817
1712209460075,-2553.904605738353
1712209460116,-2553.904605738353
1712209460155,-2553.904605738353
1712209460196,-2553.904605738353
1712209460236,-2553.904605738353
1712209460276,-2553.904605738353
1712209460317,-2553.904605738353
1712209460357,-4234.334880919196
1712209460397,-4801.254217222333
1712209460437,-6024.450972897001
1712209460477,-6024.450972897001
1712209460518,-6024.450972897001
1712209460558,-6024.450972897001
1712209460598,-6024.450972897001
1712209460638,-6024.450972897001
1712209460679,-6024.450972897001
1712209460720,-6024.450972897001
1712209460759,-6024.450972897001
1712209460799,-4801.254217222333
1712209460840,-4801.254217222333
1712209460880,-4801.254217222333
1712209460921,-4801.254217222333
1712209460961,-4801.254217222333
1712209461001,-4801.254217222333
1712209461041,-4801.254217222333
1712209461082,-4801.254217222333
1712209461123,-4801.254217222333
1712209461162,-6196.627728948137
1712209461203,-8205.446818322642
1712209461243,-8205.446818322642
1712209461283,-8205.446818322642
1712209461324,-8205.446818322642
1712209461363,-7762.584005775396
1712209461404,-6709.541437711567
1712209461444,-6196.627728948137
1712209461484,-5665.876602788456
1712209461525,-4459.2554713033605
1712209461565,-3304.328181964811
1712209461605,-2650.4641450308263
1712209461645,-995.9190322495997
1712209461686,-995.9190322495997
1712209461726,-995.9190322495997
1712209461766,-995.9190322495997
1712209461806,-995.9190322495997
1712209461846,-995.9190322495997
1712209461887,-995.9190322495997
1712209461928,-2650.4641450308263
1712209461967,-4459.2554713033605
1712209462007,-4459.2554713033605
1712209462048,-4459.2554713033605
1712209462088,-3415.8210336684715
1712209462129,-2650.4641450308263
1712209462169,-1950.3131665359251
1712209462209,-1859.478045771597
1712209462249,-1556.7194680147804
1712209462289,-640.6257571140304
1712209462330,259.86661203065887
1712209462370,1113.0771201471798
1712209462410,3196.875092478702
1712209462450,3196.875092478702
1712209462490,3196.875092478702
1712209462531,3196.875092478702
1712209462570,3196.875092478702
1712209462611,3196.875092478702
1712209462651,1113.0771201471798
1712209462691,-640.6257571140304
1712209462732,-1556.7194680147804
1712209462772,-1556.7194680147804
1712209462812,-1556.7194680147804
1712209462852,-1556.7194680147804
1712209462892,-1556.7194680147804
1712209462933,-1556.7194680147804
1712209462973,-1556.7194680147804
1712209463013,-1642.3058458815794
1712209463053,-640.6257571140304
1712209463093,1113.0771201471798
1712209463134,1405.3891623825766
1712209463174,1405.3891623825766
1712209463214,1405.3891623825766
1712209463254,1405.3891623825766
1712209463295,1405.3891623825766
1712209463336,1405.3891623825766
1712209463375,1405.3891623825766
1712209463415,-1501.6677304215264
1712209463456,-1642.3058458815794
1712209463496,-1642.3058458815794
1712209463537,-1642.3058458815794
1712209463576,-1642.3058458815794
1712209463617,-1642.3058458815794
1712209463657,-1642.3058458815794
1712209463697,-1642.3058458815794
1712209463738,-1642.3058458815794
1712209463778,-1501.6677304215264
1712209463818,-230.86381661263295
1712209463858,1405.3891623825766
1712209463898,2543.191557468381
1712209463939,2543.191557468381
1712209463979,2543.191557468381
1712209464019,2543.191557468381
1712209464059,2543.191557468381
1712209464100,2543.191557468381
1712209464141,2543.191557468381
1712209464180,2543.191557468381
1712209464221,1441.901291093789
1712209464261,1441.901291093789
1712209464301,1441.901291093789
1712209464342,1441.901291093789
1712209464381,1441.901291093789
1712209464422,1441.901291093789
1712209464462,1441.901291093789
1712209464502,1441.901291093789
1712209464543,1441.901291093789
1712209464583,1721.7871554372832
1712209464623,2543.191557468381
1712209464663,3833.0093263727613
1712209464702,3833.0093263727613
1712209464741,3833.0093263727613
1712209464780,3833.0093263727613
1712209464819,3833.0093263727613
1712209464858,3833.0093263727613
1712209464897,3833.0093263727613
1712209464936,1721.7871554372832
1712209464975,1441.901291093789
1712209465014,319.7919125906192
1712209465053,-241.8879436419811
1712209465092,-241.8879436419811
1712209465131,319.7919125906192
1712209465170,1100.8814413715154
1712209465209,1365.9479241003282
1712209465248,1503.9982503198553
1712209465287,1721.7871554372832
1712209465326,2137.303608249873
1712209465365,3492.726915115956
1712209465404,3833.0093263727613
1712209465443,5807.067827080842
1712209465482,6137.773392882431
1712209465521,6137.773392882431
1712209465560,6137.773392882431
1712209465599,6137.773392882431
1712209465638,3492.726915115956
1712209465677,2137.303608249873
1712209465716,1503.9982503198553
1712209465755,1503.9982503198553
1712209465794,1503.9982503198553
1712209465833,1503.9982503198553
1712209465872,1503.9982503198553
1712209465911,1503.9982503198553
1712209465950,1503.9982503198553
1712209465989,1365.9479241003282
1712209466028,-699.1773336417973
1712209466067,-699.1773336417973
1712209466107,-699.1773336417973
1712209466147,-699.1773336417973
1712209466187,-699.1773336417973
1712209466227,-699.1773336417973
1712209466267,-699.1773336417973
1712209466307,-699.1773336417973
1712209466347,-699.1773336417973
1712209466387,-2186.9768193983473
1712209466427,-2934.5361031522043
1712209466467,-3732.1098695702385
1712209466507,-3732.1098695702385
1712209466547,-3732.1098695702385
1712209466587,-3732.1098695702385
1712209466627,-3732.1098695702385
1712209466667,-3732.1098695702385
1712209466707,-3732.1098695702385
1712209466747,-3580.763860092964
1712209466787,-2934.5361031522043
1712209466827,-805.156500174664
1712209466867,-805.156500174664
1712209466907,-805.156500174664
1712209466947,-805.156500174664
1712209466987,-805.156500174664
1712209467027,-805.156500174664
1712209467067,-805.156500174664
1712209467107,-2737.7365159466863
1712209467147,-3580.763860092964
1712209467187,-5817.653703641379
1712209467227,-5817.653703641379
1712209467267,-5817.653703641379
1712209467307,-5817.653703641379
1712209467347,-5817.653703641379
1712209467387,-5817.653703641379
1712209467427,-5817.653703641379
1712209467467,-5817.653703641379
1712209467507,-4165.758041107794
1712209467547,-3580.763860092964
1712209467587,-2737.7365159466863
1712209467627,-2737.7365159466863
1712209467667,-2737.7365159466863
1712209467707,-2737.7365159466863
1712209467747,-2737.7365159466863
1712209467787,-2737.7365159466863
1712209467827,-2737.7365159466863
1712209467867,-4165.758041107794
1712209467907,-6295.739378650673
1712209467947,-7216.511977385962
1712209467987,-7216.511977385962
1712209468027,-7216.511977385962
1712209468067,-7216.511977385962
1712209468107,-7216.511977385962
1712209468147,-7216.511977385962
1712209468187,-7216.511977385962
1712209468227,-7278.220322678797
1712209468267,-6295.739378650673
1712209468307,-5909.577881933656
1712209468347,-5909.577881933656
1712209468387,-5909.577881933656
1712209468427,-5909.577881933656
1712209468467,-5909.577881933656
1712209468507,-5909.577881933656
1712209468547,-5909.577881933656
1712209468587,-5909.577881933656
1712209468627,-8194.94146321062
1712209468667,-8534.892102920217
1712209468707,-8534.892102920217
1712209468747,-8534.892102920217
1712209468787,-8534.892102920217
1712209468827,-8534.892102920217
1712209468867,-8534.892102920217
1712209468907,-8534.892102920217
1712209468947,-8534.892102920217
1712209468987,-8534.892102920217
1712209469027,-8329.337293708231
1712209469067,-8194.94146321062
1712209469107,-8194.94146321062
1712209469147,-8194.94146321062
1712209469187,-8194.94146321062
1712209469227,-8194.94146321062
1712209469267,-8194.94146321062
1712209469307,-8194.94146321062
1712209469347,-8194.94146321062
1712209469387,-8194.94146321062
1712209469427,-8194.94146321062
1712209469467,-8329.337293708231
1712209469507,-8329.337293708231
1712209469547,-8329.337293708231
1712209469587,-8329.337293708231
1712209469627,-8329.337293708231
1712209469667,-8329.337293708231
1712209469707,-8329.337293708231
1712209469747,-8329.337293708231
1712209469787,-8329.337293708231
1712209469827,-7433.007795027457
1712209469867,-4866.810740027577
1712209469907,-4754.608132181922
1712209469947,-4754.608132181922
1712209469987,-4754.608132181922
1712209470027,-4754.608132181922
1712209470067,-4754.608132181922
1712209470107,-4754.608132181922
1712209470147,-4754.608132181922
1712209470187,-4754.608132181922
1712209470227,-4754.608132181922
1712209470267,-5678.825304933824
1712209470307,-5678.825304933824
1712209470347,-5678.825304933824
1712209470387,-5678.825304933824
1712209470427,-5678.825304933824
1712209470467,-5678.825304933824
1712209470507,-5678.825304933824
1712209470547,-5349.4778413439635
1712209470587,-4877.353217107011
1712209470627,-4754.608132181922
1712209470667,-3498.7228929286357
1712209470707,-1666.6232539217453
1712209470747,-868.7300041932613
1712209470787,-868.7300041932613
1712209470827,-868.7300041932613
1712209470867,-868.7300041932613
1712209470907,-868.7300041932613
1712209470947,-868.7300041932613
1712209470987,-868.7300041932613
1712209471027,-868.7300041932613
1712209471067,-3498.7228929286357
1712209471107,-3498.7228929286357
1712209471147,-3498.7228929286357
1712209471187,-3498.7228929286357
1712209471227,-3498.7228929286357
1712209471267,-2094.5671170759015
1712209471307,-2094.5671170759015
1712209471347,-2094.5671170759015
1712209471387,-1761.511400626041
1712209471427,-868.7300041932613
1712209471467,330.29135121498257
1712209471507,1184.4301138632
1712209471547,2648.34512746986
1712209471587,2648.34512746986
1712209471627,2648.34512746986
1712209471667,2648.34512746986
1712209471707,2648.34512746986
1712209471747,330.29135121498257
1712209471787,-1761.511400626041
1712209471827,-2094.5671170759015
1712209471867,-2245.8192404829897
1712209471907,-2245.8192404829897
1712209471947,-2245.8192404829897
1712209471987,-2245.8192404829897
1712209472027,-2245.8192404829897
1712209472067,-2245.8192404829897
1712209472107,-2510.0943021823186
1712209472147,-2245.8192404829897
1712209472187,-1761.511400626041
1712209472227,-632.5392973534763
1712209472267,-632.5392973534763
1712209472307,-632.5392973534763
1712209472347,-632.5392973534763
1712209472387,-632.5392973534763
1712209472427,-632.5392973534763
1712209472467,-3094.155760273803
1712209472507,-4170.429326832527
1712209472547,-5352.429903387558
1712209472587,-5352.429903387558
1712209472627,-5352.429903387558
1712209472667,-5352.429903387558
1712209472707,-5352.429903387558
1712209472747,-5352.429903387558
1712209472787,-5352.429903387558
1712209472827,-5645.967709672172
1712209472867,-5332.303825468523
1712209472907,-5332.303825468523
1712209472947,-5332.303825468523
1712209472987,-5332.303825468523
1712209473027,-5332.303825468523
1712209473067,-5332.303825468523
1712209473107,-5332.303825468523
1712209473147,-5332.303825468523
1712209473187,-5332.303825468523
1712209473227,-5332.303825468523
1712209473267,-7053.022985931486
1712209473307,-7814.6463201616425
1712209473347,-7814.6463201616425
1712209473387,-7814.6463201616425
1712209473427,-7814.6463201616425
1712209473467,-7814.6463201616425
1712209473507,-7814.6463201616425
1712209473547,-7814.6463201616425
1712209473587,-7814.6463201616425
1712209473627,-7261.014730780385
1712209473667,-5332.303825468523
1712209473707,-4610.805086153094
1712209473747,-4610.805086153094
1712209473787,-4610.805086153094
1712209473827,-4610.805086153094
1712209473867,-4610.805086153094
1712209473907,-4610.805086153094
1712209473947,-4610.805086153094
1712209473987,-4610.805086153094
1712209474027,-4610.805086153094
1712209474067,-4610.805086153094
1712209474107,-4610.805086153094
1712209474147,-4610.805086153094
1712209474187,-4610.805086153094
1712209474227,-4610.805086153094
1712209474267,-4610.805086153094
1712209474307,-4610.805086153094
1712209474347,-4610.805086153094
1712209474387,-4610.805086153094
1712209474427,-4610.805086153094
1712209474467,-4610.805086153094
1712209474507,-2208.1985027315095
1712209474547,-2208.1985027315095
1712209474587,-2208.1985027315095
1712209474627,-2208.1985027315095
1712209474667,-2208.1985027315095
1712209474707,-2208.1985027315095
1712209474747,-2208.1985027315095
1712209474787,-2208.1985027315095
1712209474827,-2208.1985027315095
1712209474867,-2208.1985027315095
1712209474907,-2208.1985027315095
1712209474947,-2208.1985027315095
1712209474987,-2208.1985027315095
1712209475027,-2208.1985027315095
1712209475067,-2208.1985027315095
1712209475107,-2208.1985027315095
1712209475147,-1890.1454014224
1712209475187,-1890.1454014224
1712209475227,-1890.1454014224
1712209475267,-1551.4169421431143
1712209475307,-665.4696122505702
1712209475347,389.34743191534653
1712209475387,865.0973251569085
1712209475427,865.0973251569085
1712209475467,865.0973251569085
1712209475507,865.0973251569085
1712209475547,865.0973251569085
1712209475587,865.0973251569085
1712209475627,865.0973251569085
1712209475667,865.0973251569085
1712209475707,-665.4696122505702
1712209475747,-1551.4169421431143
1712209475787,-1551.4169421431143
1712209475827,-1551.4169421431143
1712209475867,-1551.4169421431143
1712209475907,-1551.4169421431143
1712209475947,-1551.4169421431143
1712209475987,-1551.4169421431143
1712209476027,-1551.4169421431143
1712209476067,-1551.4169421431143
1712209476107,865.0973251569085
1712209476147,947.091713310685
1712209476187,947.091713310685
1712209476227,947.091713310685
1712209476267,947.091713310685
1712209476307,947.091713310685
1712209476347,947.091713310685
1712209476387,947.091713310685
1712209476427,947.091713310685
1712209476467,947.091713310685
1712209476507,-1877.5481777435634
1712209476547,-1877.5481777435634
1712209476587,-1877.5481777435634
1712209476627,-1877.5481777435634
1712209476667,-1877.5481777435634
1712209476707,-1877.5481777435634
1712209476747,-1877.5481777435634
1712209476787,-1877.5481777435634
1712209476827,-1877.5481777435634
1712209476867,-1877.5481777435634
1712209476907,-1935.8499901229516
1712209476947,-1935.8499901229516
1712209476987,-1935.8499901229516
1712209477027,-1935.8499901229516
1712209477067,-1935.8499901229516
1712209477107,-1935.8499901229516
1712209477147,-1935.8499901229516
1712209477187,-1935.8499901229516
1712209477227,-1935.8499901229516
1712209477267,-1935.8499901229516
1712209477307,-1935.8499901229516
1712209477347,-1935.8499901229516
1712209477387,-1935.8499901229516
1712209477427,-1935.8499901229516
1712209477467,-1935.8499901229516
1712209477507,-1935.8499901229516
1712209477547,-1935.8499901229516
1712209477587,-1935.8499901229516
1712209477627,-1935.8499901229516
1712209477667,-1935.8499901229516
1712209477707,-1935.8499901229516
1712209477747,-3849.4681993557606
1712209477787,-3849.4681993557606
1712209477827,-3849.4681993557606
1712209477867,-3849.4681993557606
1712209477907,-3849.4681993557606
1712209477947,-3849.4681993557606
1712209477987,-3849.4681993557606
1712209478027,-3849.4681993557606
1712209478067,-3849.4681993557606
1712209478107,-3849.4681993557606
1712209478147,-3849.4681993557606
1712209478187,-3849.4681993557606
1712209478227,-3849.4681993557606
1712209478267,-3849.4681993557606
1712209478307,-3849.4681993557606
1712209478347,-3849.4681993557606
1712209478387,-3816.069160841871
1712209478427,-3816.069160841871
1712209478467,-3816.069160841871
1712209478507,-3391.7906288909726
1712209478547,-2507.4457394024357
1712209478587,-1288.3508909805678
1712209478627,-193.92785691516474
1712209478667,-193.92785691516474
1712209478707,-193.92785691516474
1712209478747,-193.92785691516474
1712209478787,-193.92785691516474
1712209478827,-193.92785691516474
1712209478867,-193.92785691516474
1712209478907,-193.92785691516474
1712209478947,-2507.4457394024357
1712209478987,-2507.4457394024357
1712209479027,-2507.4457394024357
1712209479067,-2507.4457394024357
1712209479107,-2507.4457394024357
1712209479147,-2507.4457394024357
1712209479187,-2507.4457394024357
1712209479227,-2507.4457394024357
1712209479267,-2330.7081916239113
1712209479307,-675.2063283012249
1712209479347,-193.92785691516474
1712209479387,1891.6485812701285
1712209479427,1891.6485812701285
1712209479467,1891.6485812701285
1712209479507,1891.6485812701285
1712209479547,1891.6485812701285
1712209479587,1891.6485812701285
1712209479627,1891.6485812701285
1712209479667,1891.6485812701285
1712209479707,1891.6485812701285
1712209479747,-345.95693134563044
1712209479787,-345.95693134563044
1712209479827,-345.95693134563044
1712209479867,-345.95693134563044
1712209479907,-345.95693134563044
1712209479947,-345.95693134563044
1712209479987,-345.95693134563044
1712209480027,-345.95693134563044
1712209480067,-345.95693134563044
1712209480107,-345.95693134563044
1712209480147,-345.95693134563044
1712209480187,-1182.293417214416
1712209480227,-1182.293417214416
1712209480267,-1182.293417214416
1712209480307,-1182.293417214416
1712209480347,-1182.293417214416
1712209480387,-1182.293417214416
1712209480427,-1182.293417214416
1712209480467,-1182.293417214416
1712209480507,-1182.293417214416
1712209480547,-1182.293417214416
1712209480587,-1182.293417214416
1712209480627,-1182.293417214416
1712209480667,-1182.293417214416
1712209480707,-1182.293417214416
1712209480747,-1182.293417214416
1712209480787,-1182.293417214416
1712209480827,-1182.293417214416
1712209480867,-1182.293417214416
1712209480907,-1182.293417214416
1712209480947,-1182.293417214416
1712209480987,-1182.293417214416
1712209481027,-3138.2253866004758
1712209481067,-3138.2253866004758
1712209481107,-3138.2253866004758
1712209481147,-3138.2253866004758
1712209481187,-3138.2253866004758
1712209481227,-3138.2253866004758
1712209481267,-3138.2253866004758
1712209481307,-3138.2253866004758
1712209481347,-3138.2253866004758
1712209481387,-3138.2253866004758
1712209481427,-3138.2253866004758
1712209481467,-91.08151082228869
1712209481507,-91.08151082228869
1712209481547,-91.08151082228869
1712209481587,-91.08151082228869
1712209481627,-91.08151082228869
1712209481667,-91.08151082228869
1712209481707,-91.08151082228869
1712209481747,-91.08151082228869
1712209481787,-91.08151082228869
1712209481827,-91.08151082228869
1712209481867,-91.08151082228869
1712209481907,-1196.0896746413782
1712209481947,-1196.0896746413782
1712209481987,-1196.0896746413782
1712209482027,-1196.0896746413782
1712209482067,-1196.0896746413782
1712209482107,-1196.0896746413782
1712209482147,-1196.0896746413782
1712209482187,-1196.0896746413782
1712209482227,-1196.0896746413782
1712209482267,-1196.0896746413782
1712209482307,-1196.0896746413782
1712209482347,-1196.0896746413782
1712209482387,-1196.0896746413782
1712209482427,-1196.0896746413782
1712209482467,-1196.0896746413782
1712209482507,-1196.0896746413782
1712209482547,-1196.0896746413782
1712209482587,-1196.0896746413782
1712209482627,-1196.0896746413782
1712209482667,-1196.0896746413782
1712209482707,-99.0642903840635
1712209482747,1667.7470528231934
1712209482787,1937.5028311470523
1712209482827,1937.5028311470523
1712209482867,1937.5028311470523
1712209482907,1937.5028311470523
1712209482947,1937.5028311470523
1712209482987,1937.5028311470523
1712209483027,1937.5028311470523
1712209483067,1937.5028311470523
1712209483107,1937.5028311470523
1712209483147,-99.0642903840635
1712209483187,-99.0642903840635
1712209483227,-99.0642903840635
1712209483267,-99.0642903840635
1712209483307,-99.0642903840635
1712209483347,-99.0642903840635
1712209483387,-99.0642903840635
1712209483427,-99.0642903840635
1712209483467,-99.0642903840635
1712209483507,-99.0642903840635
1712209483547,-31.68487354926765
1712209483587,-31.68487354926765
1712209483627,-31.68487354926765
1712209483667,-31.68487354926765
1712209483707,-31.68487354926765
1712209483747,-31.68487354926765
1712209483787,-31.68487354926765
1712209483827,-31.68487354926765
1712209483867,-31.68487354926765
1712209483907,-31.68487354926765
1712209483947,-2672.730156012345
1712209483987,-2672.730156012345
1712209484028,-2672.730156012345
1712209484069,-2672.730156012345
1712209484110,-2672.730156012345
1712209484151,-2672.730156012345
1712209484192,-2672.730156012345
1712209484233,-2672.730156012345
1712209484274,-2672.730156012345
1712209484315,-2672.730156012345
1712209484356,-4828.640901799081
1712209484397,-4828.640901799081
1712209484438,-4828.640901799081
1712209484479,-4828.640901799081
1712209484520,-4828.640901799081
1712209484561,-4828.640901799081
1712209484602,-4828.640901799081
1712209484643,-4828.640901799081
1712209484684,-4828.640901799081
1712209484725,-4828.640901799081
1712209484766,-4828.640901799081
1712209484807,-4836.217772896634
1712209484848,-4836.217772896634
1712209484889,-4836.217772896634
1712209484930,-4836.217772896634
1712209484971,-4836.217772896634
1712209485012,-4836.217772896634
1712209485053,-4836.217772896634
1712209485094,-4836.217772896634
1712209485135,-4836.217772896634
1712209485176,-4836.217772896634
1712209485217,-4805.236300741322
1712209485258,-4805.236300741322
1712209485299,-4805.236300741322
1712209485340,-4805.236300741322
1712209485381,-4805.236300741322
1712209485422,-4805.236300741322
1712209485463,-4805.236300741322
1712209485504,-4805.236300741322
1712209485545,-4805.236300741322
1712209485586,-4805.236300741322
1712209485627,-4805.236300741322
1712209485668,-2195.5252432185225
1712209485709,-2195.5252432185225
1712209485750,-2195.5252432185225
1712209485791,-2195.5252432185225
1712209485832,-2195.5252432185225
1712209485873,-2195.5252432185225
1712209485914,-2195.5252432185225
1712209485955,-2195.5252432185225
1712209485996,-2195.5252432185225
1712209486037,-2195.5252432185225
1712209486078,-2195.5252432185225
1712209486119,-2306.2071502492763
1712209486160,-2306.2071502492763
1712209486201,-2306.2071502492763
1712209486242,-2306.2071502492763
1712209486283,-2306.2071502492763
1712209486324,-2306.2071502492763
1712209486365,-2306.2071502492763
1712209486406,-4813.368780593155
1712209486447,-6824.5312412390485
1712209486488,-6993.784267458133
1712209486529,-7735.468924680259
1712209486570,-7735.468924680259
1712209486611,-7735.468924680259
1712209486652,-7735.468924680259
1712209486693,-7735.468924680259
1712209486734,-7735.468924680259
1712209486775,-6993.784267458133
1712209486816,-6824.5312412390485
1712209486857,-6479.732970126672
1712209486898,-4813.368780593155
1712209486939,-4044.5773531510495
1712209486980,-4044.5773531510495
1712209487021,-4044.5773531510495
1712209487062,-4044.5773531510495
1712209487103,-4044.5773531510495
1712209487144,-4044.5773531510495
1712209487185,-4044.5773531510495
1712209487226,-6479.732970126672
1712209487267,-6479.732970126672
1712209487308,-6479.732970126672
1712209487349,-6479.732970126672
1712209487390,-6479.732970126672
1712209487431,-6479.732970126672
1712209487472,-6479.732970126672
1712209487513,-6479.732970126672
1712209487554,-6479.732970126672
1712209487595,-6479.732970126672
1712209487636,-5913.359022374963
1712209487677,-5913.359022374963
1712209487718,-5913.359022374963
1712209487759,-5913.359022374963
1712209487800,-5913.359022374963
1712209487841,-5913.359022374963
1712209487882,-5913.359022374963
1712209487923,-5913.359022374963
1712209487964,-5913.359022374963
1712209488005,-7513.211005527526
1712209488046,-8633.34596806718
1712209488087,-8633.34596806718
1712209488128,-8633.34596806718
1712209488169,-8633.34596806718
1712209488210,-8633.34596806718
1712209488251,-8633.34596806718
1712209488292,-8633.34596806718
1712209488333,-8633.34596806718
1712209488374,-8633.34596806718
1712209488415,-8633.34596806718
1712209488456,-7513.211005527526
1712209488497,-7513.211005527526
1712209488538,-7513.211005527526
1712209488579,-7513.211005527526
1712209488620,-7513.211005527526
1712209488661,-7513.211005527526
1712209488702,-7513.211005527526
1712209488743,-7513.211005527526
1712209488782,-7513.211005527526
1712209488823,-7513.211005527526
1712209488862,-8079.106849682052
1712209488902,-8079.106849682052
1712209488942,-8079.106849682052
1712209488982,-8079.106849682052
1712209489023,-8079.106849682052
1712209489063,-8079.106849682052
1712209489103,-8079.106849682052
1712209489143,-8079.106849682052
1712209489183,-8079.106849682052
1712209489224,-7397.686307386961
1712209489263,-6849.389599516988
1712209489303,-4471.318608199246
1712209489344,-4471.318608199246
1712209489384,-4471.318608199246
1712209489424,-4471.318608199246
1712209489464,-4471.318608199246
1712209489504,-4471.318608199246
1712209489544,-4471.318608199246
1712209489584,-4471.318608199246
1712209489625,-4471.318608199246
1712209489665,-4471.318608199246
1712209489705,-4471.318608199246
1712209489745,-4471.318608199246
1712209489785,-4471.318608199246
1712209489826,-4471.318608199246
1712209489865,-4471.318608199246
1712209489905,-4471.318608199246
1712209489946,-4450.876548368949
1712209489986,-4111.081344569335
1712209490026,-3170.696490338538
1712209490066,-1370.8410804783925
1712209490106,-1264.3954289744142
1712209490146,1143.5421730272938
1712209490186,1333.2040447618347
1712209490227,1333.2040447618347
1712209490267,1333.2040447618347
1712209490307,1333.2040447618347
1712209490347,1333.2040447618347
1712209490387,1333.2040447618347
1712209490428,-1370.8410804783925
1712209490467,-2992.8249472184107
1712209490507,-3170.696490338538
1712209490548,-3170.696490338538
1712209490588,-3170.696490338538
1712209490629,-3170.696490338538
1712209490668,-3170.696490338538
1712209490708,-3170.696490338538
1712209490748,-2992.8249472184107
1712209490789,-2754.900345549453
1712209490830,-1370.8410804783925
1712209490869,-1034.2154194754548
1712209490909,1084.6098736755084
1712209490949,1084.6098736755084
1712209490989,1084.6098736755084
1712209491030,1084.6098736755084
1712209491070,1084.6098736755084
1712209491110,1084.6098736755084
1712209491150,1084.6098736755084
1712209491190,1084.6098736755084
1712209491231,-1034.2154194754548
1712209491270,-1034.2154194754548
1712209491311,-1034.2154194754548
1712209491351,-1034.2154194754548
1712209491391,-1034.2154194754548
1712209491432,-1034.2154194754548
1712209491471,-1034.2154194754548
1712209491511,-1034.2154194754548
1712209491551,-1034.2154194754548
1712209491591,-1034.2154194754548
1712209491632,-124.65979527682066
1712209491672,-124.65979527682066
1712209491712,-124.65979527682066
1712209491752,-124.65979527682066
1712209491792,-124.65979527682066
1712209491832,-124.65979527682066
1712209491872,-124.65979527682066
1712209491912,-124.65979527682066
1712209491952,-124.65979527682066
1712209491992,-124.65979527682066
1712209492033,-3193.2111714268103
1712209492072,-3193.2111714268103
1712209492112,-3193.2111714268103
1712209492153,-3193.2111714268103
1712209492193,-3193.2111714268103
1712209492233,-3193.2111714268103
1712209492273,-3193.2111714268103
1712209492313,-3193.2111714268103
1712209492353,-3193.2111714268103
1712209492393,-3193.2111714268103
1712209492434,-1305.6381865846924
1712209492473,-1305.6381865846924
1712209492514,-1305.6381865846924
1712209492554,-1305.6381865846924
1712209492594,-1305.6381865846924
1712209492635,-1305.6381865846924
1712209492674,-1305.6381865846924
1712209492714,-1305.6381865846924
1712209492754,-1305.6381865846924
1712209492794,-1305.6381865846924
1712209492835,-1305.6381865846924
1712209492875,-1305.6381865846924
1712209492915,-1305.6381865846924
1712209492955,-1305.6381865846924
1712209492995,-1305.6381865846924
1712209493035,-1305.6381865846924
1712209493075,-1305.6381865846924
1712209493115,-1305.6381865846924
1712209493155,-1305.6381865846924
1712209493195,-1305.6381865846924
1712209493236,433.65211508749053
1712209493276,1717.7694647391327
1712209493316,2900.1864948614966
1712209493356,2900.1864948614966
1712209493396,2900.1864948614966
1712209493437,2900.1864948614966
1712209493476,2900.1864948614966
1712209493516,2900.1864948614966
1712209493556,2900.1864948614966
1712209493596,2900.1864948614966
1712209493637,433.65211508749053
1712209493676,-1542.7092100111768
1712209493717,-1542.7092100111768
1712209493757,-1542.7092100111768
1712209493797,-1542.7092100111768
1712209493838,-766.4804276218638
1712209493877,-691.0698164273053
1712209493917,-414.520828949986
1712209493957,285.46666594268754
1712209493997,433.65211508749053
1712209494038,2663.097656123806
1712209494078,2900.1864948614966
1712209494118,5005.330648382427
1712209494158,5005.330648382427
1712209494198,5005.330648382427
1712209494238,5005.330648382427
1712209494278,5005.330648382427
1712209494318,5005.330648382427
1712209494358,2663.097656123806
1712209494398,1091.4913032341283
1712209494439,285.46666594268754
1712209494478,285.46666594268754
1712209494519,285.46666594268754
1712209494559,285.46666594268754
1712209494599,285.46666594268754
1712209494640,285.46666594268754
1712209494679,285.46666594268754
1712209494719,285.46666594268754
1712209494759,285.46666594268754
1712209494800,-143.85504188761115
1712209494840,-143.85504188761115
1712209494880,-143.85504188761115
1712209494920,-143.85504188761115
1712209494960,-143.85504188761115
1712209495000,-143.85504188761115
1712209495041,-143.85504188761115
1712209495080,-143.85504188761115
1712209495120,-143.85504188761115
1712209495160,-2954.6255270319525
1712209495201,-4180.3216120374855
1712209495241,-4180.3216120374855
1712209495281,-4180.3216120374855
1712209495321,-4180.3216120374855
1712209495361,-4180.3216120374855
1712209495401,-4180.3216120374855
1712209495442,-4180.3216120374855
1712209495481,-4180.3216120374855
1712209495522,-4180.3216120374855
1712209495562,-2954.6255270319525
1712209495602,-2071.9541047196835
1712209495643,-2071.9541047196835
1712209495682,-2071.9541047196835
1712209495722,-2071.9541047196835
1712209495762,-2071.9541047196835
1712209495805,-2071.9541047196835
1712209495843,-2071.9541047196835
1712209495883,-2071.9541047196835
1712209495923,-2071.9541047196835
1712209495963,-2071.9541047196835
1712209496003,-2071.9541047196835
1712209496044,-2071.9541047196835
1712209496083,-2071.9541047196835
1712209496124,-2071.9541047196835
1712209496164,-2071.9541047196835
1712209496204,-2071.9541047196835
1712209496245,-2071.9541047196835
1712209496284,-2071.9541047196835
1712209496324,-2071.9541047196835
1712209496364,-2071.9541047196835
1712209496404,-1113.5868410822004
1712209496445,-1113.5868410822004
1712209496485,-1113.5868410822004
1712209496525,-1113.5868410822004
1712209496565,-1113.5868410822004
1712209496606,-1113.5868410822004
1712209496646,-1113.5868410822004
1712209496686,-1113.5868410822004
1712209496726,-1113.5868410822004
1712209496766,-1113.5868410822004
1712209496807,-3595.973431207938
1712209496848,-3595.973431207938
1712209496887,-3595.973431207938
1712209496927,-3141.736065764446
1712209496968,-1437.1800843155943
1712209497008,-1113.5868410822004
1712209497049,-857.658365956042
1712209497089,-702.3593115769327
1712209497129,166.19938359968364
1712209497169,1636.1928655323572
1712209497210,1834.8587755779736
1712209497250,4372.357034661109
1712209497290,4626.860061331419
1712209497330,7027.810939364834
1712209497370,7153.036837536376
1712209497410,7153.036837536376
1712209497451,7153.036837536376
1712209497491,7153.036837536376
1712209497531,4626.860061331419
1712209497571,1834.8587755779736
1712209497611,166.19938359968364
1712209497652,166.19938359968364
1712209497692,166.19938359968364
1712209497732,166.19938359968364
1712209497772,166.19938359968364
1712209497812,166.19938359968364
1712209497853,166.19938359968364
1712209497892,166.19938359968364
1712209497933,1617.630206974689
1712209497973,1617.630206974689
1712209498016,1617.630206974689
1712209498054,1617.630206974689
1712209498093,1617.630206974689
1712209498133,1617.630206974689
1712209498174,1617.630206974689
1712209498214,1617.630206974689
1712209498255,1617.630206974689
1712209498294,1617.630206974689
1712209498334,1617.630206974689
1712209498375,1617.630206974689
1712209498415,1617.630206974689
1712209498456,1617.630206974689
1712209498495,1617.630206974689
1712209498536,1617.630206974689
1712209498576,1617.630206974689
1712209498616,1617.630206974689
1712209498657,1617.630206974689
1712209498696,1617.630206974689
1712209498737,1617.630206974689
1712209498777,2084.2524583647028
1712209498817,2084.2524583647028
1712209498858,2084.2524583647028
1712209498898,2084.2524583647028
1712209498938,2084.2524583647028
1712209498978,2084.2524583647028
1712209499019,2084.2524583647028
1712209499060,2084.2524583647028
1712209499099,2084.2524583647028
1712209499140,2084.2524583647028
1712209499180,58.229873867705464
1712209499220,58.229873867705464
1712209499261,58.229873867705464
1712209499300,58.229873867705464
1712209499341,58.229873867705464
1712209499381,58.229873867705464
1712209499421,58.229873867705464
1712209499462,58.229873867705464
1712209499502,352.46951813064516
1712209499542,1786.3896224983037
1712209499582,2438.271809341619
1712209499623,3592.169721902348
1712209499663,3592.169721902348
1712209499703,3592.169721902348
1712209499743,3592.169721902348
1712209499783,3592.169721902348
1712209499824,3592.169721902348
1712209499865,3592.169721902348
1712209499904,3592.169721902348
1712209499944,3592.169721902348
1712209499985,1786.3896224983037
1712209500025,1786.3896224983037
1712209500066,1786.3896224983037
1712209500106,1786.3896224983037
1712209500146,1786.3896224983037
1712209500186,1786.3896224983037
1712209500229,1786.3896224983037
1712209500267,1786.3896224983037
1712209500307,1786.3896224983037
1712209500347,3163.6554029122926
1712209500387,3592.169721902348
1712209500427,5060.828398010228
1712209500469,5060.828398010228
1712209500508,5060.828398010228
1712209500548,5060.828398010228
1712209500589,5060.828398010228
1712209500629,5060.828398010228
1712209500670,5060.828398010228
1712209500709,3163.6554029122926
1712209500749,1659.4511669646017
1712209500789,916.3089336398989
1712209500822,916.3089336398989
1712209500862,916.3089336398989
1712209500902,916.3089336398989
1712209500942,916.3089336398989
1712209500982,916.3089336398989
1712209501022,916.3089336398989
1712209501063,916.3089336398989
1712209501102,1659.4511669646017
1712209501142,2274.6044872552156
1712209501183,2274.6044872552156
1712209501222,2274.6044872552156
1712209501263,2274.6044872552156
1712209501303,2274.6044872552156
1712209501343,2274.6044872552156
1712209501383,2274.6044872552156
1712209501423,378.1909895858262
1712209501464,-1585.230985275004
1712209501504,-2171.805041723186
1712209501544,-2171.805041723186
1712209501585,-2171.805041723186
1712209501625,-2171.805041723186
1712209501666,-2171.805041723186
1712209501706,-2171.805041723186
1712209501746,-2171.805041723186
1712209501786,-2228.375449536834
1712209501826,-3129.265870799776
1712209501867,-3129.265870799776
1712209501907,-3129.265870799776
1712209501947,-3129.265870799776
1712209501987,-3129.265870799776
1712209502028,-3129.265870799776
1712209502069,-3129.265870799776
1712209502108,-3129.265870799776
1712209502148,-3129.265870799776
1712209502189,-3874.7913587049115
1712209502229,-6512.194214308634
1712209502270,-7555.786157624796
1712209502309,-7555.786157624796
1712209502350,-7555.786157624796
1712209502390,-7555.786157624796
1712209502430,-7555.786157624796
1712209502471,-7555.786157624796
1712209502511,-7555.786157624796
1712209502551,-7555.786157624796
1712209502591,-7361.34965170105
1712209502631,-7361.34965170105
1712209502672,-7361.34965170105
1712209502712,-7361.34965170105
1712209502752,-7361.34965170105
1712209502792,-7361.34965170105
1712209502833,-7361.34965170105
1712209502874,-7361.34965170105
1712209502913,-7361.34965170105
1712209502953,-7361.34965170105
1712209502994,-8333.544062428642
1712209503034,-9288.336949985242
1712209503075,-9288.336949985242
1712209503115,-9288.336949985242
1712209503155,-9288.336949985242
1712209503195,-9288.336949985242
1712209503235,-9288.336949985242
1712209503276,-9288.336949985242
1712209503316,-9288.336949985242
1712209503356,-8819.310394727625
1712209503396,-7361.34965170105
1712209503436,-6315.302621784853
1712209503478,-6315.302621784853
1712209503517,-6315.302621784853
1712209503557,-6315.302621784853
1712209503598,-6315.302621784853
1712209503638,-6315.302621784853
1712209503679,-6315.302621784853
1712209503718,-8819.310394727625
1712209503758,-9288.336949985242
1712209503799,-10258.120685670292
1712209503839,-11016.549031219678
1712209503880,-10258.120685670292
1712209503920,-9978.611861781217
1712209503960,-9357.899549443275
1712209504000,-9048.017583133187
1712209504040,-9021.512270403095
1712209504083,-8819.310394727625
1712209504122,-7662.8091987632215
1712209504162,-6315.302621784853
1712209504203,-5481.512409015326
1712209504243,-4234.876926593017
1712209504284,-4234.876926593017
1712209504323,-4234.876926593017
1712209504363,-4234.876926593017
1712209504403,-4234.876926593017
1712209504444,-5481.512409015326
1712209504484,-7662.8091987632215
1712209504524,-9021.512270403095
1712209504564,-9021.512270403095
1712209504604,-9021.512270403095
1712209504645,-9021.512270403095
1712209504686,-9021.512270403095
1712209504725,-9021.512270403095
1712209504765,-9021.512270403095
1712209504806,-8374.906835697591
1712209504846,-7662.8091987632215
1712209504887,-5481.512409015326
1712209504926,-5420.090812460752
1712209504967,-5420.090812460752
1712209505007,-5420.090812460752
1712209505047,-5420.090812460752
1712209505088,-5420.090812460752
1712209505128,-5420.090812460752
1712209505168,-5420.090812460752
1712209505208,-5888.974517594092
1712209505248,-8374.906835697591
1712209505289,-8374.906835697591
1712209505329,-8374.906835697591
1712209505369,-8374.906835697591
1712209505409,-8374.906835697591
1712209505450,-8374.906835697591
1712209505490,-8374.906835697591
1712209505530,-8374.906835697591
1712209505570,-8374.906835697591
1712209505611,-8374.906835697591
1712209505651,-5888.974517594092
1712209505692,-5888.974517594092
1712209505731,-5888.974517594092
1712209505772,-5888.974517594092
1712209505812,-5888.974517594092
1712209505852,-5888.974517594092
1712209505893,-5888.974517594092
1712209505932,-5888.974517594092
1712209505973,-5888.974517594092
1712209506013,-5888.974517594092
1712209506053,-7551.54935645638
1712209506095,-7551.54935645638
1712209506135,-7551.54935645638
1712209506175,-7551.54935645638
1712209506215,-7551.54935645638
1712209506255,-7551.54935645638
1712209506296,-7551.54935645638
1712209506336,-7551.54935645638
1712209506376,-7551.54935645638
1712209506416,-6474.755049905274
1712209506456,-5774.465020586271
1712209506497,-3586.5500453645363
1712209506537,-3586.5500453645363
1712209506577,-3586.5500453645363
1712209506618,-3586.5500453645363
1712209506658,-3586.5500453645363
1712209506699,-3586.5500453645363
1712209506738,-3586.5500453645363
1712209506778,-3586.5500453645363
1712209506819,-3586.5500453645363
1712209506859,-3586.5500453645363
1712209506900,-3586.5500453645363
1712209506939,-3586.5500453645363
1712209506980,-3586.5500453645363
1712209507020,-3586.5500453645363
1712209507060,-3586.5500453645363
1712209507101,-3586.5500453645363
1712209507140,-3586.5500453645363
1712209507180,-3235.6763117220253
1712209507221,-2234.698459633626
1712209507261,-886.5075907825958
1712209507301,197.207185191568
1712209507341,1559.4179179163184
1712209507381,2578.1059141287114
1712209507421,2578.1059141287114
1712209507462,2578.1059141287114
1712209507502,2578.1059141287114
1712209507542,2578.1059141287114
1712209507582,2578.1059141287114
1712209507622,2578.1059141287114
1712209507662,197.207185191568
1712209507703,-2234.698459633626
1712209507742,-2234.698459633626
1712209507783,-2234.698459633626
1712209507823,-2234.698459633626
1712209507863,-2234.698459633626
1712209507904,-2234.698459633626
1712209507944,-2234.698459633626
1712209507984,-1664.8823024374433
1712209508024,197.207185191568
1712209508064,291.5921765700914
1712209508105,3115.0863020559773
1712209508145,3115.0863020559773
1712209508185,3115.0863020559773
1712209508225,3115.0863020559773
1712209508265,3115.0863020559773
1712209508306,3115.0863020559773
1712209508346,3115.0863020559773
1712209508386,3115.0863020559773
1712209508426,3115.0863020559773
1712209508467,291.5921765700914
1712209508508,291.5921765700914
1712209508547,291.5921765700914
1712209508588,291.5921765700914
1712209508628,291.5921765700914
1712209508669,291.5921765700914
1712209508710,291.5921765700914
1712209508749,291.5921765700914
1712209508790,291.5921765700914
1712209508830,291.5921765700914
1712209508870,1838.3968728957698
1712209508912,1838.3968728957698
1712209508952,1838.3968728957698
1712209508992,1838.3968728957698
1712209509033,1838.3968728957698
1712209509073,1838.3968728957698
1712209509114,1838.3968728957698
1712209509154,1838.3968728957698
1712209509194,1838.3968728957698
1712209509234,1838.3968728957698
1712209509274,242.86180237005465
1712209509315,242.86180237005465
1712209509355,242.86180237005465
1712209509395,242.86180237005465
1712209509435,242.86180237005465
1712209509475,242.86180237005465
1712209509516,242.86180237005465
1712209509556,630.7161346417852
1712209509596,1838.3968728957698
1712209509636,2477.655503771035
1712209509677,4141.5269780601375
1712209509717,4652.259024489205
1712209509757,6915.86761602154
1712209509797,6915.86761602154
1712209509838,6915.86761602154
1712209509878,6915.86761602154
1712209509919,6915.86761602154
1712209509958,6915.86761602154
1712209509999,5683.106600704137
1712209510039,4652.259024489205
1712209510079,2477.655503771035
1712209510120,2477.655503771035
1712209510159,2477.655503771035
1712209510199,2477.655503771035
1712209510239,2477.655503771035
1712209510280,2477.655503771035
1712209510320,2652.3010110384785
1712209510360,4025.544425287517
1712209510400,4652.259024489205
1712209510440,5683.106600704137
1712209510480,6300.238651697058
1712209510521,6300.238651697058
1712209510561,6300.238651697058
1712209510601,6300.238651697058
1712209510641,6300.238651697058
1712209510681,6300.238651697058
1712209510722,5683.106600704137
1712209510761,4025.544425287517
1712209510802,2652.3010110384785
1712209510842,2410.6307022678666
1712209510882,2410.6307022678666
1712209510923,2410.6307022678666
1712209510963,2410.6307022678666
1712209511003,2410.6307022678666
1712209511043,2410.6307022678666
1712209511085,2191.1797880022787
1712209511126,2231.731415355578
1712209511166,2231.731415355578
1712209511206,2231.731415355578
1712209511246,2231.731415355578
1712209511286,2231.731415355578
1712209511327,2231.731415355578
1712209511367,2231.731415355578
1712209511407,2231.731415355578
1712209511448,506.1275510562118
1712209511488,491.65499512758106
1712209511529,-962.376712558791
1712209511568,-1149.9039239140693
1712209511608,-1149.9039239140693
1712209511649,-1149.9039239140693
1712209511689,-1149.9039239140693
1712209511730,-1149.9039239140693
1712209511769,-1149.9039239140693
1712209511810,-1149.9039239140693
1712209511850,-2350.4868292463943
1712209511890,-2350.4868292463943
1712209511931,-2350.4868292463943
1712209511971,-2350.4868292463943
1712209512011,-2350.4868292463943
1712209512051,-2350.4868292463943
1712209512091,-2350.4868292463943
1712209512132,-2350.4868292463943
1712209512172,-2350.4868292463943
1712209512212,-2842.192489616107
1712209512252,-5341.141232779715
1712209512293,-6909.177888071863
1712209512334,-6909.177888071863
1712209512373,-6909.177888071863
1712209512414,-6909.177888071863
1712209512454,-6749.3974653265905
1712209512494,-5881.3902560037095
1712209512535,-5341.141232779715
1712209512574,-4899.133731668815
1712209512615,-2842.192489616107
1712209512655,-2263.3439827789553
1712209512695,-730.4905735969078
1712209512736,33.45039756572805
1712209512776,33.45039756572805
1712209512816,33.45039756572805
1712209512856,33.45039756572805
1712209512895,-880.2681328481995
1712209512934,-2263.3439827789553
1712209512973,-4899.133731668815
1712209513012,-5881.3902560037095
1712209513051,-5881.3902560037095
1712209513090,-5881.3902560037095
1712209513129,-5871.239619707223
1712209513168,-5290.6817687994335
1712209513207,-5290.6817687994335
1712209513246,-4899.133731668815
1712209513285,-4156.136851325631
1712209513324,-2263.3439827789553
1712209513363,-1820.8072916967794
1712209513402,-880.2681328481995
1712209513441,-880.2681328481995
1712209513480,-880.2681328481995
1712209513519,-880.2681328481995
1712209513558,-1820.8072916967794
1712209513597,-4156.136851325631
1712209513637,-4211.500975274015
1712209513677,-5290.6817687994335
1712209513717,-5515.478482908104
1712209513757,-5515.478482908104
1712209513797,-5515.478482908104
1712209513837,-5515.478482908104
1712209513877,-5515.478482908104
1712209513917,-5515.478482908104
1712209513957,-5515.478482908104
1712209513997,-5515.478482908104
1712209514037,-4211.500975274015
1712209514077,-4211.500975274015
1712209514117,-4211.500975274015
1712209514157,-4211.500975274015
1712209514197,-4211.500975274015
1712209514237,-4211.500975274015
1712209514277,-5668.468974457122
1712209514317,-8370.854556898586
1712209514357,-9259.565267728642
1712209514397,-9531.340094169602
1712209514437,-9531.340094169602
1712209514477,-9531.340094169602
1712209514517,-9531.340094169602
1712209514557,-9531.340094169602
1712209514597,-9531.340094169602
1712209514637,-9531.340094169602
1712209514677,-9259.565267728642
1712209514717,-8493.569139139261
1712209514757,-8493.569139139261
1712209514797,-8493.569139139261
1712209514837,-8493.569139139261
1712209514877,-8493.569139139261
1712209514917,-8493.569139139261
1712209514957,-8493.569139139261
1712209514997,-8493.569139139261
1712209515037,-9259.565267728642
1712209515077,-11144.970118234167
1712209515117,-11808.262679536128
1712209515157,-11808.262679536128
1712209515197,-11808.262679536128
1712209515237,-11808.262679536128
1712209515277,-11325.394771507708
1712209515317,-11144.970118234167
1712209515357,-11099.761139384704
1712209515397,-9385.63281913381
1712209515437,-8493.569139139261
1712209515477,-7042.649107533507
1712209515517,-5560.954113027081
1712209515557,-4457.010862196796
1712209515597,-4457.010862196796
1712209515637,-4457.010862196796
1712209515677,-4457.010862196796
1712209515717,-4457.010862196796
1712209515757,-4457.010862196796
1712209515797,-7042.649107533507
1712209515837,-9385.63281913381
1712209515877,-9385.63281913381
1712209515917,-9385.63281913381
1712209515957,-7900.320906731766
1712209515997,-7042.649107533507
1712209516037,-6549.722026157426
1712209516077,-6401.56345292693
1712209516117,-6251.956279629143
1712209516157,-4457.010862196796
1712209516197,-4378.372367148753
1712209516237,-2894.8929517734796
1712209516277,-2587.7160436685663
1712209516317,-2587.7160436685663
1712209516357,-2587.7160436685663
1712209516397,-2587.7160436685663
1712209516437,-2587.7160436685663
1712209516477,-2894.8929517734796
1712209516517,-4378.372367148753
1712209516557,-6251.956279629143
1712209516597,-6401.56345292693
1712209516637,-6401.56345292693
1712209516677,-6401.56345292693
1712209516717,-6401.56345292693
1712209516757,-6401.56345292693
1712209516797,-6401.56345292693
1712209516837,-6251.956279629143
1712209516877,-4541.90143995313
1712209516917,-4378.372367148753
1712209516957,-2587.7160436685663
1712209516997,-2033.0884517282248
1712209517037,-2033.0884517282248
1712209517077,-2033.0884517282248
1712209517117,-2033.0884517282248
1712209517157,-2033.0884517282248
1712209517197,-4541.90143995313
1712209517237,-6494.979578641709
1712209517277,-7582.2843969927635
1712209517317,-7582.2843969927635
1712209517357,-7582.2843969927635
1712209517397,-7582.2843969927635
1712209517437,-7582.2843969927635
1712209517477,-7582.2843969927635
1712209517517,-7582.2843969927635
1712209517557,-6494.979578641709
1712209517597,-6074.681463695364
1712209517637,-4541.90143995313
1712209517677,-3508.535167169757
1712209517717,-3508.535167169757
1712209517757,-3508.535167169757
1712209517797,-3508.535167169757
1712209517837,-3508.535167169757
1712209517877,-3508.535167169757
1712209517917,-3508.535167169757
1712209517957,-6074.681463695364
1712209517997,-7995.148357235594
1712209518037,-7995.148357235594
1712209518077,-7995.148357235594
1712209518117,-7995.148357235594
1712209518157,-7995.148357235594
1712209518197,-7079.077513695927
1712209518237,-6074.681463695364
1712209518277,-5933.516320628114
1712209518317,-4631.76799870492
1712209518357,-3508.535167169757
1712209518397,-2336.462994182948
1712209518437,-360.79512057383545
1712209518477,591.3007509994786
1712209518517,591.3007509994786
1712209518557,591.3007509994786
1712209518597,591.3007509994786
1712209518637,591.3007509994786
1712209518677,347.4599232659675
1712209518717,-2336.462994182948
1712209518757,-4631.76799870492
1712209518797,-4631.76799870492
1712209518837,-4451.758613042301
1712209518877,-3135.8721925562713
1712209518917,-2609.9882655350957
1712209518957,-2336.462994182948
1712209518997,-2180.5375004631933
1712209519037,-1335.2825185719412
1712209519077,-72.46036956924945
1712209519117,347.4599232659675
1712209519157,591.3007509994786
1712209519197,2441.8565241096076
1712209519237,2441.8565241096076
1712209519277,2441.8565241096076
1712209519317,2441.8565241096076
1712209519357,2441.8565241096076
1712209519397,347.4599232659675
1712209519437,-72.46036956924945
1712209519477,-658.6543400776573
1712209519517,-1335.2825185719412
1712209519557,-1335.2825185719412
1712209519597,-658.6543400776573
1712209519637,-72.46036956924945
1712209519677,77.69546150765382
1712209519717,790.0336286569946
1712209519757,1037.55953786592
1712209519797,2035.665378626436
1712209519837,2441.8565241096076
1712209519877,3721.737101961393
1712209519917,5194.111422769958
1712209519957,5958.48627133714
1712209519997,5958.48627133714
1712209520037,5958.48627133714
1712209520077,5958.48627133714
1712209520117,3721.737101961393
1712209520157,2035.665378626436
1712209520197,1037.55953786592
1712209520237,1037.55953786592
1712209520277,1037.55953786592
1712209520317,1037.55953786592
1712209520357,1037.55953786592
1712209520397,1037.55953786592
1712209520437,1037.55953786592
1712209520477,1037.55953786592
1712209520517,182.4428370266687
1712209520557,182.4428370266687
1712209520597,182.4428370266687
1712209520637,182.4428370266687
1712209520677,182.4428370266687
1712209520717,182.4428370266687
1712209520757,182.4428370266687
1712209520797,182.4428370266687
1712209520837,-845.7635394781828
1712209520877,-2125.92968633119
1712209520917,-3394.546845544828
1712209520957,-4061.2279985039495
1712209520997,-4061.2279985039495
1712209521037,-4061.2279985039495
1712209521077,-4061.2279985039495
1712209521117,-4061.2279985039495
1712209521157,-4061.2279985039495
1712209521197,-4061.2279985039495
1712209521237,-3394.546845544828
1712209521277,-2125.92968633119
1712209521317,-1437.485320316162
1712209521357,-1437.485320316162
1712209521397,-1437.485320316162
1712209521437,-1437.485320316162
1712209521477,-1437.485320316162
1712209521517,-1437.485320316162
1712209521557,-4311.014322363306
1712209521597,-6033.894329264294
1712209521637,-7538.303204715252
1712209521677,-7538.303204715252
1712209521717,-7538.303204715252
1712209521757,-6831.716345665511
1712209521797,-6304.95398933813
1712209521837,-6033.894329264294
1712209521877,-5807.257792503107
1712209521917,-4755.748338757083
1712209521957,-4311.014322363306
1712209521997,-2733.462576485472
1712209522037,-1437.485320316162
1712209522077,-401.59931957465596
1712209522117,-401.59931957465596
1712209522157,-401.59931957465596
1712209522197,-1210.608147916384
1712209522237,-2733.462576485472
1712209522277,-4755.748338757083
1712209522317,-5807.257792503107
1712209522357,-6304.95398933813
1712209522397,-6304.95398933813
1712209522437,-6052.307240598369
1712209522477,-5807.257792503107
1712209522517,-5474.002497783396
1712209522557,-4903.874868222978
1712209522597,-4755.748338757083
1712209522637,-3500.23044780246
1712209522677,-2733.462576485472
1712209522717,-1210.608147916384
1712209522757,-1042.3390296483412
1712209522797,-1042.3390296483412
1712209522837,-1042.3390296483412
1712209522877,-1042.3390296483412
1712209522917,-1210.608147916384
1712209522957,-3500.23044780246
1712209522997,-4903.874868222978
1712209523037,-5474.002497783396
1712209523077,-5474.002497783396
1712209523117,-5474.002497783396
1712209523157,-5474.002497783396
1712209523197,-5474.002497783396
1712209523237,-5474.002497783396
1712209523277,-5474.002497783396
1712209523317,-6215.238562353421
1712209523357,-6215.238562353421
1712209523397,-6215.238562353421
1712209523437,-6215.238562353421
1712209523477,-6215.238562353421
1712209523517,-6215.238562353421
1712209523557,-6215.238562353421
1712209523597,-6215.238562353421
1712209523637,-7508.1402793051675
1712209523677,-8528.602241018787
1712209523717,-10110.88620752655
1712209523757,-11041.839153981302
1712209523797,-11041.839153981302
1712209523837,-11041.839153981302
1712209523877,-11041.839153981302
1712209523917,-11041.839153981302
1712209523957,-11041.839153981302
1712209523997,-10110.88620752655
1712209524037,-9935.70467492519
1712209524077,-8528.602241018787
1712209524117,-6889.640713393688
1712209524157,-6889.640713393688
1712209524197,-6889.640713393688
1712209524237,-6889.640713393688
1712209524277,-6889.640713393688
1712209524317,-6889.640713393688
1712209524357,-6889.640713393688
1712209524397,-9935.70467492519
1712209524437,-10540.052784027997
1712209524477,-10540.052784027997
1712209524517,-10540.052784027997
1712209524557,-10540.052784027997
1712209524597,-10540.052784027997
1712209524637,-9944.35260679666
1712209524677,-9935.70467492519
1712209524717,-9283.859462953173
1712209524757,-8012.806537582539
1712209524797,-6889.640713393688
1712209524837,-6056.915740515105
1712209524879,-4054.674959642347
1712209524919,-3381.2800509878434
1712209524959,-3381.2800509878434
1712209524999,-3381.2800509878434
1712209525039,-3381.2800509878434
1712209525079,-6056.915740515105
1712209525120,-6748.261712417705
1712209525159,-8012.806537582539
1712209525199,-9283.859462953173
1712209525240,-9283.859462953173
1712209525280,-9283.859462953173
1712209525320,-8738.830700619845
1712209525360,-8204.69022370316
1712209525400,-8012.806537582539
1712209525440,-7313.100179200526
1712209525480,-6748.261712417705
1712209525521,-6056.915740515105
1712209525560,-5641.905237826053
1712209525601,-3381.2800509878434
1712209525640,-3270.094338113442
1712209525681,-3270.094338113442
1712209525721,-3270.094338113442
1712209525761,-3270.094338113442
1712209525801,-3270.094338113442
1712209525841,-5641.905237826053
1712209525881,-6748.261712417705
1712209525922,-7313.100179200526
1712209525961,-7313.100179200526
1712209526001,-7313.100179200526
1712209526041,-7313.100179200526
1712209526082,-7313.100179200526
1712209526122,-7313.100179200526
1712209526162,-7219.778668082552
1712209526202,-5641.905237826053
1712209526242,-4855.429112569895
1712209526282,-3270.094338113442
1712209526323,-1939.6448121427093
1712209526362,-1939.6448121427093
1712209526402,-1939.6448121427093
