Timestamp,Cleaned PPG
1710999848152,0.0
1710999848192,0.0
1710999848233,0.0
1710999848273,0.0
1710999848313,0.0
1710999848353,0.0
1710999848393,0.0
1710999848434,0.0
1710999848473,0.0
1710999848514,0.0
1710999848554,0.0
1710999848594,0.0
1710999848635,0.0
1710999848674,0.0
1710999848714,0.0
1710999848754,0.0
1710999848794,0.0
1710999848835,0.0
1710999848875,0.0
1710999848915,0.0
1710999848955,0.0
1710999848995,0.0
1710999849036,0.0
1710999849075,0.0
1710999849115,0.0
1710999849155,0.0
1710999849195,0.0
1710999849237,0.0
1710999849278,0.0
1710999849316,0.0
1710999849356,0.0
1710999849396,0.0
1710999849437,1123042.7803689425
1710999849476,1123042.7803689425
1710999849516,1123042.7803689425
1710999849556,1123042.7803689425
1710999849597,1123042.7803689425
1710999849638,1123042.7803689425
1710999849677,1123042.7803689425
1710999849717,1123042.7803689425
1710999849757,1123042.7803689425
1710999849797,1123042.7803689425
1710999849838,1123042.7803689425
1710999849877,1054114.8414127114
1710999849918,989587.5966329463
1710999849958,929272.4155739818
1710999849998,872442.7304781803
1710999850039,819145.3136015171
1710999850078,768888.8778888269
1710999850118,720399.8051718376
1710999850158,675361.5659054811
1710999850199,633891.2327146339
1710999850239,594535.670856433
1710999850279,557974.765596716
1710999850319,522905.9086249657
1710999850359,489712.95472410927
1710999850399,460339.806578184
1710999850440,433152.5412962609
1710999850479,409801.91989258304
1710999850520,388284.6641353897
1710999850560,364941.3091930705
1710999850600,341503.35258841
1710999850641,316775.96839658543
1710999850680,293145.8979323299
1710999850720,270895.779579598
1710999850760,250565.71671448555
1710999850801,232840.3083357322
1710999850842,218515.28905570437
1710999850881,207820.56657557585
1710999850921,199594.98162968946
1710999850961,192050.65428988962
1710999851001,183471.3886437011
1710999851042,173905.42259179242
1710999851081,164744.62693455257
1710999851122,153615.77064871904
1710999851162,142536.47454300057
1710999851202,132058.0521843508
1710999851243,122267.01030088472
1710999851282,115202.0441564424
1710999851322,109083.35214315215
1710999851362,104401.95249229087
1710999851403,100305.41320894076
1710999851443,95673.18735430622
1710999851485,89735.38474912499
1710999851523,84066.45546517381
1710999851563,77831.04847551999
1710999851603,73057.30306794075
1710999851644,69273.85315277055
1710999851683,66903.37176975724
1710999851724,64424.15015649609
1710999851764,61220.05240008794
1710999851804,58332.506521611474
1710999851845,52945.57267194358
1710999851884,47364.86614924064
1710999851924,43634.75193209038
1710999851964,40452.60248938133
1710999852005,39044.78777502407
1710999852046,37849.20603044005
1710999852085,35401.08051959565
1710999852125,31551.258523643017
1710999852165,28641.571567060426
1710999852205,25799.65150770638
1710999852246,23027.101074272767
1710999852285,21559.16937160585
1710999852326,21030.1253183987
1710999852366,20796.791197870858
1710999852406,20676.28305131104
1710999852447,20000.165762898512
1710999852486,19264.996894218493
1710999852526,19162.75809003366
1710999852566,18173.295204316266
1710999852607,17958.25805088505
1710999852648,15477.742411741056
1710999852687,14426.47097624233
1710999852727,14023.895812114235
1710999852767,13997.653589629568
1710999852807,13853.613363015465
1710999852848,13504.522927305661
1710999852887,13113.222766353283
1710999852927,12908.70999795245
1710999852967,12250.965767391492
1710999853007,12249.621953630354
1710999853048,12119.623454877641
1710999853088,10427.094210837968
1710999853128,10427.094210837968
1710999853168,10427.094210837968
1710999853208,10427.094210837968
1710999853249,10427.094210837968
1710999853288,10360.061347535811
1710999853328,10360.061347535811
1710999853368,10320.492263858207
1710999853408,10186.410235568881
1710999853450,9891.292157345917
1710999853489,9891.292157345917
1710999853529,10186.410235568881
1710999853569,10320.492263858207
1710999853609,10360.061347535811
1710999853650,10427.094210837968
1710999853689,10672.418576231692
1710999853729,10777.57141298661
1710999853769,10850.635221828707
1710999853809,10906.292199366726
1710999853850,11049.978601329029
1710999853889,11392.808642409276
1710999853930,15294.654474755283
1710999853970,15294.654474755283
1710999854010,15294.654474755283
1710999854051,15294.654474755283
1710999854090,15294.654474755283
1710999854130,15294.654474755283
1710999854170,15294.654474755283
1710999854210,15294.654474755283
1710999854251,15294.654474755283
1710999854291,15294.654474755283
1710999854331,15294.654474755283
1710999854371,11577.858916451223
1710999854411,-9334.7596060629
1710999854452,-24442.189581862185
1710999854491,-33513.48787035514
1710999854531,-33859.92349331314
1710999854571,-34245.26688047219
1710999854611,-34494.06774941692
1710999854653,-34906.31643391587
1710999854691,-35273.34427187126
1710999854732,-35585.38131815195
1710999854772,-35954.54329864308
1710999854812,-36069.00004774146
1710999854853,-36352.218354081735
1710999854892,-36758.51446262747
1710999854932,-37083.96425901726
1710999854972,-37083.96425901726
1710999855012,-37083.96425901726
1710999855053,-37300.47495321836
1710999855093,-38037.80078169983
1710999855133,-38805.914202592336
1710999855173,-39184.56952975225
1710999855213,-39184.56952975225
1710999855254,-39184.56952975225
1710999855293,-39184.56952975225
1710999855333,-39184.56952975225
1710999855374,-39184.56952975225
1710999855414,-39184.56952975225
1710999855454,-39184.56952975225
1710999855494,-39184.56952975225
1710999855534,-39184.56952975225
1710999855574,-39184.56952975225
1710999855614,-30000.748164489865
1710999855655,-11272.073725824244
1710999855694,3906.9635626529343
1710999855735,13671.31596355699
1710999855775,21175.699860413093
1710999855815,21982.036845409777
1710999855856,22996.909684801474
1710999855895,23344.077423942275
1710999855935,23429.737799111754
1710999855976,24020.315328763798
1710999856016,29252.671807661653
1710999856056,34378.75995934941
1710999856096,34378.75995934941
1710999856136,34378.75995934941
1710999856176,34378.75995934941
1710999856216,34378.75995934941
1710999856257,34378.75995934941
1710999856296,34378.75995934941
1710999856337,34378.75995934941
1710999856377,34378.75995934941
1710999856417,34378.75995934941
1710999856458,34378.75995934941
1710999856497,33655.53805768024
1710999856537,29965.759198277257
1710999856578,29733.989121687133
1710999856617,24590.384031869005
1710999856658,16410.264415626414
1710999856698,7634.972524557263
1710999856738,3290.1345740654506
1710999856778,2539.7565308902413
1710999856818,2539.7565308902413
1710999856859,2539.7565308902413
1710999856898,2539.7565308902413
1710999856939,1550.14690485131
1710999856979,837.4379945481196
1710999857019,535.0047083385289
1710999857060,-41.94415534520522
1710999857099,-1453.5986941549927
1710999857139,-6780.898459733464
1710999857180,-7567.877463449724
1710999857220,-7567.877463449724
1710999857260,-7567.877463449724
1710999857300,-7567.877463449724
1710999857340,-6780.898459733464
1710999857380,-5816.738459541462
1710999857420,-5816.738459541462
1710999857461,-7567.877463449724
1710999857501,-10728.133609664626
1710999857541,-12157.398845469113
1710999857581,-12157.398845469113
1710999857621,-12157.398845469113
1710999857662,-12157.398845469113
1710999857701,-12157.398845469113
1710999857741,-12157.398845469113
1710999857782,-12157.398845469113
1710999857822,-12157.398845469113
1710999857863,-12157.398845469113
1710999857902,-5816.738459541462
1710999857942,-4543.142024565488
1710999857982,-4543.142024565488
1710999858023,-4543.142024565488
1710999858063,-4543.142024565488
1710999858103,-4543.142024565488
1710999858143,-4543.142024565488
1710999858183,-5036.645769639872
1710999858223,-5036.645769639872
1710999858264,-5036.645769639872
1710999858304,-4013.0147695690393
1710999858344,-3739.2191354213282
1710999858384,-3127.421145960223
1710999858424,-1531.535874478519
1710999858465,-1531.535874478519
1710999858505,-1531.535874478519
1710999858545,-1531.535874478519
1710999858585,-1531.535874478519
1710999858625,-1531.535874478519
1710999858666,-1531.535874478519
1710999858705,-1531.535874478519
1710999858745,3430.299641670659
1710999858785,6818.241337431595
1710999858825,8032.244584781583
1710999858866,10189.151324340142
1710999858906,13795.875514585292
1710999858946,23071.99869008595
1710999858986,23960.29609773308
1710999859026,24842.606646274682
1710999859067,28901.811663083266
1710999859106,29493.092160088476
1710999859146,38783.35999755561
1710999859186,39763.3250128231
1710999859227,39770.624426136725
1710999859267,40533.07665125164
1710999859307,40533.07665125164
1710999859347,40533.07665125164
1710999859387,40533.07665125164
1710999859427,40533.07665125164
1710999859468,40533.07665125164
1710999859507,39770.624426136725
1710999859547,32235.31552937487
1710999859588,29493.092160088476
1710999859628,24842.606646274682
1710999859669,23960.29609773308
1710999859708,23071.99869008595
1710999859748,15462.09017779585
1710999859788,-8407.976091133896
1710999859828,-22962.307768763974
1710999859869,-44029.36748869205
1710999859908,-64280.451143821236
1710999859949,-81603.93918481283
1710999859989,-91487.8596700374
1710999860029,-97232.27523966227
1710999860070,-97232.27523966227
1710999860109,-97232.27523966227
1710999860149,-97232.27523966227
1710999860193,-97232.27523966227
1710999860233,-97232.27523966227
1710999860274,-97232.27523966227
1710999860314,-97232.27523966227
1710999860354,-97232.27523966227
1710999860394,-101365.76953333803
1710999860434,-103895.35248022992
1710999860475,-107245.87666535936
1710999860514,-108566.47267908696
1710999860554,-111080.78729127906
1710999860594,-108566.47267908696
1710999860634,-103895.35248022992
1710999860675,-99966.38584630028
1710999860714,-92928.6875097435
1710999860755,-87324.97963521583
1710999860795,-82999.66908436501
1710999860835,-79603.78378113825
1710999860876,-72113.95019093528
1710999860915,-69553.35207465012
1710999860955,-60993.00068099843
1710999860995,-60993.00068099843
1710999861036,-60993.00068099843
1710999861076,-58566.40479194699
1710999861116,-39390.52334673051
1710999861156,-26138.991341812536
1710999861196,-14820.92285791412
1710999861236,-14820.92285791412
1710999861277,-14820.92285791412
1710999861316,-14820.92285791412
1710999861356,-14820.92285791412
1710999861397,-14820.92285791412
1710999861437,-14820.92285791412
1710999861478,-14820.92285791412
1710999861517,-14820.92285791412
1710999861557,-14820.92285791412
1710999861597,-14820.92285791412
1710999861637,-16710.078004918527
1710999861678,-23158.271574458806
1710999861717,-29643.139646737836
1710999861758,-35564.686297413195
1710999861798,-45037.98314751382
1710999861838,-53984.773846860975
1710999861879,-63367.86740049953
1710999861918,-72695.07869567303
1710999861958,-81864.5212686921
1710999861998,-88224.55912438594
1710999862038,-89386.66084477119
1710999862079,-92388.11737855268
1710999862119,-102489.80214905739
1710999862159,-112528.46857766248
1710999862199,-120291.23509405972
1710999862239,-124618.7401436565
1710999862280,-124618.7401436565
1710999862319,-124618.7401436565
1710999862359,-124618.7401436565
1710999862400,-124618.7401436565
1710999862440,-124653.7072001989
1710999862481,-127794.10383110028
1710999862520,-129834.28693714924
1710999862560,-129930.23913866212
1710999862600,-131158.72177780047
1710999862640,-132821.1487012664
1710999862681,-132821.1487012664
1710999862721,-132821.1487012664
1710999862761,-132821.1487012664
1710999862801,-131158.72177780047
1710999862841,-129834.28693714924
1710999862882,-129556.67860700283
1710999862921,-124738.37258423073
1710999862961,-124653.7072001989
1710999863001,-122574.87205004971
1710999863042,-122231.87330992939
1710999863082,-122137.0593122486
1710999863122,-122137.0593122486
1710999863162,-122137.0593122486
1710999863202,-122137.0593122486
1710999863242,-122137.0593122486
1710999863283,-119163.01976285642
1710999863323,-112032.55170885473
1710999863363,-100916.44501090655
1710999863403,-98433.44604346901
1710999863443,-97361.83300281223
1710999863484,-93722.9390695002
1710999863523,-92861.50646676379
1710999863563,-89846.70284600463
1710999863604,-86703.94917543698
1710999863644,-83716.18308696849
1710999863685,-80295.67259750236
1710999863724,-80111.4290295241
1710999863764,-77695.3077104222
1710999863804,-76131.21989814751
1710999863844,-73777.46684333915
1710999863885,-73222.26363357948
1710999863925,-73222.26363357948
1710999863965,-70013.75242693676
1710999864005,-65542.55978393648
1710999864045,-64608.27758415509
1710999864086,-63931.85146708647
1710999864125,-63205.36071725981
1710999864166,-61056.79320962122
1710999864206,-57565.27263256558
1710999864246,-57554.56312973425
1710999864287,-56151.47529336205
1710999864326,-49985.56660227757
1710999864366,-48449.98948340677
1710999864407,-47065.21236709715
1710999864447,-44948.24261791585
1710999864487,-44948.24261791585
1710999864527,-44948.24261791585
1710999864567,-46175.55150384945
1710999864607,-46175.55150384945
1710999864647,-44948.24261791585
1710999864688,-42082.22963797604
1710999864727,-41858.835556379054
1710999864768,-39565.8465372643
1710999864807,-39393.90672531817
1710999864848,-39259.85201545106
1710999864888,-39116.53789326688
1710999864928,-38712.77085720119
1710999864968,-38470.68672418408
1710999865008,-38470.68672418408
1710999865048,-38470.68672418408
1710999865089,-37722.72631243477
1710999865128,-37722.72631243477
1710999865168,-37722.72631243477
1710999865209,-38712.77085720119
1710999865249,-38712.77085720119
1710999865289,-38712.77085720119
1710999865329,-38712.77085720119
1710999865369,-38712.77085720119
1710999865409,-38712.77085720119
1710999865449,-38712.77085720119
1710999865490,-37812.68657926773
1710999865529,-37722.72631243477
1710999865569,-37264.46270931279
1710999865610,-37264.46270931279
1710999865649,-37264.46270931279
1710999865690,-37264.46270931279
1710999865730,-37264.46270931279
1710999865770,-37264.46270931279
1710999865810,-37264.46270931279
1710999865850,-37264.46270931279
1710999865891,-37264.46270931279
1710999865930,-24593.466033751843
1710999865970,-12767.381649391493
1710999866010,2464.359396391548
1710999866051,18764.039564453764
1710999866092,21764.253544092644
1710999866131,22643.39265084872
1710999866171,23661.64686959423
1710999866211,26438.84132651752
1710999866251,27798.472006957512
1710999866292,28290.688940318767
1710999866331,28290.688940318767
1710999866371,28290.688940318767
1710999866411,28290.688940318767
1710999866452,28290.688940318767
1710999866492,28290.688940318767
1710999866532,27798.472006957512
1710999866572,26438.84132651752
1710999866612,26438.84132651752
1710999866652,26438.84132651752
1710999866693,26438.84132651752
1710999866732,26414.777896468062
1710999866773,19423.174156229943
1710999866813,17444.794908180833
1710999866853,15716.678685147781
1710999866894,13646.989971613279
1710999866933,8189.505048936233
1710999866973,-7576.3694167668
1710999867013,-18818.535219466314
1710999867053,-18818.535219466314
1710999867094,-18818.535219466314
1710999867133,-18818.535219466314
1710999867174,-18818.535219466314
1710999867214,-18818.535219466314
1710999867254,-18818.535219466314
1710999867295,-18818.535219466314
1710999867334,-18818.535219466314
1710999867374,-18818.535219466314
1710999867414,-18818.535219466314
1710999867454,-15050.73128478229
1710999867495,4189.053585070418
1710999867535,15252.727877415018
1710999867575,24172.13264162466
1710999867615,36119.356139395386
1710999867655,44588.61449466576
1710999867696,54278.04924739548
1710999867735,62196.20005434193
1710999867775,62295.17135840352
1710999867815,63143.23517970857
1710999867855,65427.11591920396
1710999867896,67940.7106416612
1710999867936,68943.6629654998
1710999867976,71238.879290852
1710999868016,74004.14273644262
1710999868056,75605.39575908892
1710999868097,76582.82589224796
1710999868137,79373.12137408485
1710999868176,83701.5496024643
1710999868217,85187.41768279253
1710999868257,85565.32364926813
1710999868298,85565.32364926813
1710999868337,86699.5547499475
1710999868377,88067.37797075044
1710999868417,89860.99444621848
1710999868457,89860.99444621848
1710999868498,89860.99444621848
1710999868538,89860.99444621848
1710999868578,89860.99444621848
1710999868618,89860.99444621848
1710999868658,89860.99444621848
1710999868699,89860.99444621848
1710999868738,89860.99444621848
1710999868778,89860.99444621848
1710999868818,88067.37797075044
1710999868859,87242.22182826279
1710999868900,82118.85618630121
1710999868939,78427.51419290574
1710999868979,74998.02493909467
1710999869019,72535.3313434557
1710999869059,69414.17102344427
1710999869100,67808.21076660976
1710999869140,61332.10164815979
1710999869180,60011.59412090061
1710999869220,53268.10071051051
1710999869260,46949.21691526729
1710999869301,41971.65649436973
1710999869341,40016.39235463622
1710999869381,40016.39235463622
1710999869421,40016.39235463622
1710999869461,40016.39235463622
1710999869502,40016.39235463622
1710999869541,44518.27659191447
1710999869581,46420.419618066866
1710999869621,46949.21691526729
1710999869662,56337.200883796206
1710999869703,60011.59412090061
1710999869742,60670.19109636871
1710999869782,60011.59412090061
1710999869822,56337.200883796206
1710999869862,55453.813641772605
1710999869903,47405.181384800235
1710999869943,46949.21691526729
1710999869983,46420.419618066866
1710999870023,46420.419618066866
1710999870063,46420.419618066866
1710999870104,46420.419618066866
1710999870143,46420.419618066866
1710999870184,46420.419618066866
1710999870224,46420.419618066866
1710999870264,37054.78391254577
1710999870305,25022.76749079954
1710999870344,15095.655325756175
1710999870384,14847.8756894283
1710999870425,13407.86944098305
1710999870465,12719.870231993962
1710999870506,12719.870231993962
1710999870545,11306.157869883347
1710999870585,8451.615823851898
1710999870625,8316.176816714229
1710999870665,7976.0891262302175
1710999870706,7512.646773362532
1710999870746,6911.10307049728
1710999870786,6623.75883373688
1710999870826,4780.787505945656
1710999870866,4780.787505945656
1710999870907,4303.030725331977
1710999870946,3982.829120911425
1710999870986,3827.019206023775
1710999871026,869.8014008866157
1710999871066,-1766.5277508785948
1710999871107,-7952.859321243595
1710999871147,-7952.859321243595
1710999871187,-7952.859321243595
1710999871227,-7952.859321243595
1710999871267,-7952.859321243595
1710999871308,-7952.859321243595
1710999871347,-7952.859321243595
1710999871387,-8523.867597687291
1710999871427,-10855.246213686187
1710999871467,-12454.773200768512
1710999871508,-13144.216928818729
1710999871548,-14162.593744019046
1710999871588,-14601.174684146885
1710999871628,-15087.411105656764
1710999871668,-15087.411105656764
1710999871709,-15195.549973397516
1710999871748,-15235.396073769312
1710999871788,-14656.110897320788
1710999871828,-14656.110897320788
1710999871868,-14656.110897320788
1710999871909,-14656.110897320788
1710999871948,-14656.110897320788
1710999871989,-14656.110897320788
1710999872029,-14656.110897320788
1710999872069,-14656.110897320788
1710999872110,-14656.110897320788
1710999872149,-14656.110897320788
1710999872189,-14656.110897320788
1710999872229,-10775.706243195571
1710999872269,-10552.95380868134
1710999872310,-9912.458809366915
1710999872350,-9912.458809366915
1710999872390,-9912.458809366915
1710999872430,-9912.458809366915
1710999872470,-9912.458809366915
1710999872511,-9718.963879160816
1710999872550,-8663.120894602034
1710999872590,-8568.42154287966
1710999872630,-7586.764297296992
1710999872670,-6769.8441630858
1710999872711,-8568.42154287966
1710999872751,-8663.120894602034
1710999872791,-9718.963879160816
1710999872831,-9912.458809366915
1710999872871,-10552.95380868134
1710999872912,-10775.706243195571
1710999872951,-10775.706243195571
1710999872992,-10775.706243195571
1710999873032,-10552.95380868134
1710999873072,-9718.963879160816
1710999873112,-9718.963879160816
1710999873152,-9718.963879160816
1710999873192,-8719.338122435845
1710999873232,-6601.826395738404
1710999873272,-4264.152321116999
1710999873313,-754.7632256560028
1710999873353,3987.977593372576
1710999873393,7532.260728387395
1710999873433,7532.260728387395
1710999873473,7532.260728387395
1710999873514,7532.260728387395
1710999873553,7532.260728387395
1710999873593,7532.260728387395
1710999873633,9970.237769941334
1710999873674,10776.76114049158
1710999873714,15002.718413256807
1710999873754,19521.107764699496
1710999873794,21505.119805887574
1710999873834,21749.546479193494
1710999873874,21945.54486508551
1710999873915,22263.765322101768
1710999873954,22263.765322101768
1710999873994,23804.430987346685
1710999874035,23945.89830686082
1710999874075,24928.377624549437
1710999874115,49387.639414503705
1710999874155,53656.590739456704
1710999874195,75742.42219719663
1710999874235,77748.78498604894
1710999874275,78086.09750782186
1710999874316,81254.56323306728
1710999874355,88351.38623393071
1710999874396,121036.72678789217
1710999874436,121036.72678789217
1710999874476,121036.72678789217
1710999874517,121036.72678789217
1710999874556,121036.72678789217
1710999874596,121036.72678789217
1710999874637,121036.72678789217
1710999874677,121036.72678789217
1710999874717,121036.72678789217
1710999874757,121036.72678789217
1710999874797,121036.72678789217
1710999874837,114974.37803406408
1710999874877,109351.48721499788
1710999874918,103196.23040142073
1710999874957,99362.60207232996
1710999874998,98918.51705908123
1710999875038,96821.44795400463
1710999875078,94616.31696396088
1710999875119,90928.59853405925
1710999875158,89820.19224520493
1710999875198,89152.96135886735
1710999875239,88266.65278825234
1710999875279,86678.90506866807
1710999875319,62657.555127240485
1710999875359,56978.19735805667
1710999875399,46871.90184578113
1710999875439,44971.669913058635
1710999875479,36703.67676098202
1710999875520,36703.67676098202
1710999875560,36703.67676098202
1710999875600,34142.51559593715
1710999875640,33990.873085223604
1710999875680,33754.880512234755
1710999875721,32266.1541456033
1710999875760,32185.747288635
1710999875800,30690.516330894316
1710999875841,30597.557817107532
1710999875881,30597.557817107532
1710999875922,30597.557817107532
1710999875961,30597.557817107532
1710999876001,30597.557817107532
1710999876041,30597.557817107532
1710999876082,29013.245362637565
1710999876122,28378.840545427985
1710999876162,28101.271117531927
1710999876202,28101.271117531927
1710999876242,28101.271117531927
1710999876282,28101.271117531927
1710999876323,28101.271117531927
1710999876362,28101.271117531927
1710999876403,28101.271117531927
1710999876443,28101.271117531927
1710999876483,28101.271117531927
1710999876524,27982.48987151729
1710999876563,26906.777036275016
1710999876603,26906.777036275016
1710999876643,26906.777036275016
1710999876684,34713.09292982472
1710999876724,37384.778073775815
1710999876764,37384.778073775815
1710999876804,37384.778073775815
1710999876844,37384.778073775815
1710999876884,37384.778073775815
1710999876925,37384.778073775815
1710999876964,37384.778073775815
1710999877004,37384.778073775815
1710999877044,37379.780425702455
1710999877084,34713.09292982472
1710999877125,34580.754349168856
1710999877165,33617.277011892525
1710999877205,32592.52916828287
1710999877245,31600.296200020937
1710999877285,30810.165759646567
1710999877326,29948.686620107852
1710999877365,29948.686620107852
1710999877405,29948.686620107852
1710999877445,28175.630670870887
1710999877485,26911.816123029916
1710999877526,25924.324198602466
1710999877565,24096.08932548249
1710999877606,23344.348020676523
1710999877646,21996.443281212123
1710999877686,21648.136915173847
1710999877727,20849.08881152142
1710999877766,20565.414402102353
1710999877806,20223.083565790905
1710999877846,19513.443759438116
1710999877886,19065.209329559933
1710999877927,18740.58691261965
1710999877966,18118.127139705233
1710999878007,17263.03154851729
1710999878047,16677.679371620296
1710999878087,16292.684786496218
1710999878128,15939.170340148266
1710999878167,15083.417962868232
1710999878207,14916.112858768785
1710999878247,14000.8432232833
1710999878287,13858.031268093502
1710999878328,13775.896958212834
1710999878368,13740.076138346922
1710999878408,13515.271105444059
1710999878448,13328.19944412075
1710999878488,12754.073505186476
1710999878529,11542.131209365092
1710999878568,11284.001124802977
1710999878608,10960.344821250532
1710999878648,10779.427544301376
1710999878689,10670.48917369591
1710999878730,10499.482101435307
1710999878769,10397.03018508479
1710999878809,10318.794640537817
1710999878849,10261.155260845087
1710999878889,10261.155260845087
1710999878930,10261.155260845087
1710999878970,10261.155260845087
1710999879010,10261.155260845087
1710999879050,10318.794640537817
1710999879090,10357.32145931013
1710999879131,10397.03018508479
1710999879170,10397.03018508479
1710999879210,10357.32145931013
1710999879250,10357.32145931013
1710999879290,10229.963335399516
1710999879331,10200.578551804647
1710999879371,10072.939650165383
1710999879411,9854.417034743354
1710999879451,9834.059884519782
1710999879491,9854.417034743354
1710999879532,10072.939650165383
1710999879571,10072.939650165383
1710999879612,10072.939650165383
1710999879652,10072.939650165383
1710999879692,10072.939650165383
1710999879733,9854.417034743354
1710999879772,9559.767283579335
1710999879812,9505.87496850174
1710999879852,9464.979595317971
1710999879893,9385.48882603366
1710999879934,9009.768220443279
1710999879973,9005.132692830637
1710999880013,8803.7480755914
1710999880053,8741.826062983833
1710999880093,8702.547738466412
1710999880134,8599.813573735766
1710999880174,8590.56769319158
1710999880214,8508.062118609436
1710999880254,8399.236776617356
1710999880294,8296.21230990626
1710999880335,8294.36102903448
1710999880374,8235.56492589973
1710999880414,8218.368563956581
1710999880454,7845.828379529063
1710999880495,7625.45714789303
1710999880536,7020.495518400334
1710999880575,6965.830624515191
1710999880615,6746.591957246885
1710999880655,6641.436906697229
1710999880695,6297.244620023295
1710999880736,6142.095524335746
1710999880776,5170.116860971786
1710999880816,5101.627167477272
1710999880856,4813.747452264652
1710999880896,4756.221669528633
1710999880937,4134.501396777574
1710999880976,4127.332101756241
1710999881017,4127.332101756241
1710999881057,4097.438520803582
1710999881097,4091.883395003155
1710999881138,3938.8754165722057
1710999881177,3916.6944793812
1710999881217,3896.936140751466
1710999881258,3867.783324912656
1710999881298,3837.171764849685
1710999881338,3555.3137948769145
1710999881378,3409.977085115388
1710999881418,3267.6673228931613
1710999881458,3156.540522230789
1710999881498,2922.621627920307
1710999881539,2919.14859124925
1710999881579,2616.1581404772587
1710999881619,2504.348628628999
1710999881659,2415.1025605294853
1710999881699,1903.2145116971806
1710999881740,1361.7393861906603
1710999881779,1077.467636950314
1710999881820,984.5555756473914
1710999881860,395.9288824023679
1710999881900,-183.62483602110296
1710999881941,-944.3506226409227
1710999881980,-1361.8001321461052
1710999882020,-2464.1786877410486
1710999882061,-2938.310747837648
1710999882101,-3424.4863886046223
1710999882142,-3874.081600865349
1710999882181,-4331.361062367447
1710999882221,-4957.264931825455
1710999882261,-5188.24581018649
1710999882301,-5222.847169348504
1710999882342,-5448.45426277956
1710999882382,-5517.043796138372
1710999882422,-5696.755069571082
1710999882462,-6001.393776786514
1710999882502,-6035.671987480484
1710999882543,-6109.126678934321
1710999882582,-6194.17021690961
1710999882622,-6444.847944000736
1710999882662,-7691.100688015576
1710999882703,-8782.506655072793
1710999882743,-8782.506655072793
1710999882783,-8782.506655072793
1710999882823,-8782.506655072793
1710999882863,-8782.506655072793
1710999882903,-8782.506655072793
1710999882944,-8782.506655072793
1710999882983,-8782.506655072793
1710999883023,-8782.506655072793
1710999883064,-8782.506655072793
1710999883104,-8782.506655072793
1710999883144,-8761.61254190607
1710999883184,-8555.960125996266
1710999883224,-7774.960635907482
1710999883264,-7334.673075266648
1710999883304,-7185.270596506074
1710999883345,-7113.389921686612
1710999883384,-6758.940400032792
1710999883425,-6655.479781417642
1710999883465,-6595.930782809854
1710999883505,-6485.771487140097
1710999883546,-6299.611022152472
1710999883585,-6057.451190587599
1710999883625,-6014.73108306108
1710999883665,-5737.5579645279795
1710999883705,-5637.547222300433
1710999883746,-5392.669644485228
1710999883785,-5392.669644485228
1710999883825,-5392.669644485228
1710999883866,-5392.669644485228
1710999883906,-5637.547222300433
1710999883946,-5637.547222300433
1710999883986,-5637.547222300433
1710999884026,-5637.547222300433
1710999884066,-5637.547222300433
1710999884106,-5637.547222300433
1710999884147,-5637.547222300433
1710999884186,-5637.547222300433
1710999884226,-5637.547222300433
1710999884267,-5637.547222300433
1710999884307,-5739.835522898473
1710999884347,-5739.835522898473
1710999884387,-5739.835522898473
1710999884427,-5739.835522898473
1710999884467,-5739.835522898473
1710999884507,-5739.835522898473
1710999884548,-5739.835522898473
1710999884587,-5739.835522898473
1710999884628,-5739.835522898473
1710999884668,-5824.974754942581
1710999884708,-5880.657053887844
1710999884749,-5880.657053887844
1710999884788,-5880.657053887844
1710999884828,-5880.657053887844
1710999884868,-5880.657053887844
1710999884908,-5880.657053887844
1710999884949,-5880.657053887844
1710999884989,-5880.657053887844
1710999885029,-5880.657053887844
1710999885069,-7254.423860013485
1710999885109,-7254.423860013485
1710999885150,-7254.423860013485
1710999885189,-7254.423860013485
1710999885229,-7254.423860013485
1710999885270,-7254.423860013485
1710999885310,-7254.423860013485
1710999885351,-7254.423860013485
1710999885390,-7254.423860013485
1710999885430,-7254.423860013485
1710999885470,-7254.423860013485
1710999885510,-4900.747480574064
1710999885551,-1416.5881209950894
1710999885591,1163.2709878804162
1710999885631,3893.112841846887
1710999885671,6044.362245990895
1710999885711,6487.210405696183
1710999885752,6697.04492986016
1710999885791,6798.295781061519
1710999885831,7337.466766539961
1710999885871,7425.891257258132
1710999885911,7720.454490389675
1710999885952,8251.96329794731
1710999885992,8931.256469782442
1710999886032,9277.672654997557
1710999886072,9720.450510376133
1710999886112,9978.961839268915
1710999886153,10207.746827235911
1710999886192,10940.270631140098
1710999886232,10940.270631140098
1710999886273,11361.46762692649
1710999886313,11817.765434780158
1710999886354,12672.044013421051
1710999886393,13221.422657446936
1710999886433,13221.422657446936
1710999886473,13221.422657446936
1710999886513,13221.422657446936
1710999886554,13221.422657446936
1710999886594,13221.422657446936
1710999886634,13221.422657446936
1710999886674,13221.422657446936
1710999886714,13221.422657446936
1710999886755,13221.422657446936
1710999886794,13221.422657446936
1710999886834,13092.13542911224
1710999886875,13034.93547968613
1710999886915,13017.883265499026
1710999886956,12868.400199037045
1710999886995,12762.087422642857
1710999887035,12741.1190039278
1710999887075,12687.433622458018
1710999887115,12687.433622458018
1710999887156,12642.93859435711
1710999887196,12638.810538085178
1710999887236,12623.587985544465
1710999887276,12575.367411065847
1710999887316,12575.367411065847
1710999887357,12575.367411065847
1710999887396,12575.367411065847
1710999887437,12376.536732736975
1710999887477,12279.480398944113
1710999887517,12094.050074126571
1710999887558,12063.624553276226
1710999887597,10597.202937725931
1710999887637,9401.448191617616
1710999887677,8571.11376143014
1710999887717,8571.11376143014
1710999887759,8571.11376143014
1710999887798,8571.11376143014
1710999887838,8571.11376143014
1710999887878,8571.11376143014
1710999887918,8571.11376143014
1710999887959,8571.11376143014
1710999887999,8571.11376143014
1710999888039,8571.11376143014
1710999888079,8571.11376143014
1710999888119,9130.39310236089
1710999888160,9136.39470196981
1710999888199,9188.68797256425
1710999888239,9231.734242632985
1710999888279,9262.649543508887
1710999888320,9262.649543508887
1710999888360,9262.649543508887
1710999888400,9262.649543508887
1710999888440,9362.226514964364
1710999888480,9368.22836167179
1710999888520,9369.614361152984
1710999888561,9450.762928181328
1710999888600,9533.022443986032
1710999888640,9533.022443986032
1710999888680,9533.022443986032
1710999888721,9533.022443986032
1710999888761,9533.022443986032
1710999888801,9524.70595525857
1710999888841,9450.762928181328
1710999888881,9450.762928181328
1710999888921,9450.762928181328
1710999888962,9450.762928181328
1710999889001,9450.762928181328
1710999889041,9368.22836167179
1710999889082,9362.226514964364
1710999889122,8996.438026079908
1710999889162,8996.438026079908
1710999889202,8996.438026079908
1710999889242,8834.9811347723
1710999889282,8428.008271837607
1710999889322,8240.894961791113
1710999889363,8205.08594544651
1710999889402,8130.743918471038
1710999889443,8118.305963818915
1710999889483,8018.363185340073
1710999889523,7972.126475375146
1710999889564,7968.853220513556
1710999889603,7948.77235158626
1710999889643,7916.101539424621
1710999889683,7899.443861125968
1710999889723,7899.443861125968
1710999889764,7806.248089119326
1710999889804,7790.154804259539
1710999889844,7725.215248664841
1710999889884,7698.517255274579
1710999889924,7652.896924670786
1710999889965,7420.935087997466
1710999890004,7278.037683732808
1710999890044,7070.114878056105
1710999890084,6023.038608107716
1710999890124,5527.164407589473
1710999890165,5323.626883292571
1710999890205,4830.335947127081
1710999890245,4830.335947127081
1710999890285,4554.670569423586
1710999890325,4261.346843959298
1710999890366,4150.43282070756
1710999890406,4080.7860235762782
1710999890445,4011.4080378161743
1710999890486,3870.0249661845155
1710999890526,3621.447471716441
1710999890567,3506.2076286617666
1710999890606,3485.5201823515818
1710999890646,3204.852904830128
1710999890686,3100.610083871521
1710999890726,1323.7214561505243
1710999890767,567.0216914145276
1710999890807,181.29516867082566
1710999890847,-483.5732696726918
1710999890887,-783.0544986883178
1710999890927,-783.0544986883178
1710999890968,-783.0544986883178
1710999891007,-783.0544986883178
1710999891047,-783.0544986883178
1710999891087,-783.0544986883178
1710999891128,-1761.3366552703083
1710999891168,-1931.2467840365134
1710999891208,-2968.228926180862
1710999891248,-3051.18872724846
1710999891288,-4072.8391998750158
1710999891328,-5787.056605714373
1710999891369,-7186.156023708172
1710999891408,-7663.758670162875
1710999891449,-10442.990705514327
1710999891489,-10529.36788688507
1710999891529,-18009.55055523105
1710999891570,-30950.135511942208
1710999891609,-42776.68576580938
1710999891649,-53948.29136398295
1710999891689,-55781.42552964296
1710999891730,-57069.89587253146
1710999891770,-59029.12920252979
1710999891810,-59526.33085891511
1710999891850,-60592.453511781525
1710999891890,-60755.36275865603
1710999891930,-60755.36275865603
1710999891971,-60755.36275865603
1710999892010,-60755.36275865603
1710999892050,-60755.36275865603
1710999892091,-60755.36275865603
1710999892131,-60755.36275865603
1710999892172,-59862.80399123859
1710999892211,-59526.33085891511
1710999892251,-59526.33085891511
1710999892291,-59526.33085891511
1710999892331,-59029.12920252979
1710999892372,-52224.15539400047
1710999892411,-45991.2507920051
1710999892452,-36008.15297242161
1710999892492,-23944.861069790088
1710999892532,-15123.851590281352
1710999892573,-14009.287666954566
1710999892612,-11969.076969473623
1710999892652,-11540.860352292657
1710999892692,-10276.516426238231
1710999892732,-8885.704322126694
1710999892773,-8458.20685979072
1710999892813,-6043.132796501741
1710999892853,-4405.621437365189
1710999892893,-2741.206016618293
1710999892933,-2472.758590210229
1710999892974,-2471.8941728956997
1710999893013,-2084.4782570828684
1710999893054,-1878.5535607589409
1710999893094,342.52993944473565
1710999893134,5597.423384220339
1710999893175,9585.256055117585
1710999893214,11158.232651785947
1710999893255,11446.37401912827
1710999893295,12905.02003578702
1710999893335,13895.335765567608
1710999893376,15227.241845393553
1710999893415,17246.820278126746
1710999893455,17288.314547312446
1710999893495,18064.02032267116
1710999893536,20162.5336999516
1710999893576,20354.200059077237
1710999893616,22188.089286278933
1710999893656,22358.64221475087
1710999893696,22956.105954044964
1710999893736,24186.38353179302
1710999893777,25246.0803493415
1710999893816,25924.422258857638
1710999893857,28104.645730342716
1710999893897,28104.645730342716
1710999893937,28104.645730342716
1710999893978,28104.645730342716
1710999894017,28104.645730342716
1710999894057,28104.645730342716
1710999894097,28104.645730342716
1710999894138,25246.0803493415
1710999894178,24186.38353179302
1710999894218,22188.089286278933
1710999894258,20354.200059077237
1710999894298,4154.419617379084
1710999894338,2895.9359369026497
1710999894379,2895.9359369026497
1710999894418,2895.9359369026497
1710999894458,-1840.761887579225
1710999894498,-4197.618075925391
1710999894538,-7422.663120432757
1710999894579,-7939.508753924165
1710999894619,-10255.397486879956
1710999894659,-15473.550681021065
1710999894699,-17600.76879899297
1710999894739,-18979.20061070565
1710999894780,-24837.21337946877
1710999894819,-28281.717288295273
1710999894859,-32698.42094512889
1710999894899,-35392.43117712205
1710999894939,-35392.43117712205
1710999894980,-44489.257016343996
1710999895020,-52119.12505010376
1710999895060,-52119.12505010376
1710999895100,-54214.08906705072
1710999895140,-54214.08906705072
1710999895181,-54214.08906705072
1710999895220,-54214.08906705072
1710999895260,-54214.08906705072
1710999895300,-54214.08906705072
1710999895340,-54214.08906705072
1710999895381,-54214.08906705072
1710999895421,-54214.08906705072
1710999895461,-52119.12505010376
1710999895501,-49855.217984521296
1710999895541,-45724.88569087908
1710999895582,-18712.09429449844
1710999895621,-2640.5774879937526
1710999895661,11343.207103375578
1710999895701,11343.207103375578
1710999895741,11788.87030868046
1710999895782,11788.87030868046
1710999895822,11788.87030868046
1710999895862,11788.87030868046
1710999895902,11788.87030868046
1710999895942,11788.87030868046
1710999895983,11788.87030868046
1710999896022,11788.87030868046
1710999896062,11788.87030868046
1710999896102,11788.87030868046
1710999896142,9615.740939576179
1710999896183,9615.740939576179
1710999896222,8319.252369905356
1710999896263,8319.252369905356
1710999896303,8008.905596331228
1710999896343,7952.204589173663
1710999896384,7952.204589173663
1710999896423,7952.204589173663
1710999896463,7952.204589173663
1710999896503,6976.841572294012
1710999896543,3077.36091594398
1710999896584,2081.77675984893
1710999896624,-4590.353558296803
1710999896664,-7596.013554462697
1710999896704,-7596.013554462697
1710999896744,-3381.8083357373253
1710999896785,3077.36091594398
1710999896824,7952.204589173663
1710999896864,8008.905596331228
1710999896904,9615.740939576179
1710999896944,12810.409657932585
1710999896985,13732.752312320285
1710999897025,16798.538706031162
1710999897065,33923.58120029094
1710999897105,41370.89496973902
1710999897145,41370.89496973902
1710999897186,41370.89496973902
1710999897225,41370.89496973902
1710999897265,16798.538706031162
1710999897305,12423.739977125078
1710999897345,12423.739977125078
1710999897386,12423.739977125078
1710999897426,12423.739977125078
1710999897466,12423.739977125078
1710999897506,12423.739977125078
1710999897546,12423.739977125078
1710999897587,9244.677987809293
1710999897626,9058.782973485999
1710999897666,7009.552868626546
1710999897706,6521.283550933003
1710999897747,193.06705435365438
1710999897787,193.06705435365438
1710999897827,193.06705435365438
1710999897867,193.06705435365438
1710999897907,193.06705435365438
1710999897947,193.06705435365438
1710999897988,-1258.0949259335175
1710999898027,-3474.3564101923257
1710999898067,-6629.9479363095015
1710999898108,-6829.596678446513
1710999898148,-11439.282966809347
1710999898189,-11597.008916148916
1710999898228,-11901.597507657483
1710999898268,-11992.095504682977
1710999898308,-18723.405204086564
1710999898349,-27384.491488949396
1710999898389,-40648.41769352928
1710999898429,-40648.41769352928
1710999898469,-40648.41769352928
1710999898509,-40648.41769352928
1710999898549,-37598.41792100505
1710999898590,-37598.41792100505
1710999898629,-37598.41792100505
1710999898669,-37598.41792100505
1710999898710,-40648.41769352928
1710999898750,-42301.4516347982
1710999898790,-43710.45873068506
1710999898830,-45503.97948163049
1710999898870,-46222.31014631875
1710999898910,-47736.706928722095
1710999898950,-47999.2635009638
1710999898991,-48661.35092498036
1710999899030,-57125.96881269966
1710999899071,-57125.96881269966
1710999899111,-46222.31014631875
1710999899151,-43710.45873068506
1710999899192,-41759.18459925521
1710999899231,-37598.41792100505
1710999899271,-37598.41792100505
1710999899312,-37598.41792100505
1710999899352,-37598.41792100505
1710999899392,-36641.55769745493
1710999899432,-36641.55769745493
1710999899472,-36641.55769745493
1710999899512,-17493.876956196735
1710999899552,-4574.333804658148
1710999899593,13267.522035927279
1710999899633,14180.420987543417
1710999899673,32034.365366078913
1710999899713,39185.81112623634
1710999899753,39185.81112623634
1710999899794,39185.81112623634
1710999899833,39185.81112623634
1710999899874,39185.81112623634
1710999899914,39185.81112623634
1710999899954,39185.81112623634
1710999899995,39185.81112623634
1710999900034,39185.81112623634
1710999900074,39185.81112623634
1710999900114,39185.81112623634
1710999900155,39030.657354755094
1710999900195,37184.063674269244
1710999900235,33026.72575954953
1710999900275,26061.344230648363
1710999900315,21040.36461616354
1710999900355,16952.67581204232
1710999900396,10406.590855384944
1710999900436,9115.917492517736
1710999900476,7620.996797889937
1710999900516,5004.30778531055
1710999900556,1106.661400287645
1710999900596,-204.98178071854636
1710999900636,-2072.9747797637247
1710999900676,-4199.143076248933
1710999900716,-4688.269107418368
1710999900756,-6525.214235138614
1710999900797,-8414.886757232714
1710999900836,-17786.835219162982
1710999900877,-25033.162226498825
1710999900917,-30444.762162058614
1710999900957,-33436.13659945503
1710999900998,-39883.495810812106
1710999901037,-40106.97355114482
1710999901077,-40606.36127920961
1710999901117,-40606.36127920961
1710999901157,-40899.0111643516
1710999901198,-41370.041261265054
1710999901238,-41577.04724130919
1710999901278,-43215.19117157161
1710999901318,-43482.7961054747
1710999901358,-45664.285512647126
1710999901399,-45785.20048272936
1710999901438,-48057.74441593094
1710999901478,-48325.75211737864
1710999901518,-48703.497901530936
1710999901558,-48745.029066289775
1710999901599,-50320.46853807755
1710999901638,-59756.6735491273
1710999901678,-66981.90500431322
1710999901719,-68749.64593700785
1710999901759,-68749.64593700785
1710999901799,-68749.64593700785
1710999901839,-68749.64593700785
1710999901879,-68749.64593700785
1710999901919,-68749.64593700785
1710999901959,-68749.64593700785
1710999902000,-68749.64593700785
1710999902039,-68749.64593700785
1710999902079,-68749.64593700785
1710999902119,-68749.64593700785
1710999902159,-65910.3802918219
1710999902200,-65540.37405298604
1710999902240,-65245.90849216422
1710999902280,-65046.68891629344
1710999902320,-62346.830409766175
1710999902360,-62178.52442095475
1710999902401,-60113.25049469853
1710999902440,-58592.27663580375
1710999902480,-58001.041543538915
1710999902520,-56331.77456774865
1710999902561,-55621.62633760716
1710999902601,-53288.360747591825
1710999902641,-52875.84291860042
1710999902681,-50267.662809095345
1710999902721,-47722.60741636902
1710999902761,-44306.778683234006
1710999902802,-41180.65541893267
1710999902841,-41180.65541893267
1710999902881,-41180.65541893267
1710999902922,-41180.65541893267
1710999902962,-41180.65541893267
1710999903002,-41180.65541893267
1710999903042,-41180.65541893267
1710999903082,-41180.65541893267
1710999903122,-40788.46478173905
1710999903162,-39853.66233552806
1710999903203,-37930.24569249619
1710999903242,-37562.54003586294
1710999903283,-34630.96747097792
1710999903323,-34630.96747097792
1710999903363,-34630.96747097792
1710999903404,-34630.96747097792
1710999903443,-34630.96747097792
1710999903483,-34630.96747097792
1710999903523,-34630.96747097792
1710999903563,-34630.96747097792
1710999903604,-34654.93700305675
1710999903644,-34654.93700305675
1710999903684,-34654.93700305675
1710999903724,-34654.93700305675
1710999903764,-34654.93700305675
1710999903805,-34654.93700305675
1710999903844,-34654.93700305675
1710999903884,-34654.93700305675
1710999903924,-34630.96747097792
1710999903964,-33474.72252695309
1710999904005,-31569.584389824653
1710999904045,-30390.755185552407
1710999904085,-28552.84253000142
1710999904125,-28171.85194486659
1710999904165,-28171.85194486659
1710999904206,-28171.85194486659
1710999904245,-28171.85194486659
1710999904285,-28171.85194486659
1710999904325,-28274.18488198216
1710999904366,-30390.755185552407
1710999904406,-31905.70307127526
1710999904448,-30390.755185552407
1710999904486,-29033.65500257723
1710999904526,-28274.18488198216
1710999904566,-27363.382932933746
1710999904607,-26099.70196907781
1710999904646,-24344.48668548907
1710999904686,-23948.72040840052
1710999904727,-23678.675814552465
1710999904767,-22888.408697085455
1710999904808,-21685.095164013095
1710999904847,-21184.426115465583
1710999904887,-20139.455342914443
1710999904927,-19136.19198394101
1710999904967,-19136.19198394101
1710999905008,-19136.19198394101
1710999905048,-19136.19198394101
1710999905088,-19136.19198394101
1710999905128,-19136.19198394101
1710999905168,-19136.19198394101
1710999905209,-19136.19198394101
1710999905248,-19136.19198394101
1710999905288,-19136.19198394101
1710999905329,-19136.19198394101
1710999905369,-19136.19198394101
1710999905410,-19136.19198394101
1710999905449,-19136.19198394101
1710999905489,-19136.19198394101
1710999905529,-27218.2330805799
1710999905569,-27218.2330805799
1710999905610,-27218.2330805799
1710999905650,-27218.2330805799
1710999905690,-27218.2330805799
1710999905730,-27218.2330805799
1710999905770,-27218.2330805799
1710999905811,-27218.2330805799
1710999905850,-27218.2330805799
1710999905890,-27218.2330805799
1710999905930,-27218.2330805799
1710999905971,-25145.2536290884
1710999906011,-21969.52330813976
1710999906051,-21969.52330813976
1710999906091,-21969.52330813976
1710999906131,-21969.52330813976
1710999906171,-21969.52330813976
1710999906212,-21969.52330813976
1710999906252,-21969.52330813976
1710999906292,-21969.52330813976
1710999906332,-21969.52330813976
1710999906372,-21969.52330813976
1710999906413,-21450.94891467644
1710999906452,-19905.030491059413
1710999906493,-19905.030491059413
1710999906533,-19905.030491059413
1710999906573,-19905.030491059413
1710999906614,-19905.030491059413
1710999906656,-19905.030491059413
1710999906693,-19905.030491059413
1710999906733,-19905.030491059413
1710999906774,-19905.030491059413
1710999906814,-19905.030491059413
1710999906854,-16205.941041862825
1710999906894,-12615.27173038572
1710999906934,-8833.35788831301
1710999906974,-8833.35788831301
1710999907015,-8833.35788831301
1710999907054,-8833.35788831301
1710999907094,-8833.35788831301
1710999907134,-8833.35788831301
1710999907174,-8833.35788831301
1710999907215,-8833.35788831301
1710999907255,-8833.35788831301
1710999907295,-8833.35788831301
1710999907335,-8833.35788831301
1710999907375,-10477.908802542835
1710999907416,-11062.480402939022
1710999907455,-11062.480402939022
1710999907495,-11062.480402939022
1710999907535,-11062.480402939022
1710999907575,-11062.480402939022
1710999907616,-11062.480402939022
1710999907655,-11062.480402939022
1710999907696,-11062.480402939022
1710999907736,-11062.480402939022
1710999907776,-11062.480402939022
1710999907817,-11062.480402939022
1710999907856,-9198.632938943803
1710999907896,-7201.196098252665
1710999907936,-7201.196098252665
1710999907976,-7201.196098252665
1710999908017,-7201.196098252665
1710999908057,-7201.196098252665
1710999908097,-7201.196098252665
1710999908137,-7201.196098252665
1710999908177,-7201.196098252665
1710999908218,-7201.196098252665
1710999908257,-7201.196098252665
1710999908297,-7201.196098252665
1710999908338,-9320.190576500027
1710999908378,-9320.190576500027
1710999908419,-9320.190576500027
1710999908459,-9320.190576500027
1710999908499,-9320.190576500027
1710999908539,-9320.190576500027
1710999908579,-9320.190576500027
1710999908620,-9320.190576500027
1710999908659,-9320.190576500027
1710999908699,-9320.190576500027
1710999908739,-9320.190576500027
1710999908779,-6344.408984451322
1710999908820,-3563.58560211258
1710999908859,-3563.58560211258
1710999908900,-3563.58560211258
1710999908940,-3563.58560211258
1710999908980,-3563.58560211258
1710999909021,-3563.58560211258
1710999909060,-3563.58560211258
1710999909100,-3563.58560211258
1710999909140,-3563.58560211258
1710999909180,-3563.58560211258
1710999909221,-3563.58560211258
1710999909260,-1931.0504411859438
1710999909301,-1931.0504411859438
1710999909341,-1931.0504411859438
1710999909381,-1931.0504411859438
1710999909421,-1931.0504411859438
1710999909461,-1931.0504411859438
1710999909501,-1931.0504411859438
1710999909541,-1931.0504411859438
1710999909581,-1931.0504411859438
1710999909622,-1931.0504411859438
1710999909661,-1931.0504411859438
1710999909701,-1511.84295192454
1710999909742,-1511.84295192454
1710999909782,-1511.84295192454
1710999909822,-1511.84295192454
1710999909862,-1511.84295192454
1710999909902,-1511.84295192454
1710999909942,-1511.84295192454
1710999909982,-1511.84295192454
1710999910023,-1511.84295192454
1710999910062,-1511.84295192454
1710999910102,29.026121781673282
1710999910143,29.026121781673282
1710999910183,29.026121781673282
1710999910223,29.026121781673282
1710999910263,29.026121781673282
1710999910303,29.026121781673282
1710999910343,29.026121781673282
1710999910383,29.026121781673282
1710999910424,29.026121781673282
1710999910463,29.026121781673282
1710999910504,29.026121781673282
1710999910544,2764.185749194119
1710999910584,5667.930978343822
1710999910625,7529.688880040776
1710999910664,7529.688880040776
1710999910704,7529.688880040776
1710999910744,7529.688880040776
1710999910784,7529.688880040776
1710999910825,7529.688880040776
1710999910865,7529.688880040776
1710999910905,7529.688880040776
1710999910945,7529.688880040776
1710999910985,7529.688880040776
1710999911026,7529.688880040776
1710999911065,801.5666055888869
1710999911105,801.5666055888869
1710999911145,801.5666055888869
1710999911185,801.5666055888869
1710999911226,801.5666055888869
1710999911266,801.5666055888869
1710999911306,801.5666055888869
1710999911346,801.5666055888869
1710999911386,801.5666055888869
1710999911427,801.5666055888869
1710999911466,801.5666055888869
1710999911506,2990.647253177827
1710999911546,2990.647253177827
1710999911587,2990.647253177827
1710999911627,2990.647253177827
1710999911667,2990.647253177827
1710999911707,2990.647253177827
1710999911747,2990.647253177827
1710999911787,2990.647253177827
1710999911828,2990.647253177827
1710999911867,2990.647253177827
1710999911908,2990.647253177827
1710999911948,518.3407129382249
1710999911988,-5070.93894983083
1710999912029,-5070.93894983083
1710999912068,-5070.93894983083
1710999912108,-5070.93894983083
1710999912148,-5070.93894983083
1710999912189,-5070.93894983083
1710999912229,-5070.93894983083
1710999912269,-5070.93894983083
1710999912309,-5070.93894983083
1710999912349,-5070.93894983083
1710999912389,-5070.93894983083
1710999912430,-2761.0603859485127
1710999912470,-2761.0603859485127
1710999912510,-2761.0603859485127
1710999912550,-2761.0603859485127
1710999912590,-2761.0603859485127
1710999912631,-2761.0603859485127
1710999912670,-2761.0603859485127
1710999912710,-2761.0603859485127
1710999912750,-2761.0603859485127
1710999912791,-2761.0603859485127
1710999912832,-2761.0603859485127
1710999912871,-1113.7674084398896
1710999912911,-1113.7674084398896
1710999912951,-1113.7674084398896
1710999912991,-1113.7674084398896
1710999913032,-1113.7674084398896
1710999913072,-1113.7674084398896
1710999913112,-1113.7674084398896
1710999913152,-1113.7674084398896
1710999913192,-1113.7674084398896
1710999913233,-1113.7674084398896
1710999913272,-1113.7674084398896
1710999913312,1973.2207683683373
1710999913352,5199.045184955932
1710999913393,5199.045184955932
1710999913433,5199.045184955932
1710999913472,5199.045184955932
1710999913513,5199.045184955932
1710999913553,5199.045184955932
1710999913593,5199.045184955932
1710999913634,5199.045184955932
1710999913673,5199.045184955932
1710999913713,5995.83832771657
1710999913753,6480.836112039164
1710999913793,7783.595470867353
1710999913834,8481.129331948003
1710999913873,8481.129331948003
1710999913913,8481.129331948003
1710999913954,8481.129331948003
1710999913994,8481.129331948003
1710999914034,8481.129331948003
1710999914074,8481.129331948003
1710999914114,8481.129331948003
1710999914154,8481.129331948003
1710999914194,10677.177165221889
1710999914235,10677.177165221889
1710999914274,10677.177165221889
1710999914314,10677.177165221889
1710999914355,10677.177165221889
1710999914395,10677.177165221889
1710999914435,10677.177165221889
1710999914475,10677.177165221889
1710999914515,10677.177165221889
1710999914555,10677.177165221889
1710999914595,10677.177165221889
1710999914636,4682.875484501012
1710999914675,1976.3195989695378
1710999914715,1976.3195989695378
1710999914755,1976.3195989695378
1710999914796,1976.3195989695378
1710999914836,1976.3195989695378
1710999914876,1976.3195989695378
1710999914916,1976.3195989695378
1710999914956,1976.3195989695378
1710999914996,1976.3195989695378
1710999915037,1976.3195989695378
1710999915076,31.87077484978363
1710999915116,-176.8426916487515
1710999915157,-176.8426916487515
1710999915197,-176.8426916487515
1710999915237,-176.8426916487515
1710999915277,-176.8426916487515
1710999915317,-176.8426916487515
1710999915357,-176.8426916487515
1710999915397,-176.8426916487515
1710999915438,-176.8426916487515
1710999915477,-928.3873794695828
1710999915517,-1664.5775326157454
1710999915558,-1664.5775326157454
1710999915598,-1664.5775326157454
1710999915639,-1664.5775326157454
1710999915678,-1664.5775326157454
1710999915718,-1664.5775326157454
1710999915758,-1664.5775326157454
1710999915798,-1664.5775326157454
1710999915839,-1664.5775326157454
1710999915878,-1664.5775326157454
1710999915919,-3611.3208401380107
1710999915959,-3611.3208401380107
1710999915999,-3611.3208401380107
1710999916040,-3611.3208401380107
1710999916079,-3611.3208401380107
1710999916119,-3611.3208401380107
1710999916159,-3611.3208401380107
1710999916199,-3611.3208401380107
1710999916240,-3611.3208401380107
1710999916280,-2536.524521949701
1710999916320,-1664.5775326157454
1710999916360,141.04639369715005
1710999916400,141.04639369715005
1710999916441,141.04639369715005
1710999916480,141.04639369715005
1710999916520,141.04639369715005
1710999916560,141.04639369715005
1710999916601,141.04639369715005
1710999916642,141.04639369715005
1710999916681,-2536.524521949701
1710999916721,-3548.875185316894
1710999916761,-3548.875185316894
1710999916801,-3548.875185316894
1710999916842,-3548.875185316894
1710999916882,-3548.875185316894
1710999916922,-3548.875185316894
1710999916962,-3548.875185316894
1710999917002,-3548.875185316894
1710999917043,-3548.875185316894
1710999917082,-3548.875185316894
1710999917122,-4333.496423724573
1710999917162,-4333.496423724573
1710999917203,-4333.496423724573
1710999917244,-4333.496423724573
1710999917283,-4333.496423724573
1710999917323,-4333.496423724573
1710999917363,-4333.496423724573
1710999917403,-4333.496423724573
1710999917444,-4333.496423724573
1710999917484,-6747.049026061082
1710999917524,-6810.071852918249
1710999917564,-6810.071852918249
1710999917604,-6810.071852918249
1710999917645,-6810.071852918249
1710999917684,-6810.071852918249
1710999917725,-6810.071852918249
1710999917765,-6810.071852918249
1710999917805,-6810.071852918249
1710999917846,-6810.071852918249
1710999917885,-6810.071852918249
1710999917925,-11732.37475146656
1710999917965,-11732.37475146656
1710999918005,-11732.37475146656
1710999918046,-11732.37475146656
1710999918086,-11732.37475146656
1710999918126,-11732.37475146656
1710999918166,-11732.37475146656
1710999918206,-11732.37475146656
1710999918247,-11732.37475146656
1710999918286,-11732.37475146656
1710999918327,-11732.37475146656
1710999918367,-9169.189564805012
1710999918407,-9169.189564805012
1710999918448,-9169.189564805012
1710999918487,-9169.189564805012
1710999918527,-9169.189564805012
1710999918567,-9169.189564805012
1710999918607,-9169.189564805012
1710999918648,-9169.189564805012
1710999918688,-9169.189564805012
1710999918728,-9169.189564805012
1710999918768,-9169.189564805012
1710999918808,-11354.107872521738
1710999918849,-11354.107872521738
1710999918888,-11354.107872521738
1710999918929,-11354.107872521738
1710999918969,-11354.107872521738
1710999919009,-11354.107872521738
1710999919050,-11354.107872521738
1710999919089,-11354.107872521738
1710999919129,-11354.107872521738
1710999919170,-11354.107872521738
1710999919210,-11354.107872521738
1710999919250,-8162.7417449066415
1710999919290,-8162.7417449066415
1710999919330,-8162.7417449066415
1710999919370,-8162.7417449066415
1710999919410,-8162.7417449066415
1710999919451,-8162.7417449066415
1710999919490,-8162.7417449066415
1710999919530,-8162.7417449066415
1710999919570,-8162.7417449066415
1710999919610,-8162.7417449066415
1710999919651,-6364.749859959818
1710999919691,-3548.993023581337
1710999919731,-3548.993023581337
1710999919771,-3548.993023581337
1710999919811,-3548.993023581337
1710999919852,-3548.993023581337
1710999919891,-3548.993023581337
1710999919931,-3548.993023581337
1710999919971,-3548.993023581337
1710999920012,-3548.993023581337
1710999920052,-3548.993023581337
1710999920092,-3548.993023581337
1710999920132,-634.5621610472444
1710999920172,2315.276202501729
1710999920212,5625.011750841979
1710999920253,5625.011750841979
1710999920292,5625.011750841979
1710999920332,5625.011750841979
1710999920371,5625.011750841979
1710999920411,5625.011750841979
1710999920452,5625.011750841979
1710999920492,5625.011750841979
1710999920532,5625.011750841979
1710999920572,5625.011750841979
1710999920612,5625.011750841979
1710999920653,6621.70397780044
1710999920692,6621.70397780044
1710999920732,6621.70397780044
1710999920772,6621.70397780044
1710999920813,6621.70397780044
1710999920853,6621.70397780044
1710999920893,6621.70397780044
1710999920933,6621.70397780044
1710999920973,6621.70397780044
1710999921013,6621.70397780044
1710999921054,7214.875577617204
1710999921093,7214.875577617204
1710999921133,7214.875577617204
1710999921174,7214.875577617204
1710999921214,7214.875577617204
1710999921254,7214.875577617204
1710999921294,7214.875577617204
1710999921334,7214.875577617204
1710999921374,7214.875577617204
1710999921414,7214.875577617204
1710999921455,7214.875577617204
1710999921494,7250.715914242435
1710999921535,7250.715914242435
1710999921575,7250.715914242435
1710999921615,7250.715914242435
1710999921655,7250.715914242435
1710999921695,7250.715914242435
1710999921735,7250.715914242435
1710999921775,7250.715914242435
1710999921815,7250.715914242435
1710999921856,7250.715914242435
1710999921895,7250.715914242435
1710999921936,9150.690007902915
1710999921976,11352.07871155464
1710999922016,11352.07871155464
1710999922057,11352.07871155464
1710999922096,11352.07871155464
1710999922136,11352.07871155464
1710999922176,11352.07871155464
1710999922216,11352.07871155464
1710999922257,11352.07871155464
1710999922297,11352.07871155464
1710999922337,11352.07871155464
1710999922377,11352.07871155464
1710999922417,9059.698096647626
1710999922458,9059.698096647626
1710999922497,9059.698096647626
1710999922537,9059.698096647626
1710999922577,9059.698096647626
1710999922617,9059.698096647626
1710999922658,9059.698096647626
1710999922698,9059.698096647626
1710999922738,9059.698096647626
1710999922778,9059.698096647626
1710999922818,9059.698096647626
1710999922859,10962.779162579915
1710999922898,11797.632473714417
1710999922938,11797.632473714417
1710999922979,11797.632473714417
1710999923019,11797.632473714417
1710999923059,11797.632473714417
1710999923099,11797.632473714417
1710999923139,11797.632473714417
1710999923179,11797.632473714417
1710999923219,11797.632473714417
1710999923260,11797.632473714417
1710999923299,11797.632473714417
1710999923340,7939.5276302213315
1710999923380,7939.5276302213315
1710999923420,7939.5276302213315
1710999923461,7939.5276302213315
1710999923500,7939.5276302213315
1710999923540,7939.5276302213315
1710999923580,7939.5276302213315
1710999923621,7939.5276302213315
1710999923661,7939.5276302213315
1710999923701,7939.5276302213315
1710999923741,7939.5276302213315
1710999923781,9944.365418031113
1710999923821,11717.49987650849
1710999923862,11717.49987650849
1710999923901,11717.49987650849
1710999923941,11717.49987650849
1710999923982,11717.49987650849
1710999924022,11717.49987650849
1710999924063,11717.49987650849
1710999924102,11717.49987650849
1710999924142,11717.49987650849
1710999924182,11717.49987650849
1710999924222,11717.49987650849
1710999924263,12427.155772579368
1710999924302,12427.155772579368
1710999924343,12427.155772579368
1710999924383,12427.155772579368
1710999924423,12427.155772579368
1710999924464,12427.155772579368
1710999924503,12427.155772579368
1710999924543,12427.155772579368
1710999924584,12427.155772579368
1710999924624,12427.155772579368
1710999924664,11692.514834706206
1710999924704,11692.514834706206
1710999924744,11692.514834706206
1710999924784,11692.514834706206
1710999924825,11692.514834706206
1710999924865,11692.514834706206
1710999924905,11692.514834706206
1710999924945,11692.514834706206
1710999924985,11692.514834706206
1710999925025,11692.514834706206
1710999925066,11692.514834706206
1710999925105,6889.696939216694
1710999925146,6889.696939216694
1710999925186,6889.696939216694
1710999925226,6889.696939216694
1710999925267,6889.696939216694
1710999925306,6889.696939216694
1710999925346,6889.696939216694
1710999925387,6889.696939216694
1710999925427,5430.828644521302
1710999925467,5357.159833644982
1710999925507,5146.7018454473
1710999925547,3851.456195749808
1710999925587,3851.456195749808
1710999925627,3851.456195749808
1710999925668,3851.456195749808
1710999925707,3851.456195749808
1710999925747,3851.456195749808
1710999925787,3851.456195749808
1710999925827,3851.456195749808
1710999925868,-2478.5590566264
1710999925908,-3927.0673793554306
1710999925948,-3927.0673793554306
1710999925988,-3927.0673793554306
1710999926028,-3927.0673793554306
1710999926069,-3927.0673793554306
1710999926108,-3927.0673793554306
1710999926148,-3927.0673793554306
1710999926188,-3927.0673793554306
1710999926228,-6011.645092834253
1710999926269,-6760.72850218392
1710999926308,-7368.380302314181
1710999926348,-8150.501302434597
1710999926389,-8150.501302434597
1710999926429,-8150.501302434597
1710999926469,-8150.501302434597
1710999926509,-8150.501302434597
1710999926549,-8150.501302434597
1710999926589,-8150.501302434597
1710999926629,-8150.501302434597
1710999926670,-12492.713207677472
1710999926709,-12492.713207677472
1710999926749,-12492.713207677472
1710999926789,-12492.713207677472
1710999926829,-12492.713207677472
1710999926870,-12492.713207677472
1710999926910,-12492.713207677472
1710999926950,-12492.713207677472
1710999926990,-12492.713207677472
1710999927030,-12492.713207677472
1710999927071,-12492.713207677472
1710999927110,-12492.713207677472
1710999927150,-12492.713207677472
1710999927191,-12492.713207677472
1710999927231,-12492.713207677472
1710999927271,-12492.713207677472
1710999927311,-12492.713207677472
1710999927351,-12492.713207677472
1710999927391,-12492.713207677472
1710999927431,-12492.713207677472
1710999927472,-12492.713207677472
1710999927511,-11598.945653480478
1710999927551,-11598.945653480478
1710999927592,-11598.945653480478
1710999927632,-11598.945653480478
1710999927673,-11598.945653480478
1710999927712,-11598.945653480478
1710999927752,-11598.945653480478
1710999927792,-11598.945653480478
1710999927832,-11598.945653480478
1710999927873,-11598.945653480478
1710999927912,-11598.945653480478
1710999927953,-9014.95643517957
1710999927993,-6610.20676016924
1710999928033,-6610.20676016924
1710999928074,-6610.20676016924
1710999928113,-6610.20676016924
1710999928153,-6610.20676016924
1710999928193,-6610.20676016924
1710999928233,-6610.20676016924
1710999928274,-6610.20676016924
1710999928314,-6610.20676016924
1710999928354,-6610.20676016924
1710999928394,-6610.20676016924
1710999928434,-6610.20676016924
1710999928475,-6610.20676016924
1710999928514,-6610.20676016924
1710999928554,-6610.20676016924
1710999928594,-6610.20676016924
1710999928634,-6610.20676016924
1710999928675,-6610.20676016924
1710999928715,-6610.20676016924
1710999928755,-6610.20676016924
1710999928795,-6610.20676016924
1710999928835,-7478.565144125838
1710999928876,-7478.565144125838
1710999928915,-7478.565144125838
1710999928956,-7478.565144125838
1710999928996,-7478.565144125838
1710999929036,-7478.565144125838
1710999929077,-7478.565144125838
1710999929116,-7478.565144125838
1710999929156,-7478.565144125838
1710999929196,-7260.285230758134
1710999929236,-6569.5177809041925
1710999929277,-6569.5177809041925
1710999929317,-6569.5177809041925
1710999929357,-6569.5177809041925
1710999929397,-6569.5177809041925
1710999929437,-6569.5177809041925
1710999929478,-6569.5177809041925
1710999929517,-6569.5177809041925
1710999929557,-6569.5177809041925
1710999929598,-7260.285230758134
1710999929638,-7591.324803494848
1710999929678,-7591.324803494848
1710999929718,-7591.324803494848
1710999929758,-7591.324803494848
1710999929798,-7591.324803494848
1710999929838,-7591.324803494848
1710999929879,-7591.324803494848
1710999929918,-7591.324803494848
1710999929959,-7591.324803494848
1710999929999,-7591.324803494848
1710999930039,-7591.324803494848
1710999930080,-7591.324803494848
1710999930119,-7591.324803494848
1710999930159,-7591.324803494848
1710999930199,-7591.324803494848
1710999930240,-7591.324803494848
1710999930280,-7591.324803494848
1710999930320,-7591.324803494848
1710999930360,-7591.324803494848
1710999930400,-7591.324803494848
1710999930440,-5277.927649918944
1710999930481,-5240.638595809229
1710999930521,-5240.638595809229
1710999930561,-5240.638595809229
1710999930601,-5240.638595809229
1710999930641,-5240.638595809229
1710999930682,-5240.638595809229
1710999930721,-5240.638595809229
1710999930761,-5240.638595809229
1710999930801,-5240.638595809229
1710999930842,-4961.413267799187
1710999930883,-2650.7837751773186
1710999930922,-2650.7837751773186
1710999930962,-2650.7837751773186
1710999931002,-2650.7837751773186
1710999931042,-2650.7837751773186
1710999931083,-2650.7837751773186
1710999931123,-2650.7837751773186
1710999931163,-2650.7837751773186
1710999931203,-2650.7837751773186
1710999931243,-4961.413267799187
1710999931284,-5240.638595809229
1710999931323,-6521.882004492683
1710999931363,-6521.882004492683
1710999931404,-6521.882004492683
1710999931444,-6521.882004492683
1710999931485,-6521.882004492683
1710999931524,-6521.882004492683
1710999931564,-6521.882004492683
1710999931604,-6521.882004492683
1710999931644,-6026.427553013433
1710999931685,-6026.427553013433
1710999931725,-6026.427553013433
1710999931765,-6026.427553013433
1710999931805,-6026.427553013433
1710999931845,-6026.427553013433
1710999931886,-6026.427553013433
1710999931925,-6026.427553013433
1710999931965,-6026.427553013433
1710999932005,-6026.427553013433
1710999932045,-6026.427553013433
1710999932086,-4939.390182973584
1710999932125,-4939.390182973584
1710999932166,-4939.390182973584
1710999932206,-4939.390182973584
1710999932246,-4939.390182973584
1710999932287,-4702.256866630632
1710999932326,-3899.7523680557497
1710999932366,-3380.784680784913
1710999932407,-3354.06878128089
1710999932447,-1561.1896137155127
1710999932488,-414.6601871144958
1710999932528,-219.05921380454674
1710999932568,50.757837342098355
1710999932608,50.757837342098355
1710999932648,50.757837342098355
1710999932689,50.757837342098355
1710999932728,50.757837342098355
1710999932768,50.757837342098355
1710999932808,-219.05921380454674
1710999932848,-308.2672010087408
1710999932889,-1561.1896137155127
1710999932929,-1561.1896137155127
1710999932969,-826.2049683765508
1710999933009,-308.2672010087408
1710999933049,50.757837342098355
1710999933090,253.3950332030654
1710999933129,506.7738744537346
1710999933169,765.0209673731588
1710999933209,2151.9381972707342
1710999933250,2380.2639940236695
1710999933290,3747.208627415588
1710999933330,4865.759027073858
1710999933370,4993.453758900287
1710999933410,4993.453758900287
1710999933450,4993.453758900287
1710999933491,4993.453758900287
1710999933530,3747.208627415588
1710999933570,2151.9381972707342
1710999933611,985.9707704586908
1710999933651,985.9707704586908
1710999933691,985.9707704586908
1710999933731,985.9707704586908
1710999933771,985.9707704586908
1710999933811,985.9707704586908
1710999933851,985.9707704586908
1710999933892,985.9707704586908
1710999933931,985.9707704586908
1710999933972,-4904.222742279526
1710999934012,-4904.222742279526
1710999934052,-4904.222742279526
1710999934093,-4904.222742279526
1710999934132,-4904.222742279526
1710999934172,-4904.222742279526
1710999934212,-4904.222742279526
1710999934252,-4904.222742279526
1710999934293,-4904.222742279526
1710999934333,-4904.222742279526
1710999934373,-5502.088917889399
1710999934413,-7211.023347182665
1710999934453,-7211.023347182665
1710999934494,-7211.023347182665
1710999934533,-7211.023347182665
1710999934573,-7211.023347182665
1710999934613,-7211.023347182665
1710999934653,-7211.023347182665
1710999934694,-7211.023347182665
1710999934734,-7211.023347182665
1710999934774,-6299.799948900472
1710999934814,-6299.799948900472
1710999934854,-6299.799948900472
1710999934895,-6299.799948900472
1710999934934,-6299.799948900472
1710999934974,-6299.799948900472
1710999935015,-6299.799948900472
1710999935055,-6299.799948900472
1710999935095,-6299.799948900472
1710999935135,-6299.799948900472
1710999935175,-6299.799948900472
1710999935215,-3154.9993100217544
1710999935255,-3154.9993100217544
1710999935296,-3154.9993100217544
1710999935336,-3154.9993100217544
1710999935376,-3154.9993100217544
1710999935416,-3154.9993100217544
1710999935456,-3154.9993100217544
1710999935497,-3154.9993100217544
1710999935536,-3154.9993100217544
1710999935576,-3154.9993100217544
1710999935616,-3154.9993100217544
1710999935657,-7657.911123513477
1710999935697,-7657.911123513477
1710999935737,-7657.911123513477
1710999935777,-7657.911123513477
1710999935817,-7657.911123513477
1710999935857,-7657.911123513477
1710999935898,-7657.911123513477
1710999935937,-7657.911123513477
1710999935977,-7657.911123513477
1710999936018,-7657.911123513477
1710999936058,-7657.911123513477
1710999936099,-7856.7386145922355
1710999936138,-7856.7386145922355
1710999936178,-7856.7386145922355
1710999936218,-7856.7386145922355
1710999936259,-7856.7386145922355
1710999936299,-7856.7386145922355
1710999936339,-7856.7386145922355
1710999936379,-7856.7386145922355
1710999936419,-7856.7386145922355
1710999936459,-7856.7386145922355
1710999936500,-7254.874678532127
1710999936539,-7254.874678532127
1710999936579,-7254.874678532127
1710999936620,-7254.874678532127
1710999936660,-7254.874678532127
1710999936701,-7254.874678532127
1710999936740,-7254.874678532127
1710999936780,-7254.874678532127
1710999936820,-7254.874678532127
1710999936860,-7254.874678532127
1710999936901,-7254.874678532127
1710999936941,-3360.5180361734238
1710999936981,2348.176794300787
1710999937021,2959.734060982708
1710999937061,3263.0818977933377
1710999937102,4461.851831502048
1710999937141,4896.874672735808
1710999937182,5145.916850947309
1710999937222,5232.949315547012
1710999937262,5534.316407167586
1710999937303,6418.701817089925
1710999937342,6637.600032552844
1710999937382,6824.990247097798
1710999937423,9046.248087136075
1710999937463,11077.003313049674
1710999937504,11077.003313049674
1710999937543,11077.003313049674
1710999937583,11077.003313049674
1710999937623,9394.814412195701
1710999937663,9046.248087136075
1710999937704,9046.248087136075
1710999937743,9046.248087136075
1710999937783,9046.248087136075
1710999937824,9046.248087136075
1710999937863,9046.248087136075
1710999937904,9046.248087136075
1710999937944,9046.248087136075
1710999937984,9046.248087136075
1710999938024,9046.248087136075
1710999938064,8651.45338875195
1710999938105,8651.45338875195
1710999938144,8651.45338875195
1710999938184,8651.45338875195
1710999938224,8651.45338875195
1710999938264,8651.45338875195
1710999938305,8651.45338875195
1710999938345,8651.45338875195
1710999938385,8651.45338875195
1710999938425,8651.45338875195
1710999938465,6675.439957478549
1710999938506,6675.439957478549
1710999938545,6675.439957478549
1710999938585,6675.439957478549
1710999938625,6675.439957478549
1710999938665,6675.439957478549
1710999938706,6675.439957478549
1710999938746,6675.439957478549
1710999938786,6675.439957478549
1710999938826,6675.439957478549
1710999938866,5598.365135477157
1710999938907,1467.775101829553
1710999938946,1467.775101829553
1710999938986,1467.775101829553
1710999939026,1467.775101829553
1710999939066,1467.775101829553
1710999939107,1467.775101829553
1710999939146,1467.775101829553
1710999939186,1467.775101829553
1710999939226,1467.775101829553
1710999939267,1467.775101829553
1710999939307,1467.775101829553
1710999939347,2437.3899980518036
1710999939387,2437.3899980518036
1710999939427,2437.3899980518036
1710999939467,2437.3899980518036
1710999939508,2437.3899980518036
1710999939547,2437.3899980518036
1710999939587,2437.3899980518036
1710999939628,2437.3899980518036
1710999939668,3864.652704541106
1710999939708,4239.047073538881
1710999939748,5311.290949712507
1710999939788,6560.541187089402
1710999939828,7512.230243643746
1710999939868,7512.230243643746
1710999939909,7512.230243643746
1710999939948,7512.230243643746
1710999939989,7512.230243643746
1710999940028,7512.230243643746
1710999940069,7512.230243643746
1710999940110,7512.230243643746
1710999940149,5311.290949712507
1710999940189,5311.290949712507
1710999940229,5311.290949712507
1710999940269,5311.290949712507
1710999940310,5311.290949712507
1710999940349,5311.290949712507
1710999940389,5311.290949712507
1710999940429,5311.290949712507
1710999940470,5311.290949712507
1710999940510,5311.290949712507
1710999940550,4945.32773482264
1710999940590,4945.32773482264
1710999940630,4945.32773482264
1710999940670,4945.32773482264
1710999940711,4945.32773482264
1710999940750,4945.32773482264
1710999940790,4945.32773482264
1710999940831,4945.32773482264
1710999940871,4945.32773482264
1710999940911,3510.0857320744544
1710999940951,2531.8316413415596
1710999940991,611.4658679061104
1710999941031,1817.4072523410432
1710999941071,2531.8316413415596
1710999941112,3369.352045161184
1710999941151,3510.0857320744544
1710999941192,3708.8436977872625
1710999941232,6938.133923750836
1710999941272,6938.133923750836
1710999941313,6938.133923750836
1710999941352,6938.133923750836
1710999941392,6938.133923750836
1710999941432,3708.8436977872625
1710999941472,3676.063168848632
1710999941513,3676.063168848632
1710999941553,3638.414278084878
1710999941593,3369.352045161184
1710999941633,2868.5125962325837
1710999941673,2531.8316413415596
1710999941714,1940.2396675730124
1710999941753,1817.4072523410432
1710999941793,1817.4072523410432
1710999941833,1817.4072523410432
1710999941874,1066.7365211402066
1710999941914,777.9396790717728
1710999941954,-2581.610982174054
1710999941994,-14662.524016560055
1710999942034,-14662.524016560055
1710999942074,-14662.524016560055
1710999942115,-14662.524016560055
1710999942154,-14662.524016560055
1710999942195,-14662.524016560055
1710999942235,-14662.524016560055
1710999942275,-14662.524016560055
1710999942316,-14662.524016560055
1710999942355,-14662.524016560055
1710999942395,-14662.524016560055
1710999942435,-10544.76390559366
1710999942475,-10544.76390559366
1710999942516,-10544.76390559366
1710999942556,-10094.61086754431
1710999942596,-9937.169468704145
1710999942636,-9937.169468704145
1710999942676,-9937.169468704145
1710999942717,-9937.169468704145
1710999942756,-9937.169468704145
1710999942796,-9518.373101586942
1710999942837,-6415.7907462657895
1710999942877,-6415.7907462657895
1710999942917,-6415.7907462657895
1710999942957,-6415.7907462657895
1710999942997,-6415.7907462657895
1710999943037,-6415.7907462657895
1710999943077,-6415.7907462657895
1710999943118,-6415.7907462657895
1710999943158,-6415.7907462657895
1710999943198,-6415.7907462657895
1710999943238,-6415.7907462657895
1710999943278,-6415.7907462657895
1710999943319,-5093.722126772162
1710999943358,1015.7807753016241
1710999943398,7311.549026262015
1710999943438,10122.90761720715
1710999943479,13985.802116340492
1710999943519,18653.386493962258
1710999943559,23063.11004630709
1710999943599,26872.15780013078
1710999943639,28256.272036232054
1710999943679,28463.3953775384
1710999943720,29112.15815375722
1710999943759,33178.11708657048
1710999943799,44533.8359136018
1710999943840,52597.26347802533
1710999943880,60960.091091593495
1710999943921,72883.10803033947
1710999943960,78907.99233857263
1710999944000,79370.77395715099
1710999944040,79973.45617790241
1710999944081,80833.98352239048
1710999944121,81822.71916825813
1710999944161,85254.53625619435
1710999944201,93699.38693025522
1710999944241,96549.7032563726
1710999944281,100339.97797325673
1710999944322,103337.17794944253
1710999944361,103337.17794944253
1710999944401,103337.17794944253
1710999944436,103337.17794944253
1710999944476,103337.17794944253
1710999944517,103337.17794944253
1710999944557,103337.17794944253
1710999944597,103337.17794944253
1710999944637,103337.17794944253
1710999944677,103337.17794944253
1710999944718,100339.97797325673
1710999944757,99535.74829492415
1710999944797,94284.48583033541
1710999944837,88831.76792484359
1710999944877,85633.36911563575
1710999944918,84457.51286559762
1710999944957,73167.01750778616
1710999944997,69323.72935846727
1710999945038,66804.66454516165
1710999945078,66390.00060409051
1710999945118,63823.751980882604
1710999945158,63142.65845375182
1710999945198,62934.13341464102
1710999945238,60876.21069688839
1710999945278,60775.12953600404
1710999945319,59929.48573885509
1710999945358,59801.88171308767
1710999945398,57309.34077419154
1710999945438,56044.63265313674
1710999945479,54135.61412906484
1710999945519,53578.52489675046
1710999945559,46938.671072423225
1710999945599,44343.14665325917
1710999945639,42678.37291414291
1710999945679,41593.84989213571
1710999945720,39054.72082661395
1710999945759,38793.611912037246
1710999945799,38556.38229208393
1710999945840,37555.32017116924
1710999945880,37211.85327240196
1710999945920,37085.412822977174
1710999945960,36395.77528521279
1710999946000,36336.77057908545
1710999946040,36010.12544960156
1710999946080,35142.99276856356
1710999946121,34932.61663408717
1710999946160,34566.4682455319
1710999946200,34566.4682455319
1710999946241,34566.4682455319
1710999946281,30907.70074085961
1710999946321,29915.128171720775
1710999946361,28170.382398296613
1710999946401,27656.499839253724
1710999946441,25944.08828719938
1710999946481,25938.992006849498
1710999946522,25723.81647257274
1710999946561,22861.405854742974
1710999946602,21678.826366051566
1710999946641,21316.612975901924
1710999946682,18268.509275704622
1710999946722,18010.54507281771
1710999946762,17400.47187813744
1710999946802,16614.89843472466
1710999946842,16113.6879206046
1710999946882,16000.527163468767
1710999946923,15787.06288614124
1710999946963,13024.500866073184
1710999947002,11928.858385485131
1710999947043,11583.412981066853
1710999947083,10164.031321003102
1710999947123,9142.947399424855
1710999947163,8665.618696679361
1710999947203,8665.618696679361
1710999947243,8571.656999134459
1710999947283,8131.066825333051
1710999947324,7173.335349632427
1710999947363,7151.092850666959
1710999947404,6855.149117917754
1710999947444,5859.802465716843
1710999947484,5437.710752690211
1710999947525,5097.037675430067
1710999947564,4716.964633792639
1710999947604,4716.964633792639
1710999947644,4716.964633792639
1710999947684,5097.037675430067
1710999947725,5734.461753819138
1710999947765,5859.802465716843
1710999947805,5859.802465716843
1710999947845,6855.149117917754
1710999947885,7033.367885214277
1710999947926,7033.367885214277
1710999947965,7033.367885214277
1710999948005,7033.367885214277
1710999948045,5828.819068382494
1710999948085,5734.461753819138
1710999948126,5734.461753819138
1710999948166,5734.461753819138
1710999948206,5734.461753819138
1710999948246,5734.461753819138
1710999948286,5734.461753819138
1710999948327,5734.461753819138
1710999948366,5734.461753819138
1710999948406,5734.461753819138
1710999948446,3419.3003360256553
1710999948487,2899.1999436756596
1710999948528,1873.5603155423887
1710999948567,-924.2324610194191
1710999948607,-1589.71485460829
1710999948647,-1589.71485460829
1710999948687,-1589.71485460829
1710999948728,-1589.71485460829
1710999948767,-1589.71485460829
1710999948808,-1589.71485460829
1710999948848,-1589.71485460829
1710999948888,-1589.71485460829
1710999948929,-1589.71485460829
1710999948968,-1589.71485460829
1710999949008,-924.2324610194191
1710999949048,3107.0059708468616
1710999949088,4588.634444788098
1710999949129,5068.287438972853
1710999949169,5068.287438972853
1710999949209,5068.287438972853
1710999949249,5068.287438972853
1710999949289,5068.287438972853
1710999949330,5068.287438972853
1710999949369,5068.287438972853
1710999949409,5068.287438972853
1710999949449,5068.287438972853
1710999949490,5068.287438972853
1710999949531,4988.562149718404
1710999949570,4988.562149718404
1710999949610,4953.14244738128
1710999949650,4258.839788619429
1710999949690,4202.798056277446
1710999949731,4202.798056277446
1710999949771,4202.798056277446
1710999949811,4202.798056277446
1710999949851,4202.798056277446
1710999949891,4202.798056277446
1710999949932,4202.798056277446
1710999949971,4202.798056277446
1710999950011,4258.839788619429
1710999950051,4352.239903556183
1710999950092,4258.839788619429
1710999950132,4258.839788619429
1710999950172,4202.798056277446
1710999950212,4202.798056277446
1710999950252,3903.0867049745284
1710999950292,3903.0867049745284
1710999950333,3903.0867049745284
1710999950372,3903.0867049745284
1710999950412,4247.357057555113
1710999950453,4258.839788619429
1710999950493,4247.357057555113
1710999950534,4352.239903556183
1710999950573,4702.741292595863
1710999950613,4705.896687041037
1710999950653,4705.896687041037
1710999950693,4705.896687041037
1710999950734,4705.896687041037
1710999950773,4964.629856440704
1710999950814,4966.448288541287
1710999950854,4966.448288541287
1710999950894,5027.950077853631
1710999950935,5155.1098187742755
1710999950974,5166.385760321282
1710999951014,5817.0083839008585
1710999951054,5911.92546248436
1710999951094,6359.575814099051
1710999951135,6512.3169554891065
1710999951174,6512.3169554891065
1710999951215,6512.3169554891065
1710999951255,6512.3169554891065
1710999951295,6512.3169554891065
1710999951336,6512.3169554891065
1710999951375,6512.3169554891065
1710999951415,6512.3169554891065
1710999951455,6512.3169554891065
1710999951495,6359.575814099051
1710999951536,5911.92546248436
1710999951575,3372.8179413042963
1710999951615,1700.4181589935906
1710999951656,776.2835459550843
1710999951696,-2143.04316812288
1710999951736,-3492.640043065883
1710999951776,-4585.282052507624
1710999951816,-5305.25169948861
1710999951856,-5305.25169948861
1710999951896,-5305.25169948861
1710999951937,-5452.502697392367
1710999951976,-5452.502697392367
1710999952017,-5452.502697392367
1710999952057,-5961.3030171412975
1710999952097,-5961.3030171412975
1710999952138,-6069.167743478902
1710999952177,-6238.635612399317
1710999952217,-6345.367097350769
1710999952257,-6478.177878882736
1710999952297,-6478.177878882736
1710999952338,-6916.543358406052
1710999952377,-6916.543358406052
1710999952417,-6916.543358406052
1710999952458,-7690.937615078874
1710999952498,-7715.187031446956
1710999952538,-7715.187031446956
1710999952578,-11044.599640293978
1710999952618,-11839.020160466433
1710999952658,-11896.119514164515
1710999952698,-11896.119514164515
1710999952739,-11896.119514164515
1710999952778,-11896.119514164515
1710999952818,-11896.119514164515
1710999952859,-11896.119514164515
1710999952899,-11896.119514164515
1710999952939,-11896.119514164515
1710999952979,-11896.119514164515
1710999953019,-11839.020160466433
1710999953059,-11420.36537318211
1710999953099,-11044.599640293978
1710999953140,-10757.285340995062
1710999953179,-9099.349074229598
1710999953220,-8660.154967697337
1710999953260,-7841.042691654991
1710999953300,-7479.934228882194
1710999953341,-7354.804836334661
1710999953380,-7105.848253797274
1710999953420,-6567.933963959105
1710999953460,-5797.014733982272
1710999953500,-5545.043882778846
1710999953541,-5287.33233347768
1710999953581,-4986.330217618961
1710999953621,-4420.566506471485
1710999953661,-4339.675848122686
1710999953701,-4196.972636869643
1710999953742,-4048.4648611992598
1710999953781,-2811.6341213006526
1710999953821,-2811.6341213006526
1710999953861,-1087.2428958239034
1710999953901,560.0129320286214
1710999953942,2428.841390190646
1710999953982,2428.841390190646
1710999954022,2428.841390190646
1710999954062,2428.841390190646
1710999954102,2428.841390190646
1710999954143,2428.841390190646
1710999954182,2428.841390190646
1710999954222,2428.841390190646
1710999954262,2428.841390190646
1710999954303,2428.841390190646
1710999954343,2428.841390190646
1710999954383,-2417.828826013487
1710999954423,-4302.794609488919
1710999954463,-6506.561357285827
1710999954503,-6710.721856550779
1710999954544,-6733.6511578965
1710999954583,-8000.118036207743
1710999954624,-8000.118036207743
1710999954664,-8000.118036207743
1710999954704,-8000.118036207743
1710999954745,-8000.118036207743
1710999954784,-8380.222295056097
1710999954824,-8587.938974722289
1710999954864,-8969.497815238312
1710999954904,-8969.497815238312
1710999954945,-8969.497815238312
1710999954984,-8969.497815238312
1710999955025,-8969.497815238312
1710999955065,-8969.497815238312
1710999955105,-8587.938974722289
1710999955146,-8265.571470022202
1710999955185,-7621.125468713231
1710999955225,-7588.199958689511
1710999955265,-7549.024623510428
1710999955305,-6570.265999672003
1710999955346,-5961.879270208068
1710999955386,-5252.096989079844
1710999955426,-3900.6305120582692
1710999955466,-1734.6752119828016
1710999955506,217.66270439280197
1710999955547,1220.887111224234
1710999955586,1322.0387969091535
1710999955627,1322.0387969091535
1710999955667,1480.137174605159
1710999955707,1537.6869257716462
1710999955748,2576.276851996314
1710999955787,2667.154578797519
1710999955827,2893.151771438308
1710999955867,2896.0117462426424
1710999955907,3433.973001223523
1710999955948,4227.485665007494
1710999955988,4470.575365672354
1710999956028,4579.448049674742
1710999956068,5976.068748200312
1710999956108,5998.730204490479
1710999956149,6284.781159765087
1710999956188,9643.241842601448
1710999956228,11257.547134578694
1710999956268,11257.547134578694
1710999956308,11257.547134578694
1710999956349,11257.547134578694
1710999956389,11257.547134578694
1710999956429,11257.547134578694
1710999956474,11257.547134578694
1710999956514,11257.547134578694
1710999956555,11257.547134578694
1710999956594,11257.547134578694
1710999956634,11257.547134578694
1710999956674,6591.441375573631
1710999956715,1260.5323787843809
1710999956755,-3860.3288739775307
1710999956795,-8408.969214069191
1710999956835,-8408.969214069191
1710999956875,-8408.969214069191
1710999956915,-8408.969214069191
1710999956956,-8408.969214069191
1710999956996,-8408.969214069191
1710999957036,-8408.969214069191
1710999957076,-12344.344199428335
1710999957116,-14173.640165487304
1710999957157,-14886.828209423926
1710999957196,-18297.872126791626
1710999957236,-18297.872126791626
1710999957276,-18297.872126791626
1710999957316,-18297.872126791626
1710999957357,-17026.734273989685
1710999957396,-17026.734273989685
1710999957437,-12002.035256011412
1710999957477,-8628.51503534196
1710999957517,-3668.246688697487
1710999957557,-2210.599281567149
1710999957597,1114.3994228951633
1710999957637,6424.939456851687
1710999957677,7454.832554720109
1710999957717,12074.283027558587
1710999957758,13581.51308933366
1710999957797,13581.51308933366
1710999957837,13581.51308933366
1710999957877,21493.693175259512
1710999957918,22408.144121387042
1710999957958,22539.879187849816
1710999957998,25074.575115572196
1710999958038,25733.610293279402
1710999958078,25733.610293279402
1710999958118,25733.610293279402
1710999958159,25733.610293279402
1710999958198,25733.610293279402
1710999958238,25733.610293279402
1710999958278,25733.610293279402
1710999958318,25733.610293279402
1710999958359,25733.610293279402
1710999958399,25733.610293279402
1710999958439,25733.610293279402
1710999958479,22954.797105704434
1710999958519,218.66547457920387
1710999958560,-8257.98298111977
1710999958599,-12612.335886189714
1710999958639,-13850.337989826687
1710999958679,-13850.337989826687
1710999958719,-13850.337989826687
1710999958760,-13850.337989826687
1710999958800,-13850.337989826687
1710999958840,-13850.337989826687
1710999958880,-13850.337989826687
1710999958920,-13850.337989826687
1710999958961,-13850.337989826687
1710999959000,-12612.335886189714
1710999959040,-11434.501308382489
1710999959080,-10920.652115997858
1710999959121,-9516.535258704796
1710999959161,-8257.98298111977
1710999959201,-817.1952774766833
1710999959241,2545.6812126552686
1710999959281,2545.6812126552686
1710999959321,2545.6812126552686
1710999959362,2545.6812126552686
1710999959401,2545.6812126552686
1710999959441,2545.6812126552686
1710999959481,2545.6812126552686
1710999959521,2545.6812126552686
1710999959562,2545.6812126552686
1710999959602,2545.6812126552686
1710999959642,2545.6812126552686
1710999959682,-10109.430772187188
1710999959722,-15460.136033829767
1710999959763,-16435.885966082104
1710999959802,-19053.240347079
1710999959842,-22762.995154908393
1710999959882,-24660.233701710124
1710999959922,-26245.1254941253
1710999959963,-27201.245368808042
1710999960003,-27201.245368808042
1710999960043,-27201.245368808042
1710999960083,-27201.245368808042
1710999960123,-27201.245368808042
1710999960164,-27201.245368808042
1710999960203,-27201.245368808042
1710999960243,-27779.254399991594
1710999960283,-28106.838009947445
1710999960324,-28106.838009947445
1710999960364,-32696.111259705387
1710999960404,-35164.41929967422
1710999960444,-36160.13187841652
1710999960484,-39992.55459850188
1710999960524,-41121.5018693367
1710999960565,-49419.80661999178
1710999960604,-50672.112930533476
1710999960644,-49419.80661999178
1710999960684,-46088.05987654161
1710999960724,-45480.740955756046
1710999960765,-45480.740955756046
1710999960805,-45480.740955756046
1710999960845,-46088.05987654161
1710999960885,-46088.05987654161
1710999960925,-46088.05987654161
1710999960966,-46088.05987654161
1710999961005,-46088.05987654161
1710999961045,-46088.05987654161
1710999961085,-46088.05987654161
1710999961125,-45480.740955756046
1710999961166,-44303.14266284369
1710999961206,-41747.33570303675
1710999961246,-40862.68736954732
1710999961286,-35963.337016396224
1710999961326,-23851.344280385878
1710999961367,-19533.671367787756
1710999961406,-19533.671367787756
1710999961446,-19533.671367787756
1710999961486,-19533.671367787756
1710999961527,-19533.671367787756
1710999961567,-19533.671367787756
1710999961607,-19533.671367787756
1710999961647,-19533.671367787756
1710999961687,-19533.671367787756
1710999961727,-19533.671367787756
1710999961768,-19533.671367787756
1710999961807,-42653.390255740844
1710999961847,-44087.68872932135
1710999961888,-50829.253086798824
1710999961928,-52336.655794961844
1710999961969,-53973.61051507713
1710999962008,-57617.503535483265
1710999962048,-59259.57914721919
1710999962088,-60382.595833701314
1710999962128,-63476.93211726518
1710999962169,-64291.942800891586
1710999962209,-65579.77063035453
1710999962249,-65579.77063035453
1710999962289,-65579.77063035453
1710999962329,-66303.27283108654
1710999962370,-67016.50433707284
1710999962409,-68741.87858152995
1710999962449,-72392.14882746851
1710999962489,-74843.73942535114
1710999962529,-75988.85872937832
1710999962570,-76279.12856026134
1710999962610,-76279.12856026134
1710999962650,-77357.95702016447
1710999962690,-77357.95702016447
1710999962730,-78243.95374832395
1710999962771,-78745.67486864701
1710999962810,-88334.34974151012
1710999962851,-88334.34974151012
1710999962891,-88334.34974151012
1710999962931,-88334.34974151012
1710999962972,-88334.34974151012
1710999963011,-88334.34974151012
1710999963051,-88334.34974151012
1710999963091,-88334.34974151012
1710999963131,-88334.34974151012
1710999963172,-88334.34974151012
1710999963212,-88334.34974151012
1710999963252,-88334.34974151012
1710999963292,-88334.34974151012
1710999963332,-88334.34974151012
1710999963373,-87201.19729300682
1710999963412,-86481.68110533734
1710999963452,-85194.22510663373
1710999963492,-84868.74261666718
1710999963533,-83809.38011962455
1710999963574,-82254.96889312332
1710999963613,-81570.45595330186
1710999963653,-79729.5121576977
1710999963693,-78825.36391950143
1710999963733,-78067.36396129243
1710999963774,-76434.90880376683
1710999963814,-76434.90880376683
1710999963854,-76434.90880376683
1710999963894,-76434.90880376683
1710999963934,-76434.90880376683
1710999963974,-76434.90880376683
1710999964014,-72606.9150925458
1710999964054,-68600.9836534122
1710999964094,-68014.16298821662
1710999964134,-67548.27177955443
1710999964175,-66480.87485936005
1710999964214,-65422.73901545489
1710999964254,-64208.744863999775
1710999964295,-62675.64564946317
1710999964334,-60655.275068382034
1710999964375,-60619.13257808774
1710999964415,-60248.45618861448
1710999964455,-58954.21291524521
1710999964495,-57072.2974507187
1710999964535,-56481.706075182185
1710999964576,-54364.110802962445
1710999964618,-52393.874670671765
1710999964655,-52332.150885399664
1710999964695,-52332.150885399664
1710999964735,-52332.150885399664
1710999964776,-51286.34562105383
1710999964816,-47992.89507923834
1710999964856,-43979.121449769475
1710999964896,-40209.82101385179
1710999964936,-39983.61637941771
1710999964977,-39783.50782510592
1710999965016,-37819.65350261959
1710999965056,-37649.424314075615
1710999965096,-36122.39124732651
1710999965136,-35798.70865040505
1710999965177,-33684.436084787594
1710999965216,-32715.864754611393
1710999965257,-32061.46197444806
1710999965297,-31870.30450976547
1710999965337,-30908.934740297496
1710999965378,-28757.70530466456
1710999965417,-28422.39761566231
1710999965457,-26061.62456500996
1710999965497,-26061.62456500996
1710999965537,-26061.62456500996
1710999965578,-26061.62456500996
1710999965618,-22749.385703699198
1710999965657,-18519.02430604631
1710999965698,-14541.24358026823
1710999965738,-10725.819808995118
1710999965778,-7271.23833252443
1710999965818,-6862.320375584997
1710999965858,-6721.379841168411
1710999965898,-6184.926644451683
1710999965938,-5575.063329020049
1710999965979,-4612.565051979851
1710999966018,-3925.007944891695
1710999966059,-3675.1787741831504
1710999966099,-3675.1730847414583
1710999966139,-2972.998477838002
1710999966179,-2950.444304153323
1710999966219,-2467.492585137021
1710999966259,-2170.471432420891
1710999966299,-2467.492585137021
1710999966339,-2950.444304153323
1710999966380,-3675.1730847414583
1710999966419,-3675.1730847414583
1710999966460,-3675.1730847414583
1710999966500,-3675.1730847414583
1710999966540,-3675.1730847414583
1710999966581,-3675.1730847414583
1710999966620,-3675.1730847414583
1710999966660,-3675.1787741831504
1710999966700,-10557.780379837379
1710999966740,-18855.337859551655
1710999966781,-18855.337859551655
1710999966824,-18855.337859551655
1710999966861,-18855.337859551655
1710999966901,-18855.337859551655
1710999966941,-18855.337859551655
1710999966982,-18855.337859551655
1710999967021,-18855.337859551655
1710999967061,-20952.511482227128
1710999967101,-23077.348000977654
1710999967141,-23978.57570988685
1710999967182,-24901.535719707143
1710999967222,-25087.886711141095
1710999967262,-25087.886711141095
1710999967302,-25087.886711141095
1710999967342,-25675.545913356356
1710999967383,-26243.125693643
1710999967422,-25966.80321264267
1710999967462,-25087.886711141095
1710999967502,-23337.435647321865
1710999967543,-23337.435647321865
1710999967583,-23337.435647321865
1710999967623,-23337.435647321865
1710999967663,-23337.435647321865
1710999967703,-23337.435647321865
1710999967743,-23337.435647321865
1710999967784,-23337.435647321865
1710999967823,-23337.435647321865
1710999967863,-24012.656699758954
1710999967904,-24012.656699758954
1710999967944,-24012.656699758954
1710999967985,-24012.656699758954
1710999968024,-23876.278076020535
1710999968064,-23337.435647321865
1710999968104,-23196.404274663422
1710999968144,-22563.290770467836
1710999968185,-21221.5108470954
1710999968225,-20416.208099573385
1710999968265,-18833.450321656885
1710999968305,-17313.761474696454
1710999968345,-17246.375398163917
1710999968386,-16125.323998396518
1710999968425,-16125.323998396518
1710999968465,-16125.323998396518
1710999968502,-16125.323998396518
1710999968542,-16125.323998396518
1710999968583,-16125.323998396518
1710999968623,-16125.323998396518
1710999968663,-16125.323998396518
1710999968703,-16125.323998396518
1710999968743,-16125.323998396518
1710999968784,-16125.323998396518
1710999968823,-16125.323998396518
1710999968863,-16125.323998396518
1710999968903,-16125.323998396518
1710999968943,-16125.323998396518
1710999968984,-15770.423840962816
1710999969024,-13672.941582742613
1710999969064,-13017.625764170196
1710999969104,-13017.625764170196
1710999969144,-13017.625764170196
1710999969185,-13017.625764170196
1710999969224,-13017.625764170196
1710999969264,-13017.625764170196
1710999969305,-13017.625764170196
1710999969345,-13017.625764170196
1710999969385,-13017.625764170196
1710999969425,-13017.625764170196
1710999969465,-10959.297417061869
1710999969505,-10959.297417061869
1710999969545,-10959.297417061869
1710999969586,-10959.297417061869
1710999969625,-10844.898071828764
1710999969666,-10535.481621554587
1710999969706,-10396.223095461726
1710999969746,-10396.223095461726
1710999969787,-10118.191584364977
1710999969826,-9875.262444338994
1710999969866,-8754.578184291022
1710999969907,-8043.350321541773
1710999969947,-7015.213386389427
1710999969987,-7015.213386389427
1710999970027,-7015.213386389427
1710999970067,-7015.213386389427
1710999970107,-7015.213386389427
1710999970147,-7015.213386389427
1710999970188,-8754.578184291022
1710999970228,-9875.262444338994
1710999970268,-10118.191584364977
1710999970308,-10118.191584364977
1710999970348,-10118.191584364977
1710999970389,-10118.191584364977
1710999970428,-10118.191584364977
1710999970468,-10118.191584364977
1710999970508,-10396.223095461726
1710999970549,-10493.860764320707
1710999970589,-10939.450893347384
1710999970629,-10939.450893347384
1710999970669,-10939.450893347384
1710999970709,-10939.450893347384
1710999970749,-10939.450893347384
1710999970790,-10939.450893347384
1710999970829,-10939.450893347384
1710999970869,-10939.450893347384
1710999970910,-10939.450893347384
1710999970949,-10939.450893347384
1710999970990,-11984.751570109045
1710999971030,-13606.63597668428
1710999971070,-13606.63597668428
1710999971110,-13606.63597668428
1710999971150,-13606.63597668428
1710999971191,-13606.63597668428
1710999971230,-13606.63597668428
1710999971270,-13606.63597668428
1710999971310,-13606.63597668428
1710999971350,-13606.63597668428
1710999971391,-11984.751570109045
1710999971431,-11150.880645136815
1710999971471,-11150.880645136815
1710999971511,-11150.880645136815
1710999971551,-11150.880645136815
1710999971592,-11150.880645136815
1710999971631,-11150.880645136815
1710999971671,-11150.880645136815
1710999971711,-11150.880645136815
1710999971751,-11150.880645136815
1710999971792,-11150.880645136815
1710999971832,-11150.880645136815
1710999971872,-11150.880645136815
1710999971912,-11150.880645136815
1710999971952,-11150.880645136815
1710999971993,-11061.384333644062
1710999972032,-10381.383482869482
1710999972072,-9192.642007467803
1710999972112,-8549.91486452194
1710999972152,-6957.132649300387
1710999972193,-6704.536415422335
1710999972233,-5442.642571469303
1710999972273,-4028.1588951987214
1710999972313,-2735.7501154921483
1710999972353,-664.122205602238
1710999972394,-664.122205602238
1710999972433,-664.122205602238
1710999972473,-664.122205602238
1710999972513,-664.122205602238
1710999972553,-664.122205602238
1710999972594,-664.122205602238
1710999972634,2833.925511186477
1710999972674,4494.613691490376
1710999972714,5678.518654364627
1710999972754,5706.756042673951
1710999972795,5776.927599898074
1710999972834,7073.117952870671
1710999972874,8744.559024963994
1710999972914,9553.437749851495
1710999972954,9897.573808382964
1710999972995,11567.668980987975
1710999973034,12604.57485022908
1710999973075,13910.419294012943
1710999973115,15677.153545308858
1710999973155,16153.884065858554
1710999973196,16400.298597716726
1710999973235,18621.31697479682
1710999973275,19147.664546011947
1710999973315,20793.831811056938
1710999973355,21670.556061991956
1710999973396,24235.203473381698
1710999973436,24235.203473381698
1710999973476,24235.203473381698
1710999973516,24235.203473381698
1710999973556,24235.203473381698
1710999973596,24235.203473381698
1710999973636,24235.203473381698
1710999973676,24235.203473381698
1710999973716,24235.203473381698
1710999973756,24235.203473381698
1710999973797,24235.203473381698
1710999973836,16336.355465075001
1710999973876,10190.794642511522
1710999973917,10190.794642511522
1710999973957,10190.794642511522
1710999973997,10190.794642511522
1710999974037,10190.794642511522
1710999974077,10190.794642511522
1710999974117,10190.794642511522
1710999974157,10190.794642511522
1710999974198,9800.26504062349
1710999974237,8630.28676259704
1710999974278,7057.283580123447
1710999974318,6761.255519856466
1710999974358,6465.614036875777
1710999974399,6465.614036875777
1710999974438,6127.553319700994
1710999974478,6020.985828070436
1710999974518,5478.595238905167
1710999974558,5478.595238905167
1710999974599,4204.213155852864
1710999974639,762.3288862402551
1710999974679,762.3288862402551
1710999974719,762.3288862402551
1710999974759,762.3288862402551
1710999974800,762.3288862402551
1710999974839,762.3288862402551
1710999974879,762.3288862402551
1710999974919,762.3288862402551
1710999974959,762.3288862402551
1710999975000,-1274.7227937700227
1710999975040,-1386.3218446080573
1710999975080,-3403.362862651702
1710999975120,-3403.362862651702
1710999975160,-3403.362862651702
1710999975201,-3403.362862651702
1710999975240,-3403.362862651702
1710999975280,-3403.362862651702
1710999975320,-3403.362862651702
1710999975360,-2308.4646668510977
1710999975401,-1274.7227937700227
1710999975441,537.2742626969703
1710999975481,537.2742626969703
1710999975521,537.2742626969703
1710999975561,537.2742626969703
1710999975602,537.2742626969703
1710999975641,537.2742626969703
1710999975681,537.2742626969703
1710999975722,537.2742626969703
1710999975762,537.2742626969703
1710999975803,-2308.4646668510977
1710999975842,-2308.4646668510977
1710999975882,-2308.4646668510977
1710999975922,-2308.4646668510977
1710999975962,-2308.4646668510977
1710999976003,-2308.4646668510977
1710999976042,-2308.4646668510977
1710999976083,-2308.4646668510977
1710999976123,-2308.4646668510977
1710999976163,-2308.4646668510977
1710999976204,-4052.9601089926437
1710999976243,-4627.440004196949
1710999976283,-4627.440004196949
1710999976323,-4627.440004196949
1710999976363,-4627.440004196949
1710999976404,-4627.440004196949
1710999976444,-4627.440004196949
1710999976484,-4627.440004196949
1710999976524,-4627.440004196949
1710999976564,-4627.440004196949
1710999976605,-4627.440004196949
1710999976644,-4627.440004196949
1710999976684,-4627.440004196949
1710999976725,-4627.440004196949
1710999976765,-4627.440004196949
1710999976806,-4627.440004196949
1710999976845,-4627.440004196949
1710999976885,-4627.440004196949
1710999976925,-4627.440004196949
1710999976965,-4627.440004196949
1710999977006,-4627.440004196949
1710999977046,-4627.440004196949
1710999977085,-5355.887442623498
1710999977126,-13288.530412524706
1710999977166,-17435.25261634821
1710999977206,-17435.25261634821
1710999977246,-17435.25261634821
1710999977286,-17435.25261634821
1710999977326,-17435.25261634821
1710999977366,-17435.25261634821
1710999977407,-17435.25261634821
1710999977446,-17435.25261634821
1710999977486,-17435.25261634821
1710999977526,-17435.25261634821
1710999977566,-17435.25261634821
1710999977607,-14819.166304316837
1710999977647,-12574.50519780768
1710999977687,-12574.50519780768
1710999977727,-12574.50519780768
1710999977767,-12574.50519780768
1710999977808,-12574.50519780768
1710999977847,-12574.50519780768
1710999977887,-12574.50519780768
1710999977927,-12574.50519780768
1710999977967,-12574.50519780768
1710999978008,-12574.50519780768
1710999978047,-12574.50519780768
1710999978087,-12574.50519780768
1710999978128,-12574.50519780768
1710999978168,-12574.50519780768
1710999978208,-12574.50519780768
1710999978248,-12574.50519780768
1710999978288,-12574.50519780768
1710999978328,-12574.50519780768
1710999978368,-12574.50519780768
1710999978409,-12574.50519780768
1710999978448,-12574.50519780768
1710999978488,-10095.071392079117
1710999978528,-7301.297062280588
1710999978568,-7301.297062280588
1710999978609,-7301.297062280588
1710999978649,-7301.297062280588
1710999978689,-7301.297062280588
1710999978729,-7301.297062280588
1710999978769,-7301.297062280588
1710999978810,-7301.297062280588
1710999978849,-7301.297062280588
1710999978889,-7301.297062280588
1710999978929,-7301.297062280588
1710999978969,-5617.628741396591
1710999979010,-5617.628741396591
1710999979050,-5617.628741396591
1710999979090,-5617.628741396591
1710999979130,-5617.628741396591
1710999979170,-5617.628741396591
1710999979211,-5617.628741396591
1710999979250,-5617.628741396591
1710999979290,-5617.628741396591
1710999979330,-5617.628741396591
1710999979370,-5617.628741396591
1710999979411,-2866.4605499852914
1710999979450,61.713249754626304
1710999979490,61.713249754626304
1710999979531,61.713249754626304
1710999979571,61.713249754626304
1710999979611,61.713249754626304
1710999979651,61.713249754626304
1710999979691,61.713249754626304
1710999979731,61.713249754626304
1710999979771,61.713249754626304
1710999979812,61.713249754626304
1710999979851,61.713249754626304
1710999979891,-4314.958535311045
1710999979932,-4314.958535311045
1710999979972,-4314.958535311045
1710999980012,-4314.958535311045
1710999980052,-4314.958535311045
1710999980092,-4314.958535311045
1710999980132,-4314.958535311045
1710999980172,-4314.958535311045
1710999980213,-4314.958535311045
1710999980252,-4314.958535311045
1710999980293,-4314.958535311045
1710999980333,-1651.85392447724
1710999980373,499.9134445474483
1710999980414,499.9134445474483
1710999980453,499.9134445474483
1710999980493,499.9134445474483
1710999980535,499.9134445474483
1710999980575,499.9134445474483
1710999980616,499.9134445474483
1710999980655,499.9134445474483
1710999980695,499.9134445474483
1710999980736,499.9134445474483
1710999980776,499.9134445474483
1710999980816,1652.0337733500637
1710999980856,1652.0337733500637
1710999980896,1652.0337733500637
1710999980936,1652.0337733500637
1710999980976,1652.0337733500637
1710999981017,1652.0337733500637
1710999981056,1652.0337733500637
1710999981097,1652.0337733500637
1710999981137,1652.0337733500637
1710999981177,1652.0337733500637
1710999981218,1652.0337733500637
1710999981257,3920.2604408285115
1710999981297,6151.146631057374
1710999981337,7465.450529326918
1710999981377,7465.450529326918
1710999981418,8167.983846238349
1710999981458,8971.606391250854
1710999981498,9209.823983516544
1710999981538,9209.823983516544
1710999981578,9209.823983516544
1710999981619,9533.911390630528
1710999981658,9751.43411217304
1710999981698,9781.204015574884
1710999981739,11253.16175069986
1710999981779,11299.586789678317
1710999981820,12993.414390193764
1710999981859,12993.414390193764
1710999981899,12993.414390193764
1710999981939,12993.414390193764
1710999981979,12993.414390193764
1710999982020,12993.414390193764
1710999982060,12292.844244669657
1710999982100,11299.586789678317
1710999982140,11299.586789678317
1710999982180,11299.586789678317
1710999982221,11299.586789678317
1710999982260,11299.586789678317
1710999982300,11299.586789678317
1710999982340,11299.586789678317
1710999982380,11299.586789678317
1710999982421,11299.586789678317
1710999982461,11299.586789678317
1710999982501,11773.83394554304
1710999982541,11773.83394554304
1710999982581,11773.83394554304
1710999982622,11773.83394554304
1710999982661,11773.83394554304
1710999982702,11773.83394554304
1710999982741,11773.83394554304
1710999982781,10214.267041808926
1710999982822,9167.705485251267
1710999982862,8894.978594667744
1710999982902,8446.415279957466
1710999982942,8170.43692077836
1710999982982,8170.43692077836
1710999983023,8170.43692077836
1710999983062,8170.43692077836
1710999983103,8107.108193450607
1710999983143,7895.203596269246
1710999983183,7895.203596269246
1710999983224,4643.533477311721
1710999983263,3243.5262734268326
1710999983303,2420.158946036827
1710999983343,2296.6125530314166
1710999983383,2296.6125530314166
1710999983424,2296.6125530314166
1710999983463,2296.6125530314166
1710999983504,1939.3473829464056
1710999983544,1265.4532979009673
1710999983584,165.40023158024997
1710999983625,-565.5878509047907
1710999983664,-1643.3393237362616
1710999983704,-2452.8632126208395
1710999983744,-2552.8480319199152
1710999983785,-3500.4047106236685
1710999983825,-3756.379997694632
1710999983865,-3994.0919405519962
1710999983905,-4138.895478395047
1710999983945,-5384.232999643777
1710999983985,-5384.232999643777
1710999984026,-5384.232999643777
1710999984065,-5384.232999643777
1710999984105,-5384.232999643777
1710999984146,-5384.232999643777
1710999984186,-5384.232999643777
1710999984226,-5384.232999643777
1710999984266,-5384.232999643777
1710999984306,-5384.232999643777
1710999984346,-5384.232999643777
1710999984386,-5384.232999643777
1710999984427,-5384.232999643777
1710999984466,-5384.232999643777
1710999984506,-5384.232999643777
1710999984546,-5384.232999643777
1710999984586,-5384.232999643777
1710999984627,-5384.232999643777
1710999984666,-5384.232999643777
1710999984707,-5384.232999643777
1710999984747,-5384.232999643777
1710999984787,-4402.9429937428795
1710999984828,-4402.9429937428795
1710999984867,-4402.9429937428795
1710999984907,-4402.9429937428795
1710999984947,-4402.9429937428795
1710999984987,-4402.9429937428795
1710999985028,-4402.9429937428795
1710999985067,-4402.9429937428795
1710999985108,-4402.9429937428795
1710999985148,-4402.9429937428795
1710999985188,-4402.9429937428795
1710999985229,-2323.347651197808
1710999985268,-2323.347651197808
1710999985308,-2323.347651197808
1710999985348,-2323.347651197808
1710999985388,-2323.347651197808
1710999985429,-2323.347651197808
1710999985469,-2323.347651197808
1710999985509,-2323.347651197808
1710999985549,-2323.347651197808
1710999985589,-2323.347651197808
1710999985629,-2323.347651197808
1710999985669,-4508.227726249956
1710999985709,-7307.475501121022
1710999985749,-8747.669981904794
1710999985789,-9738.862286821473
1710999985830,-9738.862286821473
1710999985869,-9738.862286821473
1710999985909,-9738.862286821473
1710999985950,-10303.305907257833
1710999985990,-10969.708798714215
1710999986030,-11343.963096797
1710999986070,-11413.148149280343
1710999986110,-12555.548153567128
1710999986150,-13864.633004450705
1710999986190,-14356.893880629446
1710999986231,-15355.073749436531
1710999986270,-15564.628210234689
1710999986310,-16153.528462915681
1710999986350,-16174.789673329098
1710999986391,-19101.947098306846
1710999986431,-24922.45182833774
1710999986471,-24922.45182833774
1710999986511,-24922.45182833774
1710999986551,-24922.45182833774
1710999986591,-24922.45182833774
1710999986632,-24922.45182833774
1710999986672,-24922.45182833774
1710999986711,-24922.45182833774
1710999986752,-24922.45182833774
1710999986792,-24922.45182833774
1710999986833,-24922.45182833774
1710999986872,-21788.294418348465
1710999986912,-18693.147105386015
1710999986952,-16019.556604500161
1710999986992,-12529.649914239068
1710999987033,-8372.975790823344
1710999987072,-4106.415770986583
1710999987113,-3604.487799695693
1710999987153,-2940.0460359533317
1710999987193,-2828.114625492599
1710999987234,-432.9226865370292
1710999987273,131.5405892105773
1710999987313,564.4905788814649
1710999987353,3090.719574027229
1710999987394,5877.077723490307
1710999987434,9121.770135290455
1710999987474,12831.074745113961
1710999987514,16474.760223951656
1710999987554,20138.15914188698
1710999987594,25491.715714515653
1710999987635,31044.546893873485
1710999987674,34646.69463559729
1710999987715,38692.93709389772
1710999987755,40358.10909013124
1710999987795,40621.817221696954
1710999987836,41309.70993570238
1710999987875,41913.35098761367
1710999987915,42654.30695611192
1710999987955,42959.266994711244
1710999987996,44834.181653402746
1710999988036,45121.17954856716
1710999988076,45815.8294874439
1710999988116,46867.34536390286
1710999988156,47924.25464061438
1710999988196,48162.31905918731
1710999988237,49468.503128168406
1710999988276,50392.99166016304
1710999988317,50400.12578635197
1710999988357,50400.12578635197
1710999988397,54316.75248116162
1710999988438,64055.98575755302
1710999988477,71283.39183259057
1710999988517,81640.24662908074
1710999988557,91091.96263416391
1710999988598,99919.39122991031
1710999988638,106983.27520113811
1710999988678,108199.52815031237
1710999988718,108634.17224036064
1710999988758,110233.15877136262
1710999988798,111813.96407808969
1710999988839,111989.70082560158
1710999988879,112472.84845553199
1710999988919,112544.30419561989
1710999988959,113570.61962204613
1710999988999,115663.42544043297
1710999989040,116057.48437682725
1710999989079,122126.10304802097
1710999989119,127008.6514727869
1710999989159,132487.30067916866
1710999989200,132487.30067916866
1710999989240,132487.30067916866
1710999989280,132487.30067916866
1710999989320,132487.30067916866
1710999989360,132487.30067916866
1710999989400,132487.30067916866
1710999989441,132487.30067916866
1710999989481,132487.30067916866
1710999989521,132487.30067916866
1710999989561,132487.30067916866
1710999989601,127827.81960418541
1710999989642,123760.34139090404
1710999989681,119919.76651996817
1710999989722,111080.20948852831
1710999989762,108073.55554276775
1710999989802,102151.39084720379
1710999989843,97050.37376352632
1710999989882,92597.04749306524
1710999989922,85406.19448265177
1710999989962,82167.60443155817
1710999990002,76129.76326165465
1710999990043,71904.1415181628
1710999990083,67283.60699712136
1710999990123,62407.41836202401
1710999990163,58711.90935212723
1710999990203,54539.63445399329
1710999990244,50253.19200039981
1710999990283,48100.51974132634
1710999990323,45835.012693319935
1710999990363,42237.133432418574
1710999990404,41326.37791218469
1710999990444,37051.34512744914
1710999990484,33231.2652186146
1710999990524,24577.889531775378
1710999990564,18465.012760113925
1710999990604,9635.395057365298
1710999990645,5744.44619400613
1710999990684,1646.3279207320884
1710999990724,-2899.2592419981956
1710999990764,-6357.085001487751
1710999990804,-9775.288190740626
1710999990845,-10964.329531485448
1710999990885,-11345.911102016224
1710999990925,-12895.902285908116
1710999990965,-13428.005438941997
1710999991005,-13986.952941946918
1710999991046,-14088.743054130115
1710999991085,-14543.351779356366
1710999991125,-14618.540262659546
1710999991165,-14966.523006325355
1710999991205,-15067.62452887441
1710999991246,-15307.174303342588
1710999991285,-15458.127558798995
1710999991325,-16081.686151128728
1710999991366,-25461.524168943986
1710999991406,-35003.268278458156
1710999991446,-39582.34473872464
1710999991486,-39582.34473872464
1710999991526,-39582.34473872464
1710999991566,-39582.34473872464
1710999991606,-39582.34473872464
1710999991647,-39582.34473872464
1710999991686,-39582.34473872464
1710999991727,-39582.34473872464
1710999991767,-39582.34473872464
1710999991807,-39582.34473872464
1710999991848,-39582.34473872464
1710999991887,-37072.31243313383
1710999991927,-37072.31243313383
1710999991967,-37072.31243313383
1710999992007,-37072.31243313383
1710999992048,-37072.31243313383
1710999992088,-37072.31243313383
1710999992128,-37072.31243313383
1710999992168,-37072.31243313383
1710999992208,-37072.31243313383
1710999992249,-37072.31243313383
1710999992288,-36062.99576584296
1710999992328,-35061.05441752402
1710999992368,-34265.700118270004
1710999992408,-34265.700118270004
1710999992449,-34265.700118270004
1710999992488,-34265.700118270004
1710999992528,-34265.700118270004
1710999992567,-34265.700118270004
1710999992607,-34265.700118270004
1710999992647,-34265.700118270004
1710999992687,-34942.06884730607
1710999992727,-34265.700118270004
1710999992767,-32877.038992937654
1710999992807,-32778.843110604445
1710999992848,-32330.245890108636
1710999992887,-29827.065597064793
1710999992928,-29457.41966643324
1710999992968,-28678.05152987037
1710999993008,-28063.254862266826
1710999993049,-26144.07917676284
1710999993088,-24403.15397705091
1710999993128,-23988.075350037776
1710999993168,-23197.29875106248
1710999993208,-22142.726422741078
1710999993249,-21368.707253499422
1710999993289,-19014.884347778745
1710999993328,-16498.109454371035
1710999993369,-13136.888798338361
1710999993409,-9100.16610924527
1710999993449,-5925.6621831143275
1710999993489,-2492.1054976568557
1710999993529,-2357.979475772474
1710999993569,-1979.1499366608914
1710999993609,-1362.0449433112517
1710999993650,-92.62263206765056
1710999993689,676.9383461989928
1710999993729,1081.9088350359816
1710999993770,1869.264280100353
1710999993810,1919.5670273234136
1710999993851,2877.715281812474
1710999993890,3312.7882284908555
1710999993930,5009.820428282255
1710999993970,5166.374125072034
1710999994010,5166.374125072034
1710999994051,3312.7882284908555
1710999994091,2877.715281812474
1710999994131,1869.264280100353
1710999994171,1869.264280100353
1710999994211,1869.264280100353
1710999994252,1869.264280100353
1710999994291,1869.264280100353
1710999994331,1869.264280100353
1710999994371,1869.264280100353
1710999994411,397.078315126244
1710999994452,-449.43564111506566
1710999994492,-449.43564111506566
1710999994532,-449.43564111506566
1710999994572,-449.43564111506566
1710999994612,-449.43564111506566
1710999994653,-449.43564111506566
1710999994692,-449.43564111506566
1710999994733,-449.43564111506566
1710999994773,-449.43564111506566
1710999994813,-449.43564111506566
1710999994854,-1309.8055537589826
1710999994893,-1309.8055537589826
1710999994933,-1309.8055537589826
1710999994973,-1309.8055537589826
1710999995013,-1309.8055537589826
1710999995054,-1309.8055537589826
1710999995094,-449.43564111506566
1710999995134,1368.0600331057794
1710999995174,2323.609322990058
1710999995214,2454.554115207866
1710999995255,2550.2491179483477
