Timestamp,Cleaned PPG
1711327326390,0.0
1711327326431,0.0
1711327326472,0.0
1711327326511,0.0
1711327326551,0.0
1711327326591,0.0
1711327326631,0.0
1711327326672,0.0
1711327326711,0.0
1711327326751,0.0
1711327326792,0.0
1711327326832,0.0
1711327326873,0.0
1711327326912,0.0
1711327326952,0.0
1711327326992,0.0
1711327327032,0.0
1711327327073,0.0
1711327327112,0.0
1711327327153,0.0
1711327327193,0.0
1711327327233,0.0
1711327327274,0.0
1711327327313,0.0
1711327327353,0.0
1711327327393,0.0
1711327327433,0.0
1711327327474,0.0
1711327327514,0.0
1711327327554,0.0
1711327327596,0.0
1711327327634,0.0
1711327327675,1150943.4629064584
1711327327714,1150943.4629064584
1711327327754,1150943.4629064584
1711327327794,1150943.4629064584
1711327327834,1150943.4629064584
1711327327876,1150943.4629064584
1711327327915,1150943.4629064584
1711327327955,1150943.4629064584
1711327327995,1150943.4629064584
1711327328035,1150943.4629064584
1711327328076,1150943.4629064584
1711327328116,1080090.3440569714
1711327328155,1012616.6363732684
1711327328196,949446.2504081177
1711327328236,889586.3440131764
1711327328277,833379.4336366204
1711327328316,781143.9036612203
1711327328356,732253.4424553546
1711327328396,687372.8460274828
1711327328436,645326.8907143334
1711327328477,606396.4118925757
1711327328516,571790.983210443
1711327328557,544292.9242193035
1711327328597,523172.48327178904
1711327328637,502159.9751626458
1711327328678,477618.90489435894
1711327328717,451913.39852940524
1711327328757,425479.33982885117
1711327328797,392982.53523798054
1711327328837,359768.8382562448
1711327328878,328418.62941340776
1711327328917,301355.7352596447
1711327328958,276159.2617663592
1711327328998,255517.85690927412
1711327329038,238732.56103777792
1711327329079,223231.46288496675
1711327329118,211264.64136142703
1711327329158,199706.57627573563
1711327329198,184408.95967422868
1711327329238,171638.84965603543
1711327329280,161742.61101539154
1711327329319,147776.89436470857
1711327329359,135079.0076203947
1711327329399,126030.56869739993
1711327329439,124064.92059992463
1711327329480,115283.71000354877
1711327329519,104174.91669303598
1711327329559,100634.27823148575
1711327329599,95797.23506286042
1711327329640,91492.36144663533
1711327329681,86263.50725465082
1711327329720,80186.28091332503
1711327329760,73267.76020817831
1711327329803,64206.682887015864
1711327329840,50410.94249372184
1711327329881,49661.304508589674
1711327329921,49661.304508589674
1711327329960,49661.304508589674
1711327330001,49661.304508589674
1711327330041,49661.304508589674
1711327330082,49661.304508589674
1711327330121,49661.304508589674
1711327330161,46858.576440921985
1711327330201,45143.67814899981
1711327330241,40798.40470565716
1711327330283,38052.9159419029
1711327330322,38052.9159419029
1711327330362,38052.9159419029
1711327330402,38052.9159419029
1711327330442,38052.9159419029
1711327330483,38052.9159419029
1711327330522,38052.9159419029
1711327330562,38052.9159419029
1711327330602,38052.9159419029
1711327330643,38052.9159419029
1711327330684,26013.862172686495
1711327330723,8052.720760717522
1711327330763,-1597.8961279792711
1711327330803,-8878.172876152676
1711327330843,-16622.222980609164
1711327330884,-18108.180798493326
1711327330923,-18108.180798493326
1711327330963,-18108.180798493326
1711327331003,-18108.180798493326
1711327331043,-18108.180798493326
1711327331084,-18108.180798493326
1711327331123,-18108.180798493326
1711327331163,-18571.967567296233
1711327331203,-19122.010673880577
1711327331244,-19618.044877676293
1711327331284,-21222.7018122687
1711327331323,-21222.7018122687
1711327331364,-21222.7018122687
1711327331404,-21222.7018122687
1711327331444,-21222.7018122687
1711327331485,-21222.7018122687
1711327331524,-19618.044877676293
1711327331564,-19122.010673880577
1711327331604,-18571.967567296233
1711327331644,-18108.180798493326
1711327331685,-16637.398495953996
1711327331724,-16397.939741587266
1711327331764,-16397.939741587266
1711327331804,-16397.939741587266
1711327331845,-16397.939741587266
1711327331885,-14526.84431776125
1711327331925,-14327.266294483095
1711327331965,-3897.913762249518
1711327332005,6392.586714066565
1711327332045,9462.05189656606
1711327332086,10221.146389761474
1711327332125,10821.963610687293
1711327332165,11037.634545128793
1711327332205,11946.671359041706
1711327332245,12686.838956013322
1711327332286,12686.838956013322
1711327332326,12686.838956013322
1711327332366,12686.838956013322
1711327332406,12686.838956013322
1711327332446,12686.838956013322
1711327332486,12686.838956013322
1711327332526,12686.838956013322
1711327332566,12686.838956013322
1711327332606,12686.838956013322
1711327332646,12686.838956013322
1711327332687,10371.768816930242
1711327332726,839.9953565611504
1711327332766,839.9953565611504
1711327332806,839.9953565611504
1711327332846,839.9953565611504
1711327332887,839.9953565611504
1711327332927,839.9953565611504
1711327332967,-303.86326497327536
1711327333007,-2651.7329766531475
1711327333047,-4277.312857191078
1711327333088,-5710.259923845995
1711327333127,-5923.0738638509065
1711327333167,-7019.394891974982
1711327333207,-7238.825873792637
1711327333247,-7238.825873792637
1711327333288,-7019.394891974982
1711327333327,-6191.036933916155
1711327333367,-5923.0738638509065
1711327333408,-4277.312857191078
1711327333448,-3274.9831584561616
1711327333488,-2651.7329766531475
1711327333528,-2518.248509550933
1711327333568,-2651.7329766531475
1711327333608,-3274.9831584561616
1711327333648,-5923.0738638509065
1711327333689,-6191.036933916155
1711327333728,-7238.825873792637
1711327333768,-7676.985333355609
1711327333808,-7787.56997105293
1711327333848,-7896.338340124115
1711327333889,-7896.338340124115
1711327333929,-7787.56997105293
1711327333969,-7676.985333355609
1711327334009,-7670.285536069889
1711327334049,-6537.742289140355
1711327334090,-6191.036933916155
1711327334129,-5189.717610365711
1711327334169,-5189.717610365711
1711327334209,-6537.742289140355
1711327334249,-7670.285536069889
1711327334290,-7676.985333355609
1711327334329,-7787.56997105293
1711327334369,-8085.880494653247
1711327334409,-8180.724415577017
1711327334449,-8085.880494653247
1711327334490,-7676.985333355609
1711327334529,-7670.285536069889
1711327334569,-7453.533041156828
1711327334610,-7446.039138406515
1711327334650,-7444.592568906024
1711327334690,-7347.822211640887
1711327334730,-7272.375383051112
1711327334770,-7272.375383051112
1711327334810,-7272.375383051112
1711327334850,-7272.375383051112
1711327334890,-7272.375383051112
1711327334930,-7347.822211640887
1711327334970,-7444.592568906024
1711327335010,-7446.039138406515
1711327335050,-7444.592568906024
1711327335091,-7347.822211640887
1711327335130,-7288.691476275213
1711327335170,-7272.375383051112
1711327335210,-6670.811154419556
1711327335250,-5481.092129931785
1711327335291,-5278.59496069001
1711327335330,-4881.226562322117
1711327335370,-4562.93271519267
1711327335410,-4292.741346755996
1711327335451,-3964.427431023447
1711327335491,-3806.6610821587965
1711327335531,-3806.6610821587965
1711327335571,-3964.427431023447
1711327335611,-4292.741346755996
1711327335651,-4562.93271519267
1711327335692,-5278.59496069001
1711327335731,-5278.59496069001
1711327335771,-4562.93271519267
1711327335811,-4348.8713943418115
1711327335851,-4292.741346755996
1711327335892,-4232.904618008994
1711327335931,-4124.866206639679
1711327335971,-3968.3538966672495
1711327336011,-3964.427431023447
1711327336052,-3806.6610821587965
1711327336092,-3188.817581709707
1711327336132,-3188.817581709707
1711327336172,-3968.3538966672495
1711327336212,-4124.866206639679
1711327336252,-4232.904618008994
1711327336293,-4348.8713943418115
1711327336332,-5294.739918248961
1711327336372,-5294.739918248961
1711327336413,-5294.739918248961
1711327336453,-5294.739918248961
1711327336493,-5294.739918248961
1711327336533,-4708.067216257565
1711327336573,-4348.8713943418115
1711327336613,-4348.8713943418115
1711327336653,-4124.866206639679
1711327336694,-3968.3538966672495
1711327336733,-3655.8625933970325
1711327336773,-3655.8625933970325
1711327336813,-4708.067216257565
1711327336853,-5557.083136095433
1711327336894,-6223.501871068031
1711327336933,-6246.567124193534
1711327336974,-6729.57631122903
1711327337014,-6729.57631122903
1711327337054,-6729.57631122903
1711327337095,-6729.57631122903
1711327337134,-6729.57631122903
1711327337174,-6246.567124193534
1711327337214,-6223.501871068031
1711327337254,-5557.083136095433
1711327337295,-5045.263497041771
1711327337334,-4708.067216257565
1711327337375,-3655.8625933970325
1711327337415,-3526.3119406315964
1711327337455,-5045.263497041771
1711327337496,-6849.695600465871
1711327337535,-6994.591672681272
1711327337575,-7399.967702550348
1711327337615,-7729.338247577194
1711327337655,-7729.338247577194
1711327337696,-7729.338247577194
1711327337735,-7729.338247577194
1711327337775,-7729.338247577194
1711327337816,-7399.967702550348
1711327337856,-6994.591672681272
1711327337896,-6849.695600465871
1711327337936,-6849.695600465871
1711327337976,-6994.591672681272
1711327338016,-6994.591672681272
1711327338056,-7140.916772118304
1711327338097,-7295.572923687054
1711327338136,-8297.063438567799
1711327338176,-8902.798382325564
1711327338217,-9184.647461806657
1711327338257,-9363.74776761909
1711327338297,-9456.20156884822
1711327338337,-9456.20156884822
1711327338377,-9456.20156884822
1711327338425,-9456.20156884822
1711327338465,-9456.20156884822
1711327338506,-9670.104936508462
1711327338545,-9670.104936508462
1711327338586,-9670.104936508462
1711327338626,-9670.104936508462
1711327338666,-9670.104936508462
1711327338707,-9670.104936508462
1711327338746,-9670.104936508462
1711327338786,-10456.33967261808
1711327338826,-11069.72121162014
1711327338866,-11069.72121162014
1711327338907,-11069.72121162014
1711327338947,-10713.808078990784
1711327338987,-10456.33967261808
1711327339027,-9670.104936508462
1711327339067,-8973.555565643124
1711327339107,-8645.23507973575
1711327339147,-7974.904149642214
1711327339187,-7814.293062105309
1711327339227,-7284.42699722806
1711327339267,-6448.303638293408
1711327339308,-6094.031471647322
1711327339348,-5948.12166234199
1711327339388,-5125.8153947573155
1711327339428,-4296.459940646775
1711327339468,-4112.28173176758
1711327339509,-3897.9821066982113
1711327339548,-2262.80105563486
1711327339588,-300.06601620302536
1711327339628,4390.69187268964
1711327339669,4390.69187268964
1711327339709,4390.69187268964
1711327339749,4390.69187268964
1711327339789,4390.69187268964
1711327339829,4390.69187268964
1711327339869,4390.69187268964
1711327339910,5257.522192402976
1711327339949,5286.888779062312
1711327339990,5443.598255707417
1711327340030,5443.598255707417
1711327340070,5286.888779062312
1711327340111,5257.522192402976
1711327340150,4390.69187268964
1711327340190,4219.051010060357
1711327340230,3125.601945074275
1711327340271,2602.0933526910376
1711327340311,2392.6312872208655
1711327340351,1756.4963819710538
1711327340391,1706.5435895980336
1711327340431,1290.4325706209056
1711327340471,1290.4325706209056
1711327340512,1290.4325706209056
1711327340551,1290.4325706209056
1711327340591,744.6267003524117
1711327340631,560.0033465207089
1711327340671,219.6380706904456
1711327340712,-410.70302051398903
1711327340752,-1148.533830635948
1711327340792,-2645.951048664516
1711327340832,-2997.9428221748676
1711327340872,-3751.536368418252
1711327340912,-3751.536368418252
1711327340952,-3751.536368418252
1711327340992,-3751.536368418252
1711327341032,-3751.536368418252
1711327341072,-2997.9428221748676
1711327341113,-2997.9428221748676
1711327341152,-2997.9428221748676
1711327341192,-2997.9428221748676
1711327341232,-2997.9428221748676
1711327341272,-2997.9428221748676
1711327341313,-4081.4353335017804
1711327341353,-6296.762843187433
1711327341393,-7352.971495439764
1711327341433,-7352.971495439764
1711327341473,-7352.971495439764
1711327341514,-6371.434866902418
1711327341553,-6371.434866902418
1711327341593,-6371.434866902418
1711327341633,-6296.762843187433
1711327341673,-6275.101864292752
1711327341714,-5626.051211006008
1711327341753,-5598.243235026253
1711327341793,-5045.914691849612
1711327341834,-4167.310762691079
1711327341874,-4167.310762691079
1711327341914,-5045.914691849612
1711327341954,-5598.243235026253
1711327341994,-5626.051211006008
1711327342034,-6275.101864292752
1711327342074,-6371.434866902418
1711327342115,-6371.434866902418
1711327342154,-6371.434866902418
1711327342194,-6371.434866902418
1711327342234,-6371.434866902418
1711327342274,-6662.148173427209
1711327342315,-6682.800448213238
1711327342355,-6811.451318134321
1711327342395,-6868.561248626094
1711327342435,-7073.995751594659
1711327342475,-8015.271128346678
1711327342516,-8212.29999845149
1711327342555,-8573.901587367523
1711327342595,-9362.351354643004
1711327342635,-10915.398133617593
1711327342675,-18857.84970457619
1711327342716,-18857.84970457619
1711327342755,-18857.84970457619
1711327342796,-18857.84970457619
1711327342836,-18857.84970457619
1711327342876,-18857.84970457619
1711327342917,-18857.84970457619
1711327342956,-18857.84970457619
1711327342996,-18857.84970457619
1711327343036,-18857.84970457619
1711327343076,-18857.84970457619
1711327343117,-13983.407232606784
1711327343157,-13767.68389955163
1711327343197,-13767.68389955163
1711327343237,-13767.68389955163
1711327343277,-13767.68389955163
1711327343317,-13767.68389955163
1711327343357,-13538.727309615118
1711327343397,-11584.487126311287
1711327343437,-10192.91763734119
1711327343477,-7816.162844879553
1711327343518,-7453.983316329308
1711327343557,-4918.248695737449
1711327343597,-4918.248695737449
1711327343638,-4918.248695737449
1711327343678,-4918.248695737449
1711327343719,-4918.248695737449
1711327343758,-1562.7986186794005
1711327343798,4343.603548042476
1711327343839,4343.603548042476
1711327343879,4343.603548042476
1711327343920,4343.603548042476
1711327343959,4343.603548042476
1711327343999,4343.603548042476
1711327344039,4343.603548042476
1711327344079,4343.603548042476
1711327344120,4343.603548042476
1711327344159,4343.603548042476
1711327344199,4343.603548042476
1711327344240,-17606.74170132517
1711327344280,-32773.26511143334
1711327344321,-35310.94996755873
1711327344360,-54785.0464551365
1711327344400,-70898.9387612138
1711327344440,-74799.84523883695
1711327344480,-74799.84523883695
1711327344521,-74799.84523883695
1711327344560,-74799.84523883695
1711327344601,-74799.84523883695
1711327344641,-74799.84523883695
1711327344681,-74799.84523883695
1711327344722,-74799.84523883695
1711327344761,-74799.84523883695
1711327344801,-74799.84523883695
1711327344841,-74799.84523883695
1711327344881,-65347.457894757856
1711327344922,-62654.11532511981
1711327344962,-51850.67192401551
1711327345002,-51638.74978060555
1711327345042,-43517.935200911015
1711327345082,-42224.91618367471
1711327345123,-41081.90487132594
1711327345162,-38586.125131208915
1711327345202,-26134.44898292469
1711327345242,-18199.532615598524
1711327345282,-13624.289723474067
1711327345323,-7592.443703985307
1711327345363,-4233.764802291524
1711327345403,-1679.1709886947647
1711327345443,2593.9594476618804
1711327345483,3596.33256553486
1711327345524,11059.022774505662
1711327345563,21383.90073041874
1711327345603,21574.56869078707
1711327345643,28834.042038443033
1711327345684,45858.98118572496
1711327345724,54244.48358029872
1711327345764,69097.47201184556
1711327345804,71088.67614458944
1711327345844,84739.74092861963
1711327345884,86539.9280748209
1711327345925,86539.9280748209
1711327345964,86539.9280748209
1711327346004,86539.9280748209
1711327346045,86539.9280748209
1711327346085,86539.9280748209
1711327346125,86539.9280748209
1711327346165,86539.9280748209
1711327346205,69097.47201184556
1711327346245,59499.381905782735
1711327346285,45858.98118572496
1711327346326,21383.90073041874
1711327346365,14690.092556324089
1711327346405,12339.740709641017
1711327346445,11564.54941225797
1711327346486,11564.54941225797
1711327346526,9908.427436540369
1711327346566,6765.179480148945
1711327346606,6157.35708900867
1711327346646,6157.35708900867
1711327346686,6157.35708900867
1711327346727,6157.35708900867
1711327346766,6157.35708900867
1711327346806,6765.179480148945
1711327346847,9908.427436540369
1711327346887,11564.54941225797
1711327346928,12339.740709641017
1711327346967,12339.740709641017
1711327347007,12339.740709641017
1711327347047,12339.740709641017
1711327347087,11564.54941225797
1711327347128,9908.427436540369
1711327347167,6765.179480148945
1711327347207,6765.179480148945
1711327347248,9908.427436540369
1711327347288,15665.664669176796
1711327347328,17540.557916853344
1711327347368,27085.130433214596
1711327347408,42024.04596050084
1711327347448,42024.04596050084
1711327347488,42024.04596050084
1711327347529,42024.04596050084
1711327347569,41396.74132319819
1711327347609,38601.75745115592
1711327347649,38072.844440559624
1711327347689,35087.24312626454
1711327347730,34724.71272012731
1711327347769,34724.71272012731
1711327347809,34724.71272012731
1711327347849,34724.71272012731
1711327347889,34724.71272012731
1711327347930,34724.71272012731
1711327347970,34724.71272012731
1711327348010,34724.71272012731
1711327348050,34724.71272012731
1711327348090,31757.036613995675
1711327348131,27367.037235977128
1711327348170,22242.453982377425
1711327348210,20576.455183598446
1711327348250,20576.455183598446
1711327348291,20576.455183598446
1711327348331,20576.455183598446
1711327348371,19796.750597218983
1711327348411,19796.750597218983
1711327348451,19796.750597218983
1711327348491,19796.750597218983
1711327348532,19796.750597218983
1711327348571,19796.750597218983
1711327348611,18564.42928965809
1711327348651,18357.094372696243
1711327348691,17201.667020018212
1711327348732,15917.096232562326
1711327348771,15917.096232562326
1711327348812,15917.096232562326
1711327348852,18191.439614183735
1711327348892,18357.094372696243
1711327348933,18564.42928965809
1711327348972,20272.90454544779
1711327349012,20272.90454544779
1711327349052,20272.90454544779
1711327349092,18564.42928965809
1711327349133,18357.094372696243
1711327349172,18191.439614183735
1711327349212,17272.018289397005
1711327349252,16040.422630157322
1711327349293,15539.590453636833
1711327349333,15342.291494379751
1711327349373,15329.192337169312
1711327349413,15100.42490459606
1711327349453,14632.942056649365
1711327349493,14525.43460796494
1711327349534,14525.43460796494
1711327349573,14525.43460796494
1711327349613,14525.43460796494
1711327349653,10860.182564229704
1711327349693,9159.290750129614
1711327349734,8931.027491698973
1711327349774,8159.39398926124
1711327349814,8129.639232006855
1711327349854,8012.014587906189
1711327349894,6276.248860132415
1711327349934,6177.579351778608
1711327349974,5218.817445111927
1711327350014,4931.251997000072
1711327350054,4924.940224370919
1711327350094,4924.940224370919
1711327350135,4816.6226559905335
1711327350174,4777.45112043852
1711327350214,4719.712219068315
1711327350255,4628.136393463239
1711327350295,4494.352792828344
1711327350335,4339.415398822632
1711327350375,4136.9814220694825
1711327350415,4136.9814220694825
1711327350455,4136.9814220694825
1711327350495,3434.0675289183855
1711327350536,3061.0951646943577
1711327350575,2806.899530250579
1711327350615,2602.5005763955414
1711327350655,2602.5005763955414
1711327350695,2602.5005763955414
1711327350736,2465.5709536294453
1711327350776,2465.5709536294453
1711327350816,2465.5709536294453
1711327350856,2465.5709536294453
1711327350896,2465.5709536294453
1711327350937,2465.5709536294453
1711327350976,2465.5709536294453
1711327351016,2806.899530250579
1711327351056,3061.0951646943577
1711327351096,3071.8848417992704
1711327351137,3142.4887536419556
1711327351176,3207.9172168658115
1711327351217,3343.8578351079486
1711327351257,3423.223367678467
1711327351297,3762.3150287577882
1711327351338,3915.1561274030246
1711327351377,3915.1561274030246
1711327351417,3915.1561274030246
1711327351457,3928.085776994936
1711327351497,3987.06499442365
1711327351538,3988.084292702377
1711327351578,3988.084292702377
1711327351618,4003.2673540622927
1711327351658,4003.2673540622927
1711327351698,3987.06499442365
1711327351738,3987.06499442365
1711327351778,3987.06499442365
1711327351818,3928.085776994936
1711327351858,3762.3150287577882
1711327351898,3622.5075908983126
1711327351939,3622.5075908983126
1711327351978,3622.5075908983126
1711327352018,2949.327382095158
1711327352059,2793.197331882082
1711327352099,2765.8903343686834
1711327352139,2466.6177415112033
1711327352179,2329.0630851308815
1711327352219,2277.9755759802647
1711327352259,2256.539902854711
1711327352299,2236.884063222911
1711327352340,2119.738778288476
1711327352379,2013.0787344770506
1711327352419,2008.297591900453
1711327352459,1951.8234032047912
1711327352500,1910.2672164188698
1711327352541,1856.9897783556953
1711327352580,1833.612009481527
1711327352620,1833.612009481527
1711327352660,1833.612009481527
1711327352700,1701.8843311304227
1711327352741,1487.587672050111
1711327352780,1487.587672050111
1711327352820,1487.587672050111
1711327352861,1312.188736887183
1711327352901,1195.4602388488129
1711327352941,1177.1886305380613
1711327352981,1177.1886305380613
1711327353021,1177.1886305380613
1711327353061,1120.1206216793507
1711327353101,1120.1206216793507
1711327353142,1120.1206216793507
1711327353181,1120.1206216793507
1711327353221,1118.328345861286
1711327353262,1112.6493061650544
1711327353302,1112.6493061650544
1711327353343,1118.328345861286
1711327353382,1177.1886305380613
1711327353422,1118.328345861286
1711327353462,1118.328345861286
1711327353502,1118.328345861286
1711327353543,1328.134453870356
1711327353582,1383.6935199517757
1711327353623,1383.6935199517757
1711327353663,1389.8785925689153
1711327353703,1483.8135788235813
1711327353744,1504.8574661016464
1711327353783,1590.2114578890614
1711327353823,1633.848680544179
1711327353863,1633.848680544179
1711327353903,1633.848680544179
1711327353944,1647.9112064060755
1711327353984,1651.3309288388118
1711327354024,1869.9164863498881
1711327354064,1914.0977036133409
1711327354104,2206.0434785280377
1711327354145,2510.5169227020815
1711327354184,2527.5344626046717
1711327354224,2673.898709271103
1711327354264,2743.5163593799807
1711327354305,2743.5163593799807
1711327354345,2764.981773911044
1711327354385,2764.981773911044
1711327354425,2764.981773911044
1711327354465,2860.746212232858
1711327354505,3078.3110430371016
1711327354546,3078.3110430371016
1711327354585,3078.3110430371016
1711327354625,2979.5473519945517
1711327354666,2860.746212232858
1711327354706,2824.284247891046
1711327354747,2824.284247891046
1711327354786,2824.284247891046
1711327354826,2824.284247891046
1711327354866,2824.284247891046
1711327354906,2764.981773911044
1711327354947,2585.277535788715
1711327354987,2564.6386384805664
1711327355027,2585.277535788715
1711327355067,2585.277535788715
1711327355107,2564.6386384805664
1711327355148,2564.6386384805664
1711327355187,2519.8836761922576
1711327355227,2519.8836761922576
1711327355267,2585.277535788715
1711327355308,2519.8836761922576
1711327355348,2377.7742940736935
1711327355388,2362.460584185086
1711327355428,2328.5780641674064
1711327355468,2328.5780641674064
1711327355508,2362.460584185086
1711327355549,2328.5780641674064
1711327355588,2328.5780641674064
1711327355628,1572.9395330795087
1711327355669,1572.9395330795087
1711327355709,1572.9395330795087
1711327355749,2328.5780641674064
1711327355789,2328.5780641674064
1711327355829,1572.9395330795087
1711327355869,1572.9395330795087
1711327355909,1572.9395330795087
1711327355950,1774.4843978746794
1711327355990,2034.6270112339407
1711327356030,2029.9691246938892
1711327356070,1774.4843978746794
1711327356110,1572.9395330795087
1711327356151,1375.794647604227
1711327356190,1774.4843978746794
1711327356230,2029.9691246938892
1711327356270,2029.9691246938892
1711327356310,1774.4843978746794
1711327356351,1360.9119117581286
1711327356391,1774.4843978746794
1711327356431,2029.9691246938892
1711327356471,2029.9691246938892
1711327356511,1774.4843978746794
1711327356552,734.543096633628
1711327356591,734.543096633628
1711327356631,788.0737504255958
1711327356671,1774.4843978746794
1711327356711,2029.9691246938892
1711327356752,788.0737504255958
1711327356791,734.543096633628
1711327356831,734.543096633628
1711327356872,734.543096633628
1711327356912,788.0737504255958
1711327356952,788.0737504255958
1711327356992,788.0737504255958
1711327357032,768.7126306518912
1711327357072,768.7126306518912
1711327357112,788.0737504255958
1711327357153,788.0737504255958
1711327357192,788.0737504255958
1711327357232,768.7126306518912
1711327357272,756.9503425695002
1711327357312,756.9503425695002
1711327357353,768.7126306518912
1711327357393,768.7126306518912
1711327357433,768.7126306518912
1711327357473,768.7126306518912
1711327357513,756.9503425695002
1711327357554,-96.85013156151399
1711327357593,-96.85013156151399
1711327357633,756.9503425695002
1711327357673,756.9503425695002
1711327357714,756.9503425695002
1711327357754,-96.85013156151399
1711327357794,-135.74081502202898
1711327357834,-96.85013156151399
1711327357874,756.9503425695002
1711327357914,756.9503425695002
1711327357955,756.9503425695002
1711327357994,508.9368121935986
1711327358034,586.972002085764
1711327358074,899.9428622866981
1711327358114,1300.9439640212804
1711327358155,1566.6878238525242
1711327358195,2204.6901031667367
1711327358235,2502.7385903955437
1711327358275,2502.7385903955437
1711327358315,2502.7385903955437
1711327358356,2502.7385903955437
1711327358395,2502.7385903955437
1711327358435,2502.7385903955437
1711327358475,2697.033154179342
1711327358515,2697.033154179342
1711327358556,2752.52612100821
1711327358595,2789.799342378974
1711327358636,2833.8467518100515
1711327358676,2833.8467518100515
1711327358716,2789.799342378974
1711327358757,2752.52612100821
1711327358796,2789.799342378974
1711327358836,2833.8467518100515
1711327358876,3194.9879364501685
1711327358917,3194.9879364501685
1711327358957,2833.8467518100515
1711327358997,2789.799342378974
1711327359037,2789.799342378974
1711327359077,2789.799342378974
1711327359117,2759.0938772461377
1711327359158,2752.52612100821
1711327359197,2752.52612100821
1711327359237,2759.0938772461377
1711327359278,2833.8467518100515
1711327359318,3062.224449559115
1711327359358,3062.224449559115
1711327359398,2759.0938772461377
1711327359438,1646.4248030064628
1711327359478,1524.1506642615423
1711327359518,1524.1506642615423
1711327359559,1646.4248030064628
1711327359598,2112.29854760319
1711327359638,2112.29854760319
1711327359678,2112.29854760319
1711327359719,2112.29854760319
1711327359760,2112.29854760319
1711327359799,2112.29854760319
1711327359839,2112.29854760319
1711327359879,1859.7893087174743
1711327359919,1646.4248030064628
1711327359960,1646.4248030064628
1711327359999,1859.7893087174743
1711327360039,1859.7893087174743
1711327360080,1646.4248030064628
1711327360120,1524.1506642615423
1711327360160,1487.4505172381178
1711327360200,1487.4505172381178
1711327360240,1524.1506642615423
1711327360280,1859.7893087174743
1711327360320,2052.346009611152
1711327360361,2052.346009611152
1711327360400,1859.7893087174743
1711327360440,1487.4505172381178
1711327360481,1391.867585428059
1711327360521,1385.4958353093825
1711327360561,1378.2309395577759
1711327360601,1289.4454902978614
1711327360641,1289.4454902978614
1711327360681,1289.4454902978614
1711327360721,1378.2309395577759
1711327360762,1385.4958353093825
1711327360801,1391.867585428059
1711327360842,1391.867585428059
1711327360882,1487.4505172381178
1711327360922,1588.0395646486431
1711327360963,1952.3396790111437
1711327361002,2052.346009611152
1711327361042,1952.3396790111437
1711327361082,1588.0395646486431
1711327361122,1465.0640025492758
1711327361163,1289.4454902978614
1711327361203,1181.110154100228
1711327361243,1177.722049048636
1711327361283,1177.722049048636
1711327361323,1177.722049048636
1711327361364,1177.722049048636
1711327361403,1177.722049048636
1711327361443,1118.8394204038195
1711327361483,889.1509618246928
1711327361523,697.0442320741713
1711327361564,580.5077955387533
1711327361604,515.4908439447172
1711327361644,263.2974955579266
1711327361684,233.85498455399647
1711327361724,233.85498455399647
1711327361765,233.85498455399647
1711327361804,233.85498455399647
1711327361844,233.85498455399647
1711327361884,213.3065833891742
1711327361925,151.7913236292079
1711327361965,151.7913236292079
1711327362005,135.94924589246511
1711327362045,-64.54174166917801
1711327362085,-78.89343603979796
1711327362125,-200.7678222595714
1711327362166,-433.64955836953595
1711327362205,-519.3190036658198
1711327362245,-519.3190036658198
1711327362286,-519.3190036658198
1711327362326,-433.64955836953595
1711327362367,-200.7678222595714
1711327362406,-64.54174166917801
1711327362446,135.94924589246511
1711327362485,213.3065833891742
1711327362526,272.48673917353153
1711327362566,272.48673917353153
1711327362606,272.48673917353153
1711327362646,272.48673917353153
1711327362686,272.48673917353153
1711327362726,410.7020350275561
1711327362767,483.2573529733345
1711327362806,483.2573529733345
1711327362847,566.5905876792967
1711327362887,687.9075135453604
1711327362927,995.6696369219571
1711327362967,1251.6081547476351
1711327363007,1536.2673207269982
1711327363047,1588.7959049427882
1711327363087,1588.7959049427882
1711327363127,1588.7959049427882
1711327363168,1588.7959049427882
1711327363208,1588.7959049427882
1711327363248,1588.7959049427882
1711327363288,1827.6117093525827
1711327363328,1903.9189605102874
1711327363369,1903.9189605102874
1711327363408,1951.1438387231901
1711327363448,1956.714922523126
1711327363489,1956.714922523126
1711327363528,1956.714922523126
1711327363569,1956.714922523126
1711327363609,1956.714922523126
1711327363649,1956.714922523126
1711327363689,1956.714922523126
1711327363729,1956.714922523126
1711327363770,1956.714922523126
1711327363809,2233.191943266429
1711327363849,2388.017956102267
1711327363889,2443.5707636801526
1711327363929,2487.28537948709
1711327363970,2505.547793092206
1711327364010,2520.3421133551747
1711327364050,2568.6476165940985
1711327364090,2650.3380285878666
1711327364130,2667.153204049915
1711327364170,2667.153204049915
1711327364210,2667.153204049915
1711327364250,2667.153204049915
1711327364290,2667.153204049915
1711327364330,2568.6476165940985
1711327364371,2568.6476165940985
1711327364410,2520.3421133551747
1711327364450,2505.547793092206
1711327364490,2505.547793092206
1711327364531,2505.547793092206
1711327364571,2487.28537948709
1711327364611,2474.168099436909
1711327364651,2474.168099436909
1711327364691,2420.558531577699
1711327364731,2200.3152270922437
1711327364772,2032.0762372910976
1711327364811,1890.533147114329
1711327364851,1882.5591372735798
1711327364891,1863.9889067197219
1711327364932,1804.930279805325
1711327364972,1595.5303918011487
1711327365012,1554.5522084850818
1711327365052,1431.5592904007062
1711327365092,1076.7189291887917
1711327365132,1076.7189291887917
1711327365173,943.0887408722192
1711327365212,780.7692544064485
1711327365252,780.7692544064485
1711327365292,780.7692544064485
1711327365332,780.7692544064485
1711327365373,711.1786526022479
1711327365413,711.1786526022479
1711327365453,711.1786526022479
1711327365493,711.1786526022479
1711327365533,780.7692544064485
1711327365574,873.1357553307898
1711327365613,900.2149188886397
1711327365653,943.0887408722192
1711327365693,1060.2607519314624
1711327365733,1076.7189291887917
1711327365774,1102.2057079644874
1711327365814,1242.7261533075944
1711327365854,1298.84226245014
1711327365894,1386.4328231825493
1711327365934,1724.1104794512503
1711327365975,1810.8758911052719
1711327366014,1818.5837472602725
1711327366054,1863.4791948497295
1711327366094,2016.2098286990076
1711327366134,2250.288292444311
1711327366175,2283.5118093769997
1711327366214,2503.679091693368
1711327366255,2607.9226323300973
1711327366295,2885.873839501757
1711327366335,2906.761122887023
1711327366376,2956.856302986853
1711327366415,3060.1252790680155
1711327366455,3060.1252790680155
1711327366495,3127.5567610100843
1711327366535,3293.6435064161196
1711327366576,3482.068113018293
1711327366615,3564.3712488086894
1711327366655,3931.861508491449
1711327366696,4011.6345721315593
1711327366736,4072.820872323122
1711327366777,4099.241355410777
1711327366816,4072.820872323122
1711327366856,4072.820872323122
1711327366896,4011.6345721315593
1711327366936,3980.2810172899626
1711327366977,3931.861508491449
1711327367016,3792.904308833182
1711327367057,3792.904308833182
1711327367097,3792.904308833182
1711327367137,3792.904308833182
1711327367178,3792.904308833182
1711327367217,3792.904308833182
1711327367257,3792.904308833182
1711327367297,3792.904308833182
1711327367338,3567.2938919835724
1711327367378,3000.3707738271914
1711327367417,2774.582746228203
1711327367458,2707.2889512605034
1711327367498,2365.9534267848358
1711327367538,2086.6474762754515
1711327367579,1943.2818478280678
1711327367618,1399.2871135454625
1711327367658,1188.780035677366
1711327367698,1175.6560247493908
1711327367738,1022.4519365145825
1711327367779,1011.7910523395985
1711327367819,756.404679342173
1711327367859,752.9715285878628
1711327367899,732.295425131917
1711327367939,516.9253322361037
1711327367980,485.7683746875264
1711327368019,406.1075489325449
1711327368060,395.5635018274188
1711327368100,308.67707925103605
1711327368140,106.05947259441018
1711327368181,-817.3637357344851
1711327368220,-817.3637357344851
1711327368260,-817.3637357344851
1711327368300,-817.3637357344851
1711327368340,-817.3637357344851
1711327368381,-817.3637357344851
1711327368421,-817.3637357344851
1711327368460,-817.3637357344851
1711327368501,-817.3637357344851
1711327368541,-817.3637357344851
1711327368581,-817.3637357344851
1711327368621,-770.6130949538201
1711327368661,-747.6535670054145
1711327368701,-743.1959809809923
1711327368741,-680.7962367488071
1711327368782,-402.2224485594779
1711327368822,-372.76190774608403
1711327368862,-305.1562849096954
1711327368902,-305.1562849096954
1711327368942,-277.6810966087505
1711327368983,-129.1723217042163
1711327369022,127.14131639245898
1711327369062,454.7541136564687
1711327369102,485.42785508185625
1711327369142,679.650930386968
1711327369183,758.9947236217558
1711327369223,1069.0845500486903
1711327369263,1237.300155416131
1711327369303,1241.790184788406
1711327369343,1392.908470646944
1711327369384,1392.908470646944
1711327369423,1404.1930480469018
1711327369463,1404.1930480469018
1711327369504,1404.1930480469018
1711327369544,1404.1930480469018
1711327369585,1392.908470646944
1711327369624,1241.790184788406
1711327369664,1237.300155416131
1711327369704,1237.300155416131
1711327369744,1237.300155416131
1711327369785,1237.300155416131
1711327369825,1060.1461148797534
1711327369865,878.173012431711
1711327369905,878.173012431711
1711327369945,768.3630944704637
1711327369986,737.3082280014642
1711327370025,659.2430184651166
1711327370065,636.295451126527
1711327370106,478.75020176777616
1711327370146,369.1920515517704
1711327370187,369.1920515517704
1711327370226,362.2861080178991
1711327370266,348.5525575997308
1711327370306,222.84387006191537
1711327370347,222.84387006191537
1711327370387,222.84387006191537
1711327370427,206.3683522050269
1711327370467,194.6501660309732
1711327370507,206.3683522050269
1711327370547,222.84387006191537
1711327370588,222.84387006191537
1711327370627,348.5525575997308
1711327370667,362.2861080178991
1711327370708,362.2861080178991
1711327370747,362.2861080178991
1711327370788,362.2861080178991
1711327370828,362.2861080178991
1711327370868,406.1339132785797
1711327370908,987.0556475510821
1711327370948,1050.6672079749405
1711327370989,1180.19643761497
1711327371028,1370.3225953406654
1711327371069,1416.0292343897745
1711327371109,1739.633471811656
1711327371149,1834.1943678883836
1711327371190,2014.116518002469
1711327371229,2069.2504451312125
1711327371269,2400.0726928589866
1711327371309,2444.1957013029605
1711327371349,2857.9660446043126
1711327371390,2857.9660446043126
1711327371429,2857.9660446043126
1711327371469,2857.9660446043126
1711327371509,2857.9660446043126
1711327371550,2857.9660446043126
1711327371590,2857.9660446043126
1711327371629,2857.9660446043126
1711327371670,2857.9660446043126
1711327371710,3092.5278188213706
1711327371750,3212.0858270442113
1711327371791,3227.1894239308313
1711327371830,3227.1894239308313
1711327371870,3212.0858270442113
1711327371910,3092.5278188213706
1711327371950,2852.8042070064694
1711327371991,2655.85679889936
1711327372031,2628.342092771083
1711327372070,2429.613952334039
1711327372111,2319.612460059114
1711327372151,2181.682846286334
1711327372191,2166.0626134583727
1711327372231,2166.0626134583727
1711327372271,2066.444216545671
1711327372311,2066.444216545671
1711327372351,2066.444216545671
1711327372392,2009.1605056612752
1711327372431,1998.448738497682
1711327372471,1885.358597558923
1711327372512,1845.9261060794815
1711327372552,1813.8678447445855
1711327372592,1693.002343326807
1711327372632,1601.5770816514269
1711327372672,1446.8127327589318
1711327372712,1342.3260682211258
1711327372752,1334.9298257119954
1711327372793,838.5892775291577
1711327372832,791.647548191715
1711327372872,791.647548191715
1711327372912,738.2849702187814
1711327372952,649.7532213041559
1711327372993,649.7532213041559
1711327373033,649.7532213041559
1711327373073,649.7532213041559
1711327373113,649.7532213041559
1711327373153,587.7570539838634
1711327373194,576.112085939385
1711327373233,563.6943208873272
1711327373273,554.9672248060815
1711327373313,544.5704051461071
1711327373353,544.5704051461071
1711327373394,522.1187083935365
1711327373434,522.1187083935365
1711327373474,522.1187083935365
1711327373514,522.1187083935365
1711327373554,522.1187083935365
1711327373595,544.5704051461071
1711327373634,544.5704051461071
1711327373674,544.5704051461071
1711327373714,544.5704051461071
1711327373754,544.5704051461071
1711327373795,554.9672248060815
1711327373835,554.9672248060815
1711327373875,554.9672248060815
1711327373915,554.9672248060815
1711327373955,554.9672248060815
1711327373996,597.9323765803128
1711327374035,597.9323765803128
1711327374075,597.9323765803128
1711327374115,597.9323765803128
1711327374155,597.9323765803128
1711327374196,597.9323765803128
1711327374235,597.9323765803128
1711327374276,597.9323765803128
1711327374316,597.9323765803128
1711327374356,597.9323765803128
1711327374397,604.3354494152591
1711327374436,624.5344644952565
1711327374476,604.3354494152591
1711327374517,48.49951143562794
1711327374557,-1220.219720359426
1711327374598,-1220.219720359426
1711327374638,-1220.219720359426
1711327374678,-1220.219720359426
1711327374718,-1220.219720359426
1711327374758,-1220.219720359426
1711327374799,-1220.219720359426
1711327374838,-1220.219720359426
1711327374878,-1220.219720359426
1711327374918,-927.5550886224955
1711327374958,-205.86222173972055
1711327374999,-76.34115843242034
1711327375039,40.49303505057469
1711327375079,226.68444562982768
1711327375119,680.1827664319426
1711327375159,732.4359512040392
1711327375200,1459.569656195119
1711327375239,1498.6530271815136
1711327375279,1498.6530271815136
1711327375319,1740.6060178312473
1711327375360,1959.849014074076
1711327375401,2255.9382034223527
1711327375440,2278.282918686047
1711327375480,2523.918693096377
1711327375520,2523.918693096377
1711327375560,2776.2101713689044
1711327375601,2919.175910322927
1711327375641,2919.5985244447365
1711327375681,2919.5985244447365
1711327375721,2919.5985244447365
1711327375761,3068.49478801433
1711327375802,3090.6579073644243
1711327375841,3328.757449251134
1711327375881,3373.756261871662
1711327375921,3547.846435769461
1711327375961,3547.846435769461
1711327376002,3547.846435769461
1711327376041,3547.846435769461
1711327376082,3547.846435769461
1711327376122,3832.4289432223886
1711327376162,3968.1022099037655
1711327376203,3968.1022099037655
1711327376242,3832.4289432223886
1711327376282,3547.846435769461
1711327376322,3373.756261871662
1711327376362,3193.7005833676085
1711327376403,2378.8406108273193
1711327376442,1831.7463974184357
1711327376483,1123.3199504297227
1711327376523,-725.6696837786585
1711327376563,-725.6696837786585
1711327376604,-5375.733425620943
1711327376643,-5850.852092045359
1711327376683,-5850.852092045359
1711327376723,-5850.852092045359
1711327376763,-5850.852092045359
1711327376804,-5850.852092045359
1711327376844,-5850.852092045359
1711327376884,-5850.852092045359
1711327376924,-5850.852092045359
1711327376964,-5850.852092045359
1711327377005,-5850.852092045359
1711327377044,-7489.764558546245
1711327377084,-7489.764558546245
1711327377124,-7737.997238130309
1711327377164,-8326.514240204357
1711327377205,-7489.764558546245
1711327377245,-6633.816108750645
1711327377285,-4708.183670276776
1711327377325,-3846.2599603477865
1711327377365,-3571.07907929644
1711327377406,-3571.07907929644
1711327377445,-3571.07907929644
1711327377485,-2472.7016566898674
1711327377525,-1872.913995708339
1711327377566,-2472.7016566898674
1711327377607,-3571.07907929644
1711327377646,-3661.2611291222274
1711327377686,-3846.2599603477865
1711327377726,-5618.080893381499
1711327377766,-6573.544094179757
1711327377807,-6633.816108750645
1711327377846,-7295.515205084346
1711327377886,-7295.515205084346
1711327377927,-7295.515205084346
1711327377967,-7295.515205084346
1711327378007,-7295.515205084346
1711327378047,-11076.11719594663
1711327378087,-11149.441259318031
1711327378127,-11149.441259318031
1711327378167,-11149.441259318031
1711327378208,-11149.441259318031
1711327378247,-11149.441259318031
1711327378288,-11149.441259318031
1711327378328,-11149.441259318031
1711327378368,-11149.441259318031
1711327378409,-11149.441259318031
1711327378448,-11076.11719594663
1711327378488,-11076.11719594663
1711327378528,-8151.496245583519
1711327378568,8543.410872939974
1711327378609,9158.408311943058
1711327378649,9269.231933355331
1711327378689,9269.231933355331
1711327378729,10468.313181723468
1711327378769,11300.802534159273
1711327378810,13748.543623243459
1711327378849,13748.543623243459
1711327378890,13748.543623243459
1711327378929,13748.543623243459
1711327378969,15836.69998375792
1711327379010,17344.57033044519
1711327379049,15836.69998375792
1711327379090,13978.995753448457
1711327379130,13748.543623243459
1711327379170,12462.70560537139
1711327379210,11300.802534159273
1711327379250,11300.802534159273
1711327379290,11300.802534159273
1711327379330,10697.282752042636
1711327379370,10468.313181723468
1711327379411,6999.235635371879
1711327379450,6873.801659796387
1711327379490,4072.1831911923364
1711327379530,5178.361254207324
1711327379571,5178.361254207324
1711327379611,5178.361254207324
1711327379651,5178.361254207324
1711327379691,5762.160116526298
1711327379731,6873.801659796387
1711327379771,5762.160116526298
1711327379812,5178.361254207324
1711327379851,3937.14894345263
1711327379891,3854.220153627917
1711327379931,194.97373243514448
1711327379972,-520.5032657561824
1711327380012,-2448.327355885878
1711327380052,-3673.6319211507216
1711327380092,-3970.4184048282914
1711327380132,-3970.4184048282914
1711327380172,-3970.4184048282914
1711327380213,-4216.143439243548
1711327380252,-4216.143439243548
1711327380292,-4216.143439243548
1711327380332,-4308.031785170548
1711327380372,-4411.965485276654
1711327380413,-4411.965485276654
1711327380453,-4411.965485276654
1711327380493,-4411.965485276654
1711327380533,-4411.965485276654
1711327380573,-4411.965485276654
1711327380614,-4411.965485276654
1711327380653,-4411.965485276654
1711327380693,-4411.965485276654
1711327380733,-4411.965485276654
1711327380773,-4411.965485276654
1711327380814,-5857.413588961586
1711327380853,-5857.413588961586
1711327380893,-5857.413588961586
1711327380934,-5857.413588961586
1711327380974,-17688.345218995586
1711327381015,-20569.62906643562
1711327381054,-20569.62906643562
1711327381094,-17688.345218995586
1711327381134,-5857.413588961586
1711327381174,-5857.413588961586
1711327381215,-5857.413588961586
1711327381254,-5857.413588961586
1711327381295,-5857.413588961586
1711327381335,-5857.413588961586
1711327381375,-5857.413588961586
1711327381416,-5857.413588961586
1711327381455,-5857.413588961586
1711327381495,-5047.9501945171505
1711327381535,-469.18754136236385
1711327381575,208.26946181524545
1711327381616,3230.9981840141118
1711327381655,5824.320178556722
1711327381695,11112.242273879703
1711327381736,12845.622073521838
1711327381776,19056.40750763612
1711327381817,21874.638679382857
1711327381856,23205.868949809577
1711327381896,30037.51917167753
1711327381936,30037.51917167753
1711327381976,30037.51917167753
1711327382017,30037.51917167753
1711327382057,30037.51917167753
1711327382097,30037.51917167753
1711327382137,30037.51917167753
1711327382177,30037.51917167753
1711327382218,30037.51917167753
1711327382257,30037.51917167753
1711327382297,30037.51917167753
1711327382337,28773.83303610701
1711327382378,28047.772819774225
1711327382418,27287.519094729796
1711327382458,24708.50456576515
1711327382498,24304.555087755434
1711327382538,23253.446458186954
1711327382578,22994.033032416366
1711327382619,21856.599259042647
1711327382658,19342.431277974043
1711327382698,16859.60501261754
1711327382741,16637.993528002873
1711327382779,16073.935216350481
1711327382819,15797.72416101722
1711327382859,15387.419215784408
1711327382899,15296.015013162047
1711327382939,12277.215829071589
1711327382979,10970.008242964745
1711327383020,10285.079746793956
1711327383059,10220.143797637895
1711327383100,9586.092036077753
1711327383140,9459.573454154655
1711327383180,8160.470774211921
1711327383221,7985.405512816273
1711327383260,7435.278631842695
1711327383300,7391.815041678958
1711327383340,6557.627375742421
1711327383380,6398.774598330259
1711327383421,6183.085797924548
1711327383461,5789.905049606692
1711327383501,5520.501654590014
1711327383541,4771.104051142931
1711327383581,4539.920666655526
1711327383622,4485.951872591395
1711327383661,4373.742068732157
1711327383701,4028.8911534412764
1711327383741,3846.5789781077765
1711327383782,3760.933736741543
1711327383822,3693.54210437648
1711327383862,3693.54210437648
1711327383902,3693.54210437648
1711327383942,3537.4367208685726
1711327383982,3465.3325834460557
1711327384023,3424.422135665547
1711327384063,3424.422135665547
1711327384102,3424.422135665547
1711327384143,3180.3984307078645
1711327384183,3082.2391214426607
1711327384224,3082.2391214426607
1711327384263,3424.422135665547
1711327384303,3424.422135665547
1711327384343,3424.422135665547
1711327384383,3221.9421955682337
1711327384424,3082.2391214426607
1711327384464,3005.9339649733156
1711327384504,2774.1966403187253
1711327384544,2674.093014817685
1711327384584,2674.093014817685
1711327384625,2674.093014817685
1711327384664,2601.7676011160947
1711327384704,2572.807618962135
1711327384744,2418.588249515742
1711327384785,2334.6936325491406
1711327384825,2334.6936325491406
1711327384865,2243.9273777948692
1711327384905,2016.4850745443255
1711327384948,1923.579791978933
1711327384985,1838.7535117254592
1711327385026,1833.588540543802
1711327385065,1756.2241877075285
1711327385105,1698.297260249965
1711327385146,1515.2542735952884
1711327385186,1503.3305031782947
1711327385227,1034.679659260437
1711327385266,1034.679659260437
1711327385306,1034.679659260437
1711327385346,1034.679659260437
1711327385387,1034.679659260437
1711327385427,1127.7492865836248
1711327385467,1127.7492865836248
1711327385507,1034.679659260437
1711327385547,1024.9585295980796
1711327385587,1014.5591526813805
1711327385628,1014.5591526813805
1711327385667,1014.5591526813805
1711327385707,1014.5591526813805
1711327385748,1014.5591526813805
1711327385788,1014.5591526813805
1711327385828,1014.5591526813805
1711327385868,1024.9585295980796
1711327385908,1034.679659260437
1711327385948,1127.7492865836248
1711327385988,1127.7492865836248
1711327386029,1127.7492865836248
1711327386069,1167.3534214729443
1711327386109,1167.3534214729443
1711327386149,1167.3534214729443
1711327386189,1127.7492865836248
1711327386230,985.2637526686303
1711327386269,794.7480151588097
1711327386309,985.2637526686303
1711327386349,985.2637526686303
1711327386389,985.2637526686303
1711327386430,985.2637526686303
1711327386470,985.2637526686303
1711327386509,985.2637526686303
1711327386550,909.6821987815201
1711327386590,794.7480151588097
1711327386630,750.3313545510173
1711327386670,717.6022650049999
1711327386710,684.0928373076022
1711327386750,551.2958531589247
1711327386790,512.1313469903544
1711327386831,512.1313469903544
1711327386870,512.1313469903544
1711327386910,512.1313469903544
1711327386951,512.1313469903544
1711327386991,512.1313469903544
1711327387031,512.1313469903544
1711327387071,512.1313469903544
1711327387111,512.1313469903544
1711327387151,512.1313469903544
1711327387191,512.1313469903544
1711327387232,512.1313469903544
1711327387271,875.9376776255667
1711327387311,1298.0562135898508
1711327387351,1302.9096996886656
1711327387391,1495.6513017006218
1711327387432,1591.5746508715674
1711327387472,1610.79433226306
1711327387512,1881.7521119024605
1711327387552,2009.545072460547
1711327387592,2024.2942202063277
1711327387633,2194.402304594405
1711327387672,2258.2273439969867
1711327387712,2275.0595690952614
1711327387752,2379.897660420276
1711327387793,2439.10510671651
1711327387833,2439.10510671651
1711327387872,2439.10510671651
1711327387913,2439.10510671651
1711327387953,2439.10510671651
1711327387993,2439.10510671651
1711327388034,2439.10510671651
1711327388073,2439.10510671651
1711327388113,2439.10510671651
1711327388153,2439.10510671651
1711327388193,2439.10510671651
1711327388234,2314.8270016605966
1711327388273,1986.9595427424647
1711327388313,1886.2215640330687
1711327388354,1550.8972449488938
1711327388394,1136.605340602342
1711327388434,1108.8547907900065
1711327388474,1063.468660817016
1711327388514,929.1401263093576
1711327388554,605.6750790877268
1711327388594,-145.16830068826675
1711327388635,-195.29220802569762
1711327388674,-354.9591106385924
1711327388714,-362.06595431640744
1711327388755,-362.06595431640744
1711327388795,-364.119978309609
1711327388835,-442.2334014028311
1711327388875,-521.0163394110277
1711327388915,-527.0064338715747
1711327388955,-559.2505540563725
1711327388995,-564.091786778532
1711327389036,-564.091786778532
1711327389075,-617.8027120064944
1711327389116,-564.091786778532
1711327389155,-564.091786778532
1711327389196,-559.2505540563725
1711327389237,-527.0064338715747
1711327389276,-527.0064338715747
1711327389316,-521.0163394110277
1711327389356,-364.119978309609
1711327389396,-362.06595431640744
1711327389437,-362.06595431640744
1711327389476,-362.06595431640744
1711327389516,-359.4857199108228
1711327389557,-71.49553334806114
1711327389597,-46.46938065858558
1711327389637,-46.46938065858558
1711327389677,92.2422180227004
1711327389717,283.3171112360433
1711327389757,929.2759180432186
1711327389797,929.2759180432186
1711327389838,929.2759180432186
1711327389877,929.2759180432186
1711327389917,985.7139091202989
1711327389958,1351.2320379805751
1711327389998,929.2759180432186
1711327390038,283.3171112360433
1711327390078,92.2422180227004
1711327390118,283.3171112360433
1711327390158,1154.8285714359954
1711327390198,1154.8285714359954
1711327390239,92.2422180227004
1711327390278,92.2422180227004
1711327390319,92.2422180227004
1711327390359,92.2422180227004
1711327390399,92.2422180227004
1711327390440,-43.51218134444207
1711327390479,269.5853690239601
1711327390519,269.5853690239601
1711327390559,269.5853690239601
1711327390599,269.5853690239601
1711327390640,269.5853690239601
1711327390679,389.8331071040593
1711327390719,1154.8285714359954
1711327390759,1154.8285714359954
1711327390800,1002.6780227841809
1711327390840,1002.6780227841809
1711327390880,1154.8285714359954
1711327390920,1162.8801091732457
1711327390960,1162.8801091732457
1711327391000,1002.6780227841809
1711327391041,935.5429574204609
1711327391080,1002.6780227841809
1711327391121,1162.8801091732457
1711327391161,1392.6973574454896
1711327391201,1303.4206551238894
1711327391242,1162.8801091732457
1711327391281,1303.4206551238894
1711327391321,2145.724607498385
1711327391361,2215.561162185855
1711327391401,2145.724607498385
1711327391442,1750.9460921203718
1711327391482,2145.724607498385
1711327391522,2215.561162185855
1711327391562,2482.830836588517
1711327391602,2245.9227028926834
1711327391643,2245.9227028926834
1711327391682,2249.615628096275
1711327391722,2249.615628096275
1711327391763,2249.615628096275
1711327391802,2249.615628096275
1711327391843,2249.615628096275
1711327391883,2249.615628096275
1711327391923,2245.9227028926834
1711327391963,2245.9227028926834
1711327392003,2245.9227028926834
1711327392044,2249.615628096275
1711327392083,2249.615628096275
1711327392124,2245.9227028926834
1711327392164,2215.561162185855
1711327392204,1811.6008967417292
1711327392245,2245.9227028926834
1711327392284,2249.615628096275
1711327392324,2245.9227028926834
1711327392364,2177.0192565894686
1711327392404,1811.6008967417292
1711327392445,1720.9348551919684
1711327392485,1720.9348551919684
1711327392525,1500.9863524637185
1711327392565,1271.1557472161949
1711327392605,1253.6487748562358
1711327392646,1253.6487748562358
1711327392685,1271.1557472161949
1711327392725,1271.1557472161949
1711327392765,1271.1557472161949
1711327392806,1253.6487748562358
1711327392846,966.8432429078966
1711327392886,966.8432429078966
1711327392926,1253.6487748562358
1711327392966,1253.6487748562358
1711327393006,1253.6487748562358
1711327393047,1253.6487748562358
1711327393086,1253.6487748562358
1711327393126,1253.6487748562358
1711327393167,1253.6487748562358
1711327393207,1253.6487748562358
1711327393247,1278.1861870964058
1711327393287,1278.1861870964058
1711327393327,1278.1861870964058
1711327393367,1307.9327130969614
1711327393407,1307.9327130969614
1711327393448,1307.9327130969614
1711327393488,1278.1861870964058
1711327393528,1274.4482774627395
1711327393568,1274.4482774627395
1711327393608,1274.4482774627395
1711327393649,1274.4482774627395
1711327393688,1274.4482774627395
1711327393728,1228.6634650286287
1711327393768,934.9595145713538
1711327393809,934.9595145713538
1711327393849,887.7626850577071
1711327393889,780.0270005650818
1711327393929,639.1241255239584
1711327393969,627.685784643516
1711327394009,412.7023028265685
1711327394050,334.76225468330085
1711327394089,186.2279395321384
1711327394129,177.48705105204135
1711327394169,168.33247641613707
1711327394209,164.02504425588995
1711327394250,143.4633383397013
1711327394290,143.4633383397013
1711327394330,120.35801955126226
1711327394370,87.21701097674668
1711327394410,53.50215471582487
1711327394451,6.668571938760579
1711327394490,-116.60710168769583
1711327394530,-130.43809267040342
1711327394570,-177.0950160184875
1711327394610,-317.792094043456
1711327394651,-317.792094043456
1711327394690,-317.792094043456
1711327394731,-317.792094043456
1711327394771,-177.0950160184875
1711327394811,-177.0950160184875
1711327394852,-317.792094043456
1711327394891,-317.792094043456
1711327394931,-317.792094043456
1711327394971,-177.0950160184875
1711327395011,-177.0950160184875
1711327395052,-119.91703759972006
1711327395091,-119.91703759972006
1711327395132,-119.91703759972006
1711327395172,-38.028362065553665
1711327395212,-33.26419859845191
1711327395253,22.49308375362307
1711327395292,206.3711977461353
1711327395332,241.36238719988614
1711327395372,276.6525667165406
1711327395412,622.4340873816982
1711327395453,727.5917090876028
1711327395492,864.5959371090867
1711327395532,727.5917090876028
1711327395573,727.5917090876028
1711327395613,864.5959371090867
1711327395653,953.472614934668
1711327395693,953.7465696404688
1711327395733,956.3462368929759
1711327395773,956.3462368929759
1711327395813,1081.7454130048864
1711327395854,1087.0146215013228
1711327395893,1121.178746030666
1711327395933,1151.8735050540417
1711327395974,1151.8735050540417
1711327396014,1213.201936777681
1711327396054,1435.3827555486932
1711327396094,1551.6316637089476
1711327396134,1742.823053425178
1711327396174,1742.823053425178
1711327396214,1742.823053425178
1711327396255,1742.823053425178
1711327396294,1742.823053425178
1711327396335,1742.823053425178
1711327396375,1742.823053425178
1711327396415,1742.823053425178
1711327396456,1551.6316637089476
1711327396495,1435.3827555486932
1711327396535,1427.2190481382422
1711327396575,1171.0116281304508
1711327396615,1169.7381537612528
1711327396656,1017.1092763002962
1711327396696,984.5159372896887
1711327396736,429.4638837398961
1711327396776,295.130392214749
1711327396816,278.1295261546038
1711327396857,10.892794917803258
1711327396896,3.9294405169785023
1711327396936,-30.530985068529844
1711327396976,-36.10133125260472
1711327397017,-43.29949585068971
1711327397058,-43.29949585068971
1711327397097,-43.29949585068971
1711327397137,-50.85753863025457
1711327397177,-63.546003432013094
1711327397217,-63.546003432013094
1711327397258,-63.546003432013094
1711327397298,-63.546003432013094
1711327397338,-63.546003432013094
1711327397378,-63.546003432013094
1711327397418,-63.546003432013094
1711327397459,-63.546003432013094
1711327397498,-66.93401393154636
1711327397538,-99.18542325729504
1711327397578,-99.18542325729504
1711327397618,-99.18542325729504
1711327397659,-99.18542325729504
1711327397698,-66.93401393154636
1711327397739,-66.93401393154636
1711327397779,-66.93401393154636
1711327397819,-12.736368966288865
1711327397860,4.615073806606233
1711327397899,69.61804979294538
1711327397939,69.61804979294538
1711327397979,308.60422728722915
1711327398020,612.7084405873902
1711327398060,748.9751753024757
1711327398100,748.9751753024757
1711327398140,750.3683109208941
1711327398180,839.4093771679327
1711327398220,1045.56322974246
1711327398261,1174.3053346723318
1711327398300,1199.4208761784248
1711327398340,1283.4139267695136
1711327398381,1283.4139267695136
1711327398421,1283.4139267695136
1711327398461,1352.983495157212
1711327398501,1352.983495157212
1711327398541,1298.621014510747
1711327398580,1298.621014510747
1711327398620,1298.621014510747
1711327398661,1298.621014510747
1711327398700,1298.621014510747
1711327398741,1283.4139267695136
1711327398781,1298.621014510747
1711327398821,1352.585316666402
1711327398862,1352.983495157212
1711327398901,1352.983495157212
1711327398941,1352.983495157212
1711327398981,1352.983495157212
1711327399021,1367.88608015934
1711327399062,1367.88608015934
1711327399102,1352.983495157212
1711327399142,1352.585316666402
1711327399182,1298.621014510747
1711327399222,1298.621014510747
1711327399263,1352.585316666402
1711327399302,1298.621014510747
1711327399342,1298.621014510747
1711327399382,1352.585316666402
1711327399422,1271.0248165391386
1711327399463,1183.513883822132
1711327399503,1092.9336067503318
1711327399543,986.0087090265006
1711327399583,986.0087090265006
1711327399623,801.62843943201
1711327399664,657.3356185369194
1711327399703,573.4057936631143
1711327399743,559.257211622782
1711327399783,515.2014205651358
1711327399824,87.22059463057667
1711327399864,-170.07465238124132
1711327399904,-286.3663915893994
1711327399944,-289.8556502372958
1711327399984,-286.3663915893994
1711327400024,-286.3663915893994
1711327400065,-286.3663915893994
1711327400105,-289.8556502372958
1711327400145,-356.3881022995338
1711327400185,-431.62598399538547
1711327400225,-538.9605350038037
1711327400266,-625.1967881210148
1711327400305,-667.6984412013553
1711327400345,-691.8021769444458
1711327400385,-724.1402068557218
1711327400426,-691.8021769444458
1711327400466,-691.8021769444458
1711327400506,-667.6984412013553
1711327400546,-538.9605350038037
1711327400586,-431.62598399538547
1711327400626,-538.9605350038037
1711327400667,-606.0521459085867
1711327400706,-538.9605350038037
1711327400747,-606.0521459085867
1711327400787,-606.0521459085867
1711327400827,-606.0521459085867
1711327400868,-606.0521459085867
1711327400907,-606.0521459085867
1711327400947,-431.62598399538547
1711327400987,-292.91130687622353
1711327401027,-292.91130687622353
1711327401068,-292.91130687622353
1711327401107,-292.91130687622353
1711327401148,-292.91130687622353
1711327401187,-292.91130687622353
1711327401227,-174.24194604624063
1711327401268,-292.91130687622353
1711327401308,-292.91130687622353
1711327401348,-327.07944155018777
1711327401388,-408.27331014350057
1711327401428,-606.0521459085867
1711327401469,-606.0521459085867
1711327401508,-636.514910556376
1711327401548,-865.6857214169577
1711327401588,-636.514910556376
1711327401629,-865.6857214169577
1711327401669,-865.6857214169577
1711327401709,-865.6857214169577
1711327401749,-865.6857214169577
1711327401789,-903.762802219484
1711327401829,-933.2656344240531
1711327401870,-960.4351703450084
1711327401909,-960.4351703450084
1711327401949,-986.120444258675
1711327401989,-1028.596749028191
1711327402029,-1046.486798514612
1711327402070,-1090.3995642252266
1711327402110,-1176.9698438858613
1711327402150,-1090.3995642252266
1711327402190,-1046.486798514612
1711327402230,-1046.486798514612
1711327402271,-1028.596749028191
1711327402310,-986.120444258675
1711327402350,-854.3427300443873
1711327402390,-776.9173306245357
1711327402430,-776.9173306245357
1711327402471,-733.1513058925048
1711327402511,-727.0795735623688
1711327402551,-723.0524964281358
1711327402591,-422.62782060727477
1711327402631,-121.2937799692154
1711327402672,6.161103826481849
1711327402711,13.189069916959852
1711327402751,110.3019897211343
1711327402791,135.24789366591722
1711327402831,145.58376364782453
1711327402872,321.380608079955
1711327402912,903.6335020465776
1711327402952,1052.882215523161
1711327402992,1196.6988618811592
1711327403032,1201.3501188065857
1711327403073,1243.6507858457044
1711327403112,1279.9239559336565
1711327403152,1279.9239559336565
1711327403192,1299.3076200908981
1711327403232,1299.3076200908981
1711327403273,1299.3076200908981
1711327403312,1299.3076200908981
1711327403352,1299.3076200908981
1711327403392,1299.3076200908981
1711327403433,1299.3076200908981
1711327403473,1299.3076200908981
1711327403513,1299.3076200908981
1711327403553,1296.0739805083722
1711327403593,1299.3076200908981
1711327403633,1299.3076200908981
1711327403674,1296.0739805083722
1711327403713,1260.7937164232135
1711327403753,1218.238462052308
1711327403794,1218.238462052308
1711327403834,1217.2797177606262
1711327403874,1205.5355800557882
1711327403914,1200.0520307226107
1711327403954,1195.7269092435017
1711327403994,1070.9119379036129
1711327404034,1007.8786254003644
1711327404075,1007.8786254003644
1711327404114,994.4608595259488
1711327404154,936.7508773971349
1711327404194,729.7385666165501
1711327404234,697.9801313290372
1711327404275,633.2175296209753
1711327404315,-318.3799199378118
1711327404355,-360.31146817747504
1711327404395,-480.954994475469
1711327404435,-480.954994475469
1711327404476,-480.954994475469
1711327404515,-480.954994475469
1711327404555,-480.954994475469
1711327404595,-480.954994475469
1711327404636,-480.954994475469
1711327404676,-502.8937150561251
1711327404716,-594.9045592080802
1711327404756,-784.3387002055533
1711327404796,-784.3387002055533
1711327404836,-784.3387002055533
1711327404877,-784.3387002055533
1711327404916,-784.3387002055533
1711327404956,-784.3387002055533
1711327404997,-784.3387002055533
1711327405036,-784.3387002055533
1711327405077,-598.5185608761385
1711327405117,-781.8965544751845
1711327405157,-781.8965544751845
1711327405197,-781.8965544751845
1711327405237,-781.8965544751845
1711327405278,-781.8965544751845
1711327405317,-781.8965544751845
1711327405357,-781.8965544751845
1711327405397,-781.8965544751845
1711327405437,-781.8965544751845
1711327405478,-781.8965544751845
1711327405518,-781.8965544751845
1711327405558,-781.8965544751845
1711327405598,-781.8965544751845
1711327405638,-781.8965544751845
1711327405679,-781.8965544751845
1711327405718,-781.8965544751845
1711327405758,-781.8965544751845
1711327405798,-781.8965544751845
1711327405839,-781.8965544751845
1711327405879,-781.8965544751845
1711327405919,-2999.224044128321
1711327405959,-2999.224044128321
1711327405999,-2999.224044128321
1711327406039,-2999.224044128321
1711327406080,-2999.224044128321
1711327406119,-2999.224044128321
1711327406159,-2999.224044128321
1711327406200,-2999.224044128321
1711327406240,-2999.224044128321
1711327406281,-2999.224044128321
1711327406320,-2999.224044128321
1711327406360,-1645.0745589812286
1711327406400,-1081.0755752255209
1711327406440,-1081.0755752255209
1711327406481,-1081.0755752255209
1711327406520,-1081.0755752255209
1711327406561,-962.132283101324
1711327406601,-510.2512948382646
1711327406641,-38.2974827545695
1711327406682,122.26854969607666
1711327406721,142.06476941285655
1711327406761,202.59153144760057
1711327406801,470.87881894549355
1711327406841,912.6723182061687
1711327406882,1231.8130456572399
1711327406922,1315.513734197244
1711327406962,1231.8130456572399
1711327407002,1227.4793139994144
1711327407042,1227.4793139994144
1711327407083,1227.4793139994144
1711327407122,1227.4793139994144
1711327407162,1161.1776813473552
1711327407202,470.87881894549355
1711327407242,470.87881894549355
1711327407283,470.87881894549355
1711327407323,470.87881894549355
1711327407363,470.87881894549355
1711327407403,470.87881894549355
1711327407443,470.87881894549355
1711327407484,470.87881894549355
1711327407524,202.59153144760057
1711327407564,387.64299404714257
1711327407604,387.64299404714257
1711327407644,387.64299404714257
1711327407685,387.64299404714257
1711327407724,387.64299404714257
1711327407764,387.64299404714257
1711327407804,387.64299404714257
1711327407845,387.64299404714257
1711327407885,387.64299404714257
1711327407925,387.64299404714257
1711327407965,288.74114931654185
1711327408005,288.74114931654185
1711327408045,288.74114931654185
1711327408086,288.74114931654185
1711327408126,288.74114931654185
1711327408166,288.74114931654185
1711327408206,288.74114931654185
1711327408246,288.74114931654185
1711327408287,288.74114931654185
1711327408326,288.74114931654185
1711327408366,288.74114931654185
1711327408406,288.74114931654185
1711327408446,288.74114931654185
1711327408487,288.74114931654185
1711327408526,288.74114931654185
1711327408566,288.74114931654185
1711327408607,288.74114931654185
1711327408647,288.74114931654185
1711327408687,288.74114931654185
1711327408727,288.74114931654185
1711327408767,-217.0053244382143
1711327408807,-895.8768270649016
1711327408847,-895.8768270649016
1711327408888,-895.8768270649016
1711327408927,-895.8768270649016
1711327408967,-895.8768270649016
1711327409007,-895.8768270649016
1711327409048,-217.0053244382143
1711327409088,-197.72240870352834
1711327409128,341.4311962481588
1711327409168,473.93249098490924
1711327409208,664.7010465380736
1711327409248,866.1052856375463
1711327409289,866.1052856375463
1711327409328,866.1052856375463
1711327409368,866.1052856375463
1711327409408,866.1052856375463
1711327409449,866.1052856375463
1711327409489,866.1052856375463
1711327409529,866.1052856375463
1711327409569,1051.5171569166705
1711327409609,1051.5171569166705
1711327409649,1051.5171569166705
1711327409690,1051.5171569166705
1711327409729,1051.5171569166705
1711327409769,1342.8962545506656
1711327409810,1342.8962545506656
1711327409850,1342.8962545506656
1711327409890,1342.8962545506656
1711327409930,1342.8962545506656
1711327409970,1398.9924260023981
1711327410010,2064.460572294425
1711327410050,2120.6882926328108
1711327410091,2120.6882926328108
1711327410130,2120.6882926328108
1711327410170,2120.6882926328108
1711327410210,2120.6882926328108
1711327410250,2120.6882926328108
1711327410291,2120.6882926328108
1711327410331,2120.6882926328108
1711327410371,2120.6882926328108
1711327410411,2213.3945733318105
1711327410451,2296.2550781210884
1711327410492,2422.9822863126174
1711327410531,2422.9822863126174
1711327410571,2422.9822863126174
1711327410611,2506.705301415175
1711327410651,2506.705301415175
1711327410692,2760.001638504211
1711327410732,2767.8484419444576
1711327410772,2846.559394877404
1711327410812,2895.039160635788
1711327410852,2895.039160635788
1711327410893,2895.039160635788
1711327410932,2895.039160635788
1711327410972,2970.949826228898
1711327411012,2970.949826228898
1711327411052,2970.949826228898
1711327411093,2895.039160635788
1711327411133,2846.559394877404
1711327411173,2895.039160635788
1711327411213,2895.039160635788
1711327411253,2846.559394877404
1711327411294,2814.0961738163605
1711327411333,2767.8484419444576
1711327411373,2767.8484419444576
1711327411413,2767.8484419444576
1711327411453,2814.0961738163605
1711327411494,2822.329221161548
1711327411534,2814.0961738163605
1711327411574,2499.7781759332865
1711327411614,2486.369335410185
1711327411654,2421.4009473747574
1711327411695,2363.3941495367326
1711327411734,2362.682190591935
1711327411774,2231.8431878350675
1711327411814,1887.172348136548
1711327411854,1815.3210444343276
1711327411895,1850.5769209596328
1711327411935,1850.5769209596328
1711327411975,1815.3210444343276
1711327412015,1633.0720996824093
1711327412055,1522.0520853437483
1711327412096,1522.0520853437483
1711327412135,1522.0520853437483
1711327412175,1522.0520853437483
1711327412215,1522.0520853437483
1711327412255,1442.7388542769477
1711327412296,1194.616573899053
1711327412336,1194.616573899053
1711327412376,1194.616573899053
1711327412416,1194.616573899053
1711327412456,1194.616573899053
1711327412497,1194.616573899053
1711327412536,1442.7388542769477
1711327412576,1522.0520853437483
1711327412616,1633.0720996824093
1711327412657,1633.0720996824093
1711327412697,1633.0720996824093
1711327412737,1303.8179275989532
1711327412777,1194.616573899053
1711327412817,698.1754186064936
1711327412857,698.1754186064936
1711327412898,698.1754186064936
1711327412937,698.1754186064936
1711327412977,698.1754186064936
1711327413017,698.1754186064936
1711327413058,698.1754186064936
1711327413098,819.3347930675372
1711327413138,819.3347930675372
1711327413178,819.3347930675372
1711327413218,819.3347930675372
1711327413258,819.3347930675372
1711327413299,819.3347930675372
1711327413338,819.3347930675372
1711327413378,819.3347930675372
1711327413419,731.3008167929947
1711327413459,731.3008167929947
1711327413499,731.3008167929947
1711327413539,819.3347930675372
1711327413579,836.6425922093913
1711327413619,836.6425922093913
1711327413659,836.6425922093913
1711327413700,836.6425922093913
1711327413739,836.6425922093913
1711327413780,836.6425922093913
1711327413820,836.6425922093913
1711327413860,836.6425922093913
1711327413901,836.6425922093913
1711327413940,836.6425922093913
1711327413980,1008.7469470533542
1711327414020,1085.7979543884285
1711327414060,1065.241302783601
1711327414101,731.3008167929947
1711327414141,731.3008167929947
1711327414180,731.3008167929947
1711327414221,731.3008167929947
1711327414261,1065.241302783601
1711327414302,1065.241302783601
1711327414341,1065.241302783601
1711327414381,1065.241302783601
1711327414421,1065.241302783601
1711327414461,1065.241302783601
1711327414502,1065.241302783601
1711327414542,1065.241302783601
1711327414582,1065.241302783601
1711327414622,1065.241302783601
1711327414662,1065.241302783601
1711327414703,1065.241302783601
1711327414742,1065.241302783601
1711327414782,1403.42150837183
1711327414822,1403.42150837183
1711327414863,1403.42150837183
1711327414903,1452.5796219389886
1711327414943,1481.7787279351614
1711327414983,1481.7787279351614
1711327415023,1481.7787279351614
1711327415063,1481.7787279351614
1711327415104,1481.7787279351614
1711327415143,1619.700962388888
1711327415184,1619.700962388888
1711327415224,1619.700962388888
1711327415264,1481.7787279351614
1711327415305,1481.7787279351614
1711327415344,1481.7787279351614
1711327415384,1481.7787279351614
1711327415424,1481.7787279351614
1711327415465,1481.7787279351614
1711327415505,1481.7787279351614
1711327415545,1481.7787279351614
1711327415585,1481.7787279351614
1711327415625,1452.5796219389886
1711327415665,1165.3376123830676
1711327415706,979.985344410874
1711327415745,979.985344410874
1711327415785,979.985344410874
1711327415826,979.985344410874
1711327415866,979.985344410874
1711327415906,979.985344410874
1711327415946,979.985344410874
1711327415986,979.985344410874
1711327416026,979.985344410874
1711327416066,970.2103967992589
1711327416107,970.2103967992589
1711327416146,970.2103967992589
1711327416186,970.2103967992589
1711327416226,879.6538274539635
1711327416266,879.6538274539635
1711327416307,879.6538274539635
1711327416347,879.6538274539635
1711327416387,734.4754943288863
1711327416427,734.4754943288863
1711327416467,879.6538274539635
1711327416508,879.6538274539635
1711327416547,974.7256370405667
1711327416587,974.7256370405667
1711327416627,974.7256370405667
1711327416667,974.7256370405667
1711327416708,974.7256370405667
1711327416747,974.7256370405667
1711327416788,974.7256370405667
1711327416828,974.7256370405667
1711327416868,974.7256370405667
1711327416909,974.7256370405667
1711327416948,974.7256370405667
1711327416988,974.7256370405667
1711327417028,974.7256370405667
1711327417068,974.7256370405667
1711327417109,974.7256370405667
1711327417148,974.7256370405667
1711327417188,974.7256370405667
1711327417229,974.7256370405667
1711327417269,1091.149689306505
1711327417309,1130.9942770837806
1711327417349,1091.149689306505
1711327417389,1111.6858169096522
1711327417429,1040.0683288853616
1711327417469,835.6868060529232
1711327417510,835.6868060529232
1711327417549,835.6868060529232
1711327417589,835.6868060529232
1711327417630,835.6868060529232
1711327417670,835.6868060529232
1711327417710,769.2992642647587
1711327417750,769.2992642647587
1711327417790,769.2992642647587
1711327417830,769.2992642647587
1711327417870,769.2992642647587
1711327417911,769.2992642647587
1711327417950,769.2992642647587
1711327417990,769.2992642647587
1711327418030,702.5452179694548
1711327418070,443.80107609694824
1711327418111,350.4659795733169
1711327418150,166.24941763980314
1711327418191,166.24941763980314
1711327418231,166.24941763980314
1711327418271,166.24941763980314
1711327418311,166.24941763980314
1711327418351,166.24941763980314
1711327418391,166.24941763980314
1711327418431,166.24941763980314
1711327418471,161.68558026617393
1711327418512,-138.9564954843372
1711327418551,-138.9564954843372
1711327418592,-138.9564954843372
1711327418632,-138.9564954843372
1711327418672,-138.9564954843372
1711327418713,-138.9564954843372
1711327418752,-138.9564954843372
1711327418792,-138.9564954843372
1711327418832,85.68621010472998
1711327418872,161.68558026617393
1711327418913,161.68558026617393
1711327418953,166.24941763980314
1711327418992,456.2872475772165
1711327419033,518.2041450557299
1711327419073,518.2041450557299
1711327419113,518.2041450557299
1711327419153,518.2041450557299
1711327419193,518.2041450557299
1711327419233,518.2041450557299
1711327419273,518.2041450557299
1711327419314,824.1551131717861
1711327419353,824.1551131717861
1711327419393,824.1551131717861
1711327419434,824.1551131717861
1711327419474,824.1551131717861
1711327419514,824.1551131717861
1711327419554,824.1551131717861
1711327419594,824.1551131717861
1711327419634,824.1551131717861
1711327419674,824.1551131717861
1711327419715,555.4081899989396
1711327419754,824.1551131717861
1711327419795,1337.0510706333444
1711327419835,1264.274588660337
1711327419875,1264.274588660337
1711327419916,1264.274588660337
1711327419955,1264.274588660337
1711327419995,1264.274588660337
1711327420035,1264.274588660337
1711327420075,1253.2461685845628
1711327420116,1057.2481582770124
1711327420156,555.4081899989396
1711327420196,555.4081899989396
1711327420236,555.4081899989396
1711327420276,555.4081899989396
1711327420317,555.4081899989396
1711327420356,555.4081899989396
1711327420396,555.4081899989396
1711327420436,555.4081899989396
1711327420476,555.4081899989396
1711327420517,555.4081899989396
1711327420556,-836.9484047801234
1711327420597,-836.9484047801234
1711327420637,-836.9484047801234
1711327420677,-836.9484047801234
1711327420718,-836.9484047801234
1711327420757,-836.9484047801234
1711327420797,-836.9484047801234
1711327420837,-836.9484047801234
1711327420878,-836.9484047801234
1711327420918,-836.9484047801234
1711327420958,-836.9484047801234
1711327420998,-836.9484047801234
1711327421038,-836.9484047801234
1711327421078,-836.9484047801234
1711327421119,-373.3470374783501
1711327421158,-340.87401875900105
1711327421198,-340.87401875900105
1711327421238,169.64449708163738
1711327421278,362.59444413986057
1711327421319,733.0050359750167
1711327421359,1301.2464104583487
1711327421399,1365.499233730603
1711327421439,1555.2673720521852
1711327421479,1624.2740047504194
1711327421520,1624.2740047504194
1711327421559,1624.2740047504194
1711327421600,1624.2740047504194
1711327421640,1624.2740047504194
1711327421680,1624.2740047504194
1711327421721,1557.011579239741
1711327421760,1555.2673720521852
1711327421800,1555.2673720521852
1711327421840,1555.2673720521852
1711327421880,1555.2673720521852
1711327421921,1555.2673720521852
1711327421961,1555.2673720521852
1711327422001,1555.2673720521852
1711327422041,1555.2673720521852
1711327422081,1555.2673720521852
1711327422122,1555.2673720521852
1711327422161,1096.1523468908854
1711327422202,914.576961482875
1711327422241,914.576961482875
1711327422282,914.576961482875
1711327422323,783.5298089096323
1711327422362,783.5298089096323
1711327422402,692.1347997114062
1711327422442,692.1347997114062
1711327422482,692.1347997114062
1711327422523,614.616213104222
1711327422563,371.02291242498904
1711327422603,371.02291242498904
1711327422645,371.02291242498904
1711327422685,371.02291242498904
1711327422726,614.616213104222
1711327422765,692.1347997114062
1711327422805,783.5298089096323
1711327422845,878.8091315091588
1711327422886,914.576961482875
1711327422927,929.2479219022207
1711327422966,1096.1523468908854
1711327423006,1136.1255313307047
1711327423046,1155.1708758892491
1711327423086,1216.5539718791842
1711327423127,1602.5406750524417
1711327423167,1900.192952436395
1711327423207,2260.475845850073
1711327423247,2318.599131723866
1711327423287,2318.599131723866
1711327423328,2318.599131723866
1711327423367,2318.599131723866
1711327423407,2318.599131723866
1711327423447,2318.599131723866
1711327423487,2318.599131723866
1711327423528,2318.599131723866
1711327423567,2318.599131723866
1711327423608,2318.599131723866
1711327423648,2654.171325158328
1711327423688,2654.171325158328
1711327423729,2654.171325158328
1711327423768,2654.171325158328
1711327423808,2654.171325158328
1711327423848,2599.210618466139
1711327423888,2599.210618466139
1711327423929,2318.599131723866
1711327423968,2182.090513515286
1711327424009,2112.0443448703736
1711327424049,1935.7372111096047
1711327424089,1682.2262849672697
1711327424130,1682.2262849672697
1711327424169,1682.2262849672697
1711327424209,1682.2262849672697
1711327424249,1682.2262849672697
1711327424289,1682.2262849672697
1711327424330,1682.2262849672697
1711327424370,1682.2262849672697
1711327424410,1550.384128156118
1711327424450,1286.1812853338197
1711327424490,-1200.5104520027526
1711327424531,-1240.157254380174
1711327424570,-1281.9779075160623
1711327424610,-1281.9779075160623
1711327424650,-1281.9779075160623
1711327424690,-1281.9779075160623
1711327424731,-1281.9779075160623
1711327424771,-1281.9779075160623
1711327424811,-1281.9779075160623
1711327424851,-1281.9779075160623
1711327424891,-1281.9779075160623
1711327424932,-1240.157254380174
1711327424971,-1240.157254380174
1711327425011,-1240.157254380174
1711327425051,-1240.157254380174
1711327425092,-1240.157254380174
1711327425132,-1240.157254380174
1711327425172,-1200.5104520027526
1711327425212,-1155.572356642224
1711327425252,-939.6263710227795
1711327425292,-916.6244722432457
1711327425333,-784.6886962046847
1711327425372,-771.5793951135129
1711327425412,-641.3746278369799
1711327425452,-581.1915739476681
1711327425492,-581.1915739476681
1711327425533,-314.19695162959397
1711327425573,-284.40376055426896
1711327425613,-244.10714267380536
1711327425653,152.16475298907608
1711327425693,152.99055961612612
1711327425734,489.6458718823269
1711327425773,489.6458718823269
1711327425813,489.6458718823269
1711327425853,718.3305277470499
1711327425894,859.3687828043476
1711327425935,859.3687828043476
1711327425974,859.3687828043476
1711327426014,859.3687828043476
1711327426054,859.3687828043476
1711327426094,859.3687828043476
1711327426135,859.3687828043476
1711327426174,859.3687828043476
1711327426215,859.3687828043476
1711327426255,855.8127655074932
1711327426295,829.1169718103483
1711327426335,813.0282217841595
1711327426375,741.5587528655306
1711327426415,741.5587528655306
1711327426455,741.5587528655306
1711327426495,675.0835351548158
1711327426536,639.848830810748
1711327426576,622.1187400263734
1711327426616,622.1187400263734
1711327426656,622.1187400263734
1711327426696,547.798391119577
1711327426737,519.9268499379978
1711327426776,450.66251890175045
1711327426816,447.6489916606806
1711327426856,431.52997103706
1711327426897,330.78206593357027
1711327426937,330.78206593357027
1711327426977,330.78206593357027
1711327427017,330.78206593357027
1711327427057,330.78206593357027
1711327427097,330.78206593357027
1711327427138,330.78206593357027
1711327427177,276.5349372001365
1711327427217,276.5349372001365
1711327427258,276.5349372001365
1711327427298,276.5349372001365
1711327427339,-58.64692162536085
1711327427378,-58.64692162536085
1711327427418,-58.64692162536085
1711327427458,-58.64692162536085
1711327427499,-58.64692162536085
1711327427539,-58.64692162536085
1711327427579,-58.64692162536085
1711327427619,181.73134001437575
1711327427659,276.5349372001365
1711327427699,463.9053008891642
1711327427740,500.4865733999759
1711327427779,500.4865733999759
1711327427819,500.4865733999759
1711327427860,500.4865733999759
1711327427900,500.4865733999759
1711327427940,500.4865733999759
1711327427980,586.2006947165355
1711327428020,895.1894535794854
1711327428060,947.9079685285687
1711327428100,947.9079685285687
1711327428141,947.9079685285687
1711327428180,947.9079685285687
1711327428221,947.9079685285687
1711327428261,947.9079685285687
1711327428301,947.9079685285687
1711327428342,947.9079685285687
1711327428381,947.9079685285687
1711327428421,947.9079685285687
1711327428461,947.9079685285687
1711327428501,953.7782388250344
1711327428542,996.8398071043193
1711327428582,947.9079685285687
1711327428622,947.9079685285687
1711327428662,1139.608575257007
1711327428702,1260.1893778378144
1711327428743,1181.7266001370735
1711327428782,1181.7266001370735
1711327428823,1181.7266001370735
1711327428862,1181.7266001370735
1711327428903,1181.7266001370735
1711327428944,1181.7266001370735
1711327428983,1181.7266001370735
1711327429023,1181.7266001370735
1711327429063,1181.7266001370735
1711327429103,1181.7266001370735
1711327429144,1181.7266001370735
1711327429184,1181.7266001370735
1711327429224,1181.7266001370735
1711327429264,1181.7266001370735
1711327429304,1181.7266001370735
1711327429345,1139.608575257007
1711327429384,936.7370803910308
1711327429424,608.4474081262015
1711327429464,355.4049990735948
1711327429504,110.6024569296278
1711327429546,74.0906957089901
1711327429585,-37.683462620247155
1711327429625,-46.10037396894768
1711327429665,-46.10037396894768
1711327429705,-46.10037396894768
1711327429746,-143.54023411264643
1711327429786,-246.0782502098009
1711327429826,-246.0782502098009
1711327429866,-251.3493209243752
1711327429906,-251.3493209243752
1711327429947,-251.3493209243752
1711327429986,-275.31497603841126
1711327430027,-364.89163071429357
1711327430067,-387.2736343354918
1711327430107,-392.3777341712266
1711327430148,-414.25342632224783
1711327430187,-392.3777341712266
1711327430227,-414.25342632224783
1711327430267,-528.0883905775845
1711327430307,-528.0883905775845
1711327430348,-528.0883905775845
1711327430387,-530.8535834541544
1711327430427,-530.8535834541544
1711327430467,-530.8535834541544
1711327430508,-621.5427549141459
1711327430548,-640.4080581534654
1711327430588,-640.4080581534654
1711327430628,-640.4080581534654
1711327430668,-640.4080581534654
1711327430708,-530.8535834541544
1711327430749,-528.0883905775845
1711327430788,-380.6690496765077
1711327430828,-280.7539610005915
1711327430868,-187.29487099358812
1711327430908,-145.45095017831773
1711327430949,-78.5433346554637
1711327430989,-42.78119496721774
1711327431029,86.6250913143158
1711327431069,228.27702726284042
1711327431109,268.8348493142985
1711327431150,324.4701155759394
1711327431189,455.5675553577021
1711327431229,492.0258358325809
1711327431269,546.1479083406739
1711327431309,560.7271046447568
1711327431350,847.3654728187248
1711327431390,1110.4656660486944
1711327431430,1114.7575129903853
1711327431470,1295.57885508053
1711327431510,1437.3028910011053
1711327431551,1437.3028910011053
1711327431590,1437.3028910011053
1711327431630,1437.3028910011053
1711327431670,1437.3028910011053
1711327431711,1437.7347616581246
1711327431751,1575.2126400563866
1711327431791,1711.5246455199085
1711327431831,1711.5246455199085
1711327431871,1575.2126400563866
1711327431911,1437.7347616581246
1711327431952,1437.3028910011053
1711327431991,1391.3891932871193
1711327432031,1391.3891932871193
1711327432072,1391.3891932871193
1711327432112,1391.3891932871193
1711327432152,1391.3891932871193
1711327432192,1437.7347616581246
1711327432232,1474.9597175852396
1711327432272,1437.7347616581246
1711327432312,1391.3891932871193
1711327432353,1167.4117697142065
1711327432392,1167.4117697142065
1711327432432,1167.4117697142065
1711327432472,1167.4117697142065
1711327432512,1167.4117697142065
1711327432553,1035.03164052777
1711327432593,907.5865469826385
1711327432633,862.6582507439889
1711327432673,848.650139158126
1711327432713,790.1000296170823
1711327432754,763.0160562293604
1711327432793,673.3289411491714
1711327432833,673.3289411491714
1711327432873,673.3289411491714
1711327432914,673.3289411491714
1711327432954,673.3289411491714
1711327432994,673.3289411491714
1711327433034,637.0613388856873
1711327433074,637.0613388856873
1711327433114,637.0613388856873
1711327433155,673.3289411491714
1711327433194,690.5240089106373
1711327433235,790.1000296170823
1711327433275,848.650139158126
1711327433315,1199.3763499553315
1711327433356,1199.3763499553315
1711327433395,1199.3763499553315
1711327433435,1199.3763499553315
1711327433475,1199.3763499553315
1711327433516,1199.3763499553315
1711327433556,1199.3763499553315
1711327433596,1199.3763499553315
1711327433636,1199.3763499553315
1711327433676,690.5240089106373
1711327433716,664.1067251693457
1711327433757,434.53208934608847
1711327433796,433.09353880304843
1711327433836,359.1289286306128
1711327433876,214.35556743154302
1711327433916,164.93858901923522
1711327433957,128.52128940913826
1711327433997,67.14193530008197
1711327434037,59.09520388767123
1711327434077,-17.226071815937757
1711327434117,-112.47400005720556
1711327434158,-708.4116822094657
1711327434197,-784.4867494362406
1711327434238,-919.1725695659406
1711327434277,-949.1112711546011
1711327434318,-970.8805236816406
1711327434359,-1115.8379435273819
1711327434398,-1115.8379435273819
1711327434438,-1125.9754170887172
1711327434478,-1125.9754170887172
1711327434518,-1125.9754170887172
1711327434559,-1125.9754170887172
1711327434598,-1218.2088319193572
1711327434638,-1243.166082308162
1711327434677,-1218.2088319193572
1711327434717,-1218.2088319193572
1711327434757,-1218.2088319193572
1711327434797,-1125.9754170887172
1711327434837,-1115.8379435273819
1711327434877,-1073.7181386994198
1711327434917,-977.8744849469513
1711327434958,-977.8744849469513
1711327434997,-970.8805236816406
1711327435038,-884.4127835119143
1711327435078,-823.1183437560685
1711327435118,-711.9981796722859
1711327435159,-695.1286173779517
1711327435198,-675.2765728486702
1711327435238,-573.9988554557785
1711327435278,-521.8935649762861
1711327435319,-519.9860262721777
1711327435359,-406.58600570168346
1711327435399,-399.7096204501577
1711327435439,15.261279020924121
1711327435479,249.92501795757562
1711327435519,350.3317675306462
1711327435560,464.0711834351532
1711327435599,843.4000512063503
1711327435639,1003.9550609481521
1711327435680,1424.2228423431516
1711327435720,1480.6705947555602
1711327435761,1498.2420785203576
1711327435800,1498.2420785203576
1711327435840,1498.2420785203576
1711327435880,1513.7200837121345
1711327435920,1646.8069451944903
1711327435961,1719.4070999640971
1711327436001,1719.4070999640971
1711327436041,1719.4070999640971
1711327436081,1728.9383939616382
1711327436121,1781.3120614513755
1711327436162,1728.9383939616382
1711327436201,1719.4070999640971
1711327436241,1719.4070999640971
1711327436282,1661.4789029611275
1711327436322,1647.8426599600352
1711327436363,1646.8069451944903
1711327436402,1646.8069451944903
1711327436442,1636.4983737641014
1711327436482,1628.7705083312467
1711327436522,1545.723461679183
1711327436563,1513.7200837121345
1711327436603,1459.6466264431365
1711327436643,1459.6466264431365
1711327436683,1459.6466264431365
1711327436723,1435.7033282378688
1711327436764,1357.999815568328
1711327436803,1218.8923814310692
1711327436844,1068.9547194717452
1711327436884,842.3893823288381
1711327436924,445.199806840159
1711327436965,408.13515642564744
1711327437004,260.3631529295817
1711327437044,84.06074365228415
1711327437084,-25.920845557935536
1711327437124,-846.3967479253188
1711327437165,-1041.633897411637
1711327437204,-1335.7980025764555
1711327437245,-1368.557682630606
1711327437285,-1368.557682630606
1711327437325,-1368.557682630606
1711327437366,-1522.7521329084411
1711327437405,-1522.7521329084411
1711327437445,-1522.7521329084411
1711327437485,-1522.7521329084411
1711327437525,-1522.7521329084411
1711327437566,-1522.7521329084411
1711327437605,-1587.323341716081
1711327437645,-1620.4287182865664
1711327437685,-1620.4287182865664
1711327437726,-1620.4287182865664
1711327437766,-1620.4287182865664
1711327437806,-1587.323341716081
1711327437846,-1579.2351846778765
1711327437886,-1422.0632268246263
1711327437926,-1368.557682630606
1711327437967,-1309.7721131006256
1711327438006,-1246.589823805727
1711327438046,-1140.4918472468853
1711327438087,-1114.3334026327357
1711327438127,-1061.0129174580798
1711327438167,-959.8841300676577
1711327438207,-959.0041874707676
1711327438247,-632.7038373262621
1711327438287,-602.7087015174329
1711327438327,-586.5905647957698
1711327438368,-586.5905647957698
1711327438407,-586.5905647957698
1711327438448,-427.84465941693634
1711327438488,-313.62408354412764
1711327438528,-274.0965611981228
1711327438569,-258.6995513839647
1711327438608,-180.07511837780476
1711327438648,-117.08471603319049
1711327438688,-117.08471603319049
1711327438728,-89.43638219498098
1711327438769,59.949357125908136
1711327438809,59.949357125908136
1711327438848,59.949357125908136
1711327438889,59.949357125908136
1711327438929,59.949357125908136
1711327438970,59.949357125908136
1711327439009,59.949357125908136
1711327439049,59.949357125908136
1711327439089,143.972968487069
1711327439129,59.949357125908136
1711327439170,36.44594411784783
1711327439209,36.44594411784783
1711327439249,36.44594411784783
1711327439290,36.44594411784783
1711327439330,59.949357125908136
1711327439371,36.44594411784783
1711327439410,59.949357125908136
1711327439450,59.949357125908136
1711327439490,70.09601661004126
1711327439530,143.972968487069
1711327439571,70.09601661004126
1711327439611,70.09601661004126
1711327439651,196.67897351877764
1711327439691,206.6624784898013
1711327439731,206.6624784898013
1711327439772,206.6624784898013
1711327439811,206.6624784898013
1711327439851,206.6624784898013
1711327439891,256.08265003189445
1711327439931,206.6624784898013
1711327439972,256.08265003189445
1711327440012,301.77793481666595
1711327440052,314.5173862329684
1711327440092,320.0353137878701
1711327440132,342.68002617545426
1711327440173,437.47513979673386
1711327440212,490.9254416273907
1711327440253,545.5973352137953
1711327440293,545.8901641014963
1711327440333,549.543403734453
1711327440374,582.225646013394
1711327440413,653.2617974504828
1711327440453,686.8789293682203
1711327440493,806.6179016116075
1711327440533,806.758672112599
1711327440574,1018.8779786592349
1711327440614,1018.8779786592349
1711327440654,1018.8779786592349
1711327440694,1018.8779786592349
1711327440734,1018.8779786592349
1711327440775,1018.8779786592349
1711327440814,1018.8779786592349
1711327440854,1018.8779786592349
1711327440894,1018.8779786592349
1711327440934,1018.8779786592349
1711327440975,806.6179016116075
1711327441015,596.5316370064393
1711327441055,508.68218369595706
1711327441095,489.86216619843617
1711327441135,366.6541550694965
1711327441176,359.9163303365931
1711327441215,345.75104815512896
1711327441255,326.3253999352455
1711327441295,172.28667179029435
1711327441336,92.67896457388997
1711327441376,92.67896457388997
1711327441416,92.67896457388997
1711327441456,92.67896457388997
1711327441496,92.67896457388997
1711327441536,92.67896457388997
1711327441577,92.67896457388997
1711327441616,92.67896457388997
1711327441656,92.67896457388997
1711327441697,92.67896457388997
1711327441737,92.67896457388997
1711327441777,92.67896457388997
1711327441817,-155.9245489165187
1711327441857,-155.9245489165187
1711327441897,-155.9245489165187
1711327441937,-155.9245489165187
1711327441978,-155.9245489165187
1711327442017,-155.9245489165187
1711327442058,-73.49839930702001
1711327442098,-34.79727577697486
1711327442138,97.41487076925114
1711327442179,117.53683520387858
1711327442218,117.53683520387858
1711327442258,78.57455933652818
1711327442299,78.57455933652818
1711327442339,-34.79727577697486
1711327442379,-55.503282639198005
1711327442419,-55.503282639198005
1711327442459,-55.503282639198005
1711327442499,-34.79727577697486
1711327442539,78.57455933652818
1711327442580,187.66472469549626
1711327442620,189.281469094567
1711327442660,189.281469094567
1711327442700,189.281469094567
1711327442740,189.281469094567
1711327442781,189.281469094567
1711327442820,78.57455933652818
1711327442860,24.637773491442204
1711327442903,-25.434409542009234
1711327442941,24.637773491442204
1711327442981,24.637773491442204
1711327443021,-25.434409542009234
1711327443061,-55.503282639198005
1711327443101,-25.434409542009234
1711327443142,-25.434409542009234
1711327443182,24.637773491442204
1711327443222,45.09097567340359
1711327443262,45.09097567340359
1711327443302,161.75366548635066
1711327443342,161.75366548635066
1711327443383,161.75366548635066
1711327443422,161.75366548635066
1711327443463,161.75366548635066
1711327443503,164.89791744295508
1711327443543,175.3791646771133
1711327443584,175.3791646771133
1711327443623,263.3637108914554
1711327443663,526.1069575380534
1711327443703,703.5055017163977
1711327443744,720.0543515086174
1711327443784,886.2358717434108
1711327443824,915.7901493064128
1711327443864,915.7901493064128
1711327443904,915.7901493064128
1711327443944,915.7901493064128
1711327443985,915.7901493064128
1711327444024,915.7901493064128
1711327444064,915.7901493064128
1711327444104,915.7901493064128
1711327444144,915.7901493064128
1711327444185,925.5248054447584
1711327444225,915.7901493064128
1711327444265,886.2358717434108
1711327444305,886.2358717434108
1711327444345,886.2358717434108
1711327444386,886.2358717434108
1711327444425,721.9753099889494
1711327444465,721.9753099889494
1711327444505,721.9753099889494
1711327444545,721.9753099889494
1711327444586,721.9753099889494
1711327444626,721.9753099889494
1711327444666,721.9753099889494
1711327444706,721.9753099889494
1711327444746,721.9753099889494
1711327444787,721.9753099889494
1711327444826,721.9753099889494
1711327444866,721.9753099889494
1711327444906,721.9753099889494
1711327444946,721.9753099889494
1711327444987,619.127943106927
1711327445027,616.3346108878031
1711327445067,616.3346108878031
1711327445109,616.3346108878031
1711327445147,389.50651141349226
1711327445188,248.31648287037387
1711327445227,121.65169624332339
1711327445267,77.64177658315748
1711327445307,70.2783532794565
1711327445347,45.757493062876165
1711327445388,44.684970581904054
1711327445428,-28.136567416600883
1711327445468,-30.42050456441939
1711327445508,-56.57520405435935
1711327445548,-56.57520405435935
1711327445589,-93.80409730877727
1711327445628,-123.74075726466253
1711327445668,-137.64569219574332
1711327445708,-220.12927952921018
1711327445748,-227.8135400833562
1711327445789,-284.0511973462999
1711327445829,-307.89381385035813
1711327445869,-548.9384820144624
1711327445909,-751.2002599104308
1711327445949,-897.7059969720431
1711327445990,-897.7059969720431
1711327446029,-897.7059969720431
1711327446069,-908.7328556515276
1711327446109,-954.8984835422598
1711327446150,-994.5434452779591
1711327446190,-994.5434452779591
1711327446230,-994.5434452779591
1711327446270,-994.5434452779591
1711327446310,-994.5434452779591
1711327446350,-994.5434452779591
1711327446391,-954.8984835422598
1711327446430,-908.7328556515276
1711327446470,-751.2002599104308
1711327446510,-745.7424997407943
1711327446551,-706.8426586701535
1711327446591,-648.986849072855
1711327446631,-627.1003056336194
1711327446671,-561.2296797037125
1711327446708,-521.357403066475
1711327446748,-515.4449593327008
1711327446789,-512.7917580958456
1711327446828,-384.8517559505999
1711327446869,-302.1758633540012
1711327446909,-58.098241828382015
1711327446949,80.71810491941869
1711327446990,132.99642780190334
1711327447029,164.5081913303584
1711327447069,378.7291356995702
1711327447109,378.7291356995702
1711327447149,378.7291356995702
1711327447190,378.7291356995702
1711327447229,378.7291356995702
1711327447269,378.7291356995702
1711327447310,385.33969775028527
1711327447350,392.1500165211037
1711327447391,399.3045884259045
1711327447430,499.7788061471656
1711327447470,531.0205033714883
1711327447510,638.2515631495044
1711327447550,726.2105681472458
1711327447591,826.9101391844451
1711327447631,826.9101391844451
1711327447671,826.9101391844451
1711327447711,826.9101391844451
1711327447751,836.4020996564068
1711327447792,758.0214657075703
1711327447831,739.5935388919897
1711327447871,739.5935388919897
1711327447911,739.5935388919897
1711327447952,739.5935388919897
1711327447992,739.5935388919897
1711327448032,739.5935388919897
1711327448072,739.5935388919897
1711327448112,739.5935388919897
1711327448152,739.5935388919897
1711327448193,758.0214657075703
1711327448232,758.0214657075703
1711327448272,739.5935388919897
1711327448313,739.5935388919897
1711327448353,698.8976581515744
1711327448394,698.8976581515744
1711327448433,698.8976581515744
1711327448473,698.8976581515744
1711327448513,698.8976581515744
1711327448554,698.8976581515744
1711327448594,698.8976581515744
1711327448634,664.233469396364
1711327448674,664.233469396364
1711327448714,664.233469396364
1711327448754,664.233469396364
1711327448795,664.233469396364
1711327448834,664.233469396364
1711327448875,664.233469396364
1711327448915,664.233469396364
1711327448955,664.233469396364
1711327448996,664.233469396364
1711327449035,629.4329791041091
1711327449075,629.4329791041091
1711327449115,629.4329791041091
1711327449156,629.4329791041091
1711327449196,629.4329791041091
1711327449236,589.7661166409962
1711327449276,589.7661166409962
1711327449316,577.4740012073889
1711327449356,464.5764933442697
1711327449397,464.5764933442697
1711327449436,377.7030510837212
1711327449476,307.34399464773014
1711327449517,307.34399464773014
1711327449557,307.34399464773014
1711327449597,307.34399464773014
1711327449637,307.34399464773014
1711327449677,307.34399464773014
1711327449717,307.34399464773014
1711327449757,307.34399464773014
1711327449798,307.34399464773014
1711327449838,290.3096520155668
1711327449878,115.8973780432716
1711327449918,-20.650559027679265
1711327449958,-72.77662516245618
1711327449999,-131.00705632427707
1711327450038,-178.78682468179613
1711327450078,-237.20272194687277
1711327450119,-371.37555573508143
1711327450159,-442.2883944232017
1711327450199,-523.3881114274263
1711327450239,-554.4883744032122
1711327450279,-712.164803207852
1711327450319,-743.7820195425302
1711327450359,-778.1554438937455
1711327450400,-800.8350714733824
1711327450439,-800.8350714733824
1711327450480,-800.8350714733824
1711327450520,-800.8350714733824
1711327450560,-778.1554438937455
1711327450601,-743.7820195425302
1711327450640,-743.7820195425302
1711327450680,-712.164803207852
1711327450720,-639.1856947299093
1711327450760,-639.1856947299093
1711327450801,-639.1856947299093
1711327450840,-554.4883744032122
1711327450880,-545.836370837409
1711327450920,-545.836370837409
1711327450961,-526.6156777152792
1711327451001,-526.6156777152792
1711327451041,-473.35761796310544
1711327451081,-459.1653764201328
1711327451121,-383.6098855221644
1711327451161,-326.5185927739367
1711327451202,-226.6602051248774
1711327451241,-202.33248399663717
1711327451281,-194.66077022394165
1711327451321,-159.22955412883312
1711327451361,-3.40414762403816
1711327451402,214.99031274206936
1711327451442,363.9157323995605
1711327451482,474.1637652670033
1711327451522,1643.4647743673995
1711327451562,1763.3751101261005
1711327451603,1775.8319069454446
1711327451642,1800.507315597497
1711327451682,1883.3881059880368
1711327451722,1883.3881059880368
1711327451762,1883.3881059880368
1711327451803,1883.3881059880368
1711327451842,1883.3881059880368
1711327451882,1883.3881059880368
1711327451923,1883.3881059880368
1711327451963,1800.507315597497
1711327452003,1800.507315597497
1711327452043,1883.3881059880368
1711327452083,1883.3881059880368
1711327452123,1883.3881059880368
1711327452163,1800.507315597497
1711327452204,1775.8319069454446
1711327452243,1732.205131324008
1711327452283,1466.9177601267584
1711327452323,1466.9177601267584
1711327452363,1466.3894894360565
1711327452404,1464.9037893442437
1711327452444,1417.9014660995454
1711327452484,1359.602368190419
1711327452524,1337.944263617508
1711327452564,1337.944263617508
1711327452605,1337.944263617508
1711327452644,1337.944263617508
1711327452684,1337.944263617508
1711327452724,1180.8898831531405
1711327452764,1180.8898831531405
1711327452805,1067.7584505770355
1711327452845,1054.9636753005907
1711327452885,973.8245789590292
1711327452925,911.7841321798041
1711327452965,767.2946091769263
1711327453006,675.585395058617
1711327453045,593.5114084016532
1711327453085,570.8396341633052
1711327453125,529.4677986428142
1711327453165,466.40236571989954
1711327453206,466.40236571989954
1711327453246,466.40236571989954
1711327453286,466.40236571989954
1711327453326,466.40236571989954
1711327453366,391.0561771923676
1711327453407,391.0561771923676
1711327453446,391.0561771923676
1711327453486,399.9309584191069
1711327453526,466.40236571989954
1711327453566,466.40236571989954
1711327453607,466.40236571989954
1711327453646,466.40236571989954
1711327453687,466.40236571989954
1711327453727,466.40236571989954
1711327453767,399.9309584191069
1711327453808,399.9309584191069
1711327453847,391.0561771923676
1711327453887,377.4103428120725
1711327453927,155.50134648615494
1711327453967,54.62616170570254
1711327454008,54.62616170570254
1711327454047,54.62616170570254
1711327454088,54.62616170570254
1711327454128,54.62616170570254
1711327454168,6.3471275488846
1711327454209,-42.453708520159125
1711327454248,-65.8048818828538
1711327454288,-227.05665751732886
1711327454328,-227.05665751732886
1711327454368,-227.05665751732886
1711327454409,-240.7669116575271
1711327454449,-240.7669116575271
1711327454489,-240.7669116575271
1711327454529,-240.7669116575271
1711327454569,-295.69273333624005
1711327454610,-303.33884476916865
1711327454649,-444.5460708346218
1711327454689,-489.84144053794444
1711327454729,-567.8989713015035
1711327454770,-640.0651250793599
1711327454810,-640.0651250793599
1711327454850,-640.0651250793599
1711327454890,-640.0651250793599
1711327454930,-640.0651250793599
1711327454970,-640.0651250793599
1711327455011,-640.0651250793599
1711327455050,-640.0651250793599
1711327455090,-567.8989713015035
1711327455130,-460.39090623660013
1711327455171,-460.39090623660013
1711327455211,-460.39090623660013
1711327455251,-442.3744308431633
1711327455291,-322.39567748783156
1711327455331,-209.48448082851246
1711327455371,-209.48448082851246
1711327455412,-199.70509211998433
1711327455451,-175.9727405216545
1711327455492,-171.28577704075724
1711327455532,-103.76130153378472
1711327455572,31.51020035147667
1711327455613,37.435230906587094
1711327455652,37.89843155629933
1711327455692,171.55785501468927
1711327455732,200.60090971039608
1711327455773,418.4036303181201
1711327455813,444.440767431166
1711327455853,493.1514181373641
1711327455893,665.1823631725274
1711327455933,809.6002904521301
1711327455973,854.8255797764286
1711327456014,882.7201585909352
1711327456053,886.2552213212475
1711327456093,886.2552213212475
1711327456134,920.5755653586239
1711327456174,920.5755653586239
1711327456214,922.5570178031921
1711327456254,922.5570178031921
1711327456294,922.5570178031921
1711327456334,922.5570178031921
1711327456374,920.5755653586239
1711327456415,886.2552213212475
1711327456454,886.2552213212475
1711327456495,886.2552213212475
1711327456535,886.2552213212475
1711327456575,854.8255797764286
1711327456616,389.321898589842
1711327456655,246.9992090971209
1711327456695,236.12676129397005
1711327456735,236.12676129397005
1711327456775,236.12676129397005
1711327456816,235.0038840631023
1711327456856,3.331052713096142
1711327456896,-27.170287093613297
1711327456936,-168.34612888284028
1711327456976,-168.34612888284028
1711327457017,-168.34612888284028
1711327457056,-168.34612888284028
1711327457097,-205.13756952621043
1711327457137,-245.06982325110584
1711327457177,-205.13756952621043
1711327457218,-245.06982325110584
1711327457257,-245.06982325110584
1711327457297,-217.70765917375684
1711327457338,-217.70765917375684
1711327457378,-205.13756952621043
1711327457418,-168.34612888284028
1711327457458,-109.39393622195348
1711327457498,-73.83488801168278
1711327457538,-73.83488801168278
1711327457578,-73.83488801168278
1711327457619,-73.83488801168278
1711327457659,-27.170287093613297
1711327457699,78.65252951951697
1711327457739,188.84131815610453
1711327457779,254.9062377414666
1711327457820,254.9062377414666
1711327457859,546.9228062480688
1711327457899,829.7075910735875
1711327457939,1147.4975164532661
1711327457979,1147.4975164532661
1711327458020,1147.4975164532661
1711327458060,1147.4975164532661
1711327458100,1147.4975164532661
1711327458140,1147.4975164532661
1711327458180,1147.4975164532661
1711327458221,1147.4975164532661
1711327458260,1147.4975164532661
1711327458300,1147.4975164532661
1711327458340,1147.4975164532661
1711327458380,879.966525782831
1711327458421,660.9008486480452
1711327458461,453.6079224841669
1711327458501,440.4375485968776
1711327458541,376.85812714137137
1711327458581,352.38132375478745
1711327458622,160.48375272983685
1711327458661,149.20659498684108
1711327458701,141.40692386357114
1711327458751,78.40993930678815
1711327458792,61.04094183631241
1711327458832,-11.998575430829078
1711327458872,-43.25552143808454
1711327458912,-69.65326178073883
1711327458952,-197.40643423050642
1711327458992,-231.3521198462695
1711327459033,-405.99850923381746
1711327459072,-622.3161985101178
1711327459112,-884.0523679088801
1711327459153,-1386.060903787613
1711327459193,-1477.4072755901143
1711327459233,-1477.4072755901143
1711327459273,-1477.4072755901143
1711327459313,-1477.4072755901143
1711327459353,-1477.4072755901143
1711327459393,-1477.4072755901143
1711327459434,-1477.4072755901143
1711327459473,-1477.4072755901143
1711327459513,-1477.4072755901143
1711327459553,-1477.4072755901143
1711327459594,-1477.4072755901143
1711327459634,-1272.8653329564258
1711327459674,-1053.1558510279283
1711327459714,-828.0777773279697
1711327459754,-733.4062383649871
1711327459794,-692.8144844719209
1711327459835,-670.4171880614012
1711327459874,-612.3754424545914
1711327459914,-576.7656361469999
1711327459954,-513.3569115623832
1711327459995,-432.04359799064696
1711327460035,-170.09834241261706
1711327460075,-120.20000454084948
1711327460115,-42.21324886009097
1711327460155,181.98442457662895
1711327460195,233.2382736792788
1711327460236,248.85707304580137
1711327460275,248.85707304580137
1711327460315,514.00751309935
1711327460356,663.4808259783313
1711327460396,1153.338366583921
1711327460436,1170.6801384338178
1711327460476,1170.6801384338178
1711327460516,1233.7001916123554
1711327460556,1260.6075564655475
1711327460596,1260.6075564655475
1711327460637,1270.923923944123
1711327460676,1270.923923944123
1711327460717,1270.923923944123
1711327460756,1270.923923944123
1711327460797,1260.6075564655475
1711327460838,1320.8304680222645
1711327460877,1320.8304680222645
1711327460917,1260.6075564655475
1711327460957,1320.8304680222645
1711327460997,1327.7577250255272
1711327461038,1327.7577250255272
1711327461078,1260.6075564655475
1711327461118,1229.8051846111193
1711327461158,1229.8051846111193
1711327461198,1196.7203654265031
1711327461239,1156.729549350217
1711327461278,1089.0287490752526
1711327461318,1089.0287490752526
1711327461358,954.7240354288369
1711327461398,888.7240910790861
1711327461439,850.3308070129715
1711327461479,839.9987307367846
1711327461519,628.0108169298619
1711327461559,628.0108169298619
1711327461599,574.3969747498631
1711327461640,563.2489855643362
1711327461680,347.5951193124056
1711327461720,182.43832828477025
1711327461760,161.46475807763636
1711327461800,144.81254773028195
1711327461841,144.16756148822606
1711327461880,129.94015203416348
1711327461920,127.22771091619506
1711327461960,-4.507137024775147
1711327462000,-70.24832056229934
1711327462041,-83.45645958324894
1711327462081,-152.41429413110018
1711327462121,-235.35043898131698
1711327462161,-235.35043898131698
1711327462201,-277.4977848175913
1711327462242,-417.20785202784464
1711327462282,-422.1211921116337
1711327462322,-422.1211921116337
1711327462362,-422.1211921116337
1711327462402,-422.1211921116337
1711327462443,-422.1211921116337
1711327462482,-422.1211921116337
1711327462522,-417.20785202784464
1711327462562,-277.4977848175913
1711327462603,-277.4977848175913
1711327462644,-235.31035577924922
1711327462683,-235.31035577924922
1711327462723,-235.31035577924922
1711327462763,-235.31035577924922
1711327462803,-225.10111317876726
1711327462844,-235.31035577924922
1711327462884,-235.31035577924922
1711327462924,-235.31035577924922
1711327462964,-225.10111317876726
1711327463004,-225.10111317876726
1711327463045,-152.4114315607585
1711327463084,-152.12078016018495
1711327463125,-148.37487249728292
1711327463165,-140.73294584685937
1711327463205,-117.82979774614796
1711327463246,-67.50245486432686
1711327463285,-67.50245486432686
1711327463325,-67.50245486432686
1711327463366,76.09915588982403
1711327463406,97.06759471120313
1711327463446,108.88770866859704
1711327463486,190.5822226535529
1711327463526,293.13086915854365
1711327463566,340.66654357872903
1711327463606,418.2104852264747
1711327463647,418.2104852264747
1711327463687,418.2104852264747
1711327463727,418.2104852264747
1711327463767,418.2104852264747
1711327463807,418.2104852264747
1711327463848,418.2104852264747
1711327463887,418.2104852264747
1711327463927,340.66654357872903
1711327463968,190.5822226535529
1711327464008,101.17561711743474
1711327464049,101.17561711743474
1711327464088,97.06759471120313
1711327464128,84.52696335036308
1711327464168,-25.367227523121983
1711327464208,-28.039140827953815
1711327464249,-138.87925331760198
1711327464288,-159.017808069475
1711327464329,-188.55335308704525
1711327464369,-214.1438217908144
1711327464409,-232.05409898422658
1711327464450,-260.6665645982139
1711327464489,-263.87182689039037
1711327464529,-280.8135776654817
1711327464569,-327.7512736450881
1711327464609,-280.8135776654817
1711327464650,-260.6665645982139
1711327464690,-260.6665645982139
1711327464730,-346.16552277095616
1711327464770,-350.15612346865237
1711327464810,-396.462538940832
1711327464851,-398.09187125694007
1711327464890,-424.8172402558848
1711327464930,-438.503316543065
1711327464970,-559.5306529868394
1711327465010,-559.5306529868394
1711327465051,-559.5306529868394
1711327465091,-559.5306529868394
1711327465131,-559.5306529868394
1711327465171,-559.5306529868394
1711327465211,-559.5306529868394
1711327465252,-396.462538940832
1711327465291,-350.15612346865237
1711327465331,-177.67540515307337
1711327465371,-140.657760579139
1711327465412,-34.58789230603725
1711327465452,101.60611775610596
1711327465492,101.60611775610596
1711327465532,146.94691959768534
1711327465572,431.70756833348423
1711327465612,488.4434613431804
1711327465653,488.4434613431804
1711327465692,618.4257317376323
1711327465732,633.8890249030665
1711327465773,641.3499256330542
1711327465813,655.811642434448
1711327465853,712.7935211854056
1711327465893,789.819701581262
1711327465933,789.819701581262
1711327465973,789.819701581262
1711327466013,911.2458238750696
1711327466054,913.3205877305008
1711327466093,1046.7957710628398
1711327466134,1048.7160981353372
1711327466174,1080.6711126966402
1711327466214,1087.1940397741273
1711327466255,1110.5369321890175
1711327466294,1171.3446089439094
1711327466334,1191.6442588893697
1711327466374,1191.6442588893697
1711327466414,1171.3446089439094
1711327466455,1191.6442588893697
1711327466495,1233.283625739161
1711327466535,1233.283625739161
1711327466575,1280.9134714789689
1711327466615,1357.6777751888148
1711327466656,1357.6777751888148
1711327466695,1365.3409229484387
1711327466735,1561.2554218461737
1711327466775,1561.2554218461737
1711327466816,1561.2554218461737
1711327466856,1561.2554218461737
1711327466896,1561.2554218461737
1711327466936,1561.2554218461737
1711327466976,1561.2554218461737
1711327467016,1396.035917390138
1711327467057,1365.3409229484387
1711327467097,1357.6777751888148
1711327467137,1145.9329041428864
1711327467177,877.9929719362408
1711327467217,836.3233067751862
1711327467258,836.3233067751862
1711327467297,748.7450303365476
1711327467337,738.2492621010169
1711327467377,373.2767626577988
1711327467417,213.653973672539
1711327467458,88.99286509212106
1711327467498,49.9850823241286
1711327467538,-135.49418334290385
1711327467578,-165.27655601873994
1711327467618,-343.7622627094388
1711327467659,-396.17168545071036
1711327467698,-396.17168545071036
1711327467738,-410.6585335782729
1711327467778,-431.7042780071497
1711327467819,-431.7042780071497
1711327467859,-431.7042780071497
1711327467899,-431.7042780071497
1711327467939,-453.6492677712813
1711327467979,-568.0233472175896
1711327468019,-571.505182525143
1711327468060,-595.9233278222382
1711327468099,-630.0471086427569
1711327468140,-630.0471086427569
1711327468180,-595.9233278222382
1711327468220,-571.505182525143
1711327468261,-571.505182525143
1711327468300,-571.505182525143
1711327468340,-571.505182525143
1711327468381,-362.9799524154514
1711327468421,-311.9827021723613
1711327468462,-262.7671836987138
1711327468501,-84.30974209867418
1711327468541,-262.7671836987138
1711327468581,-262.7671836987138
1711327468621,-84.30974209867418
1711327468662,56.41502287006006
1711327468702,56.41502287006006
1711327468742,56.41502287006006
1711327468782,56.41502287006006
1711327468822,56.41502287006006
1711327468863,56.41502287006006
1711327468902,56.41502287006006
1711327468942,56.41502287006006
1711327468982,56.41502287006006
1711327469023,67.38391497824341
1711327469063,67.38391497824341
1711327469103,19.048883460462093
1711327469143,3.7778370808809996
1711327469183,3.7778370808809996
1711327469223,3.7778370808809996
1711327469264,3.7778370808809996
1711327469303,3.7778370808809996
1711327469344,3.7778370808809996
1711327469384,19.048883460462093
1711327469424,207.66220679087564
1711327469465,207.66220679087564
1711327469504,207.66220679087564
1711327469544,207.66220679087564
1711327469584,213.9120293785818
1711327469625,238.45345118036494
1711327469666,238.45345118036494
1711327469705,325.570831971243
1711327469745,325.570831971243
1711327469785,337.9114610813558
1711327469825,341.7764503546059
1711327469866,462.24398976471275
1711327469906,484.9239398445934
1711327469946,484.9239398445934
1711327469986,484.9239398445934
1711327470026,484.9239398445934
1711327470067,481.8011845257133
1711327470106,481.8011845257133
1711327470146,481.8011845257133
1711327470187,481.8011845257133
1711327470227,481.8011845257133
1711327470268,459.2164977872744
1711327470307,448.09300149884075
1711327470347,341.7764503546059
1711327470387,448.09300149884075
1711327470427,448.09300149884075
1711327470468,459.2164977872744
1711327470508,481.8011845257133
1711327470548,502.27419934328645
1711327470588,502.27419934328645
1711327470628,502.27419934328645
1711327470669,502.27419934328645
1711327470708,481.8011845257133
1711327470748,481.8011845257133
1711327470786,501.1014034319669
1711327470826,502.27419934328645
1711327470867,604.0815225085244
1711327470906,711.5952989999205
1711327470947,713.6435688612983
1711327470987,711.5952989999205
1711327471027,711.5952989999205
1711327471068,713.6435688612983
1711327471107,775.836232861504
1711327471147,775.836232861504
1711327471187,795.2673331424594
1711327471227,795.2673331424594
1711327471268,843.7802370078862
1711327471307,844.6512058246881
1711327471347,847.7671586666256
1711327471388,847.7671586666256
1711327471428,877.3272932288237
1711327471468,899.837732180953
1711327471508,979.606058137957
1711327471548,1026.2878802930936
1711327471588,1042.1736930701882
1711327471628,1042.1736930701882
1711327471669,1026.2878802930936
1711327471708,1026.2878802930936
1711327471748,979.606058137957
1711327471789,979.606058137957
1711327471829,979.606058137957
1711327471869,979.606058137957
1711327471909,979.606058137957
1711327471949,979.606058137957
1711327471989,979.606058137957
1711327472029,645.9580460777506
1711327472070,202.40970273688436
1711327472109,178.65377497160807
1711327472150,164.48353653028607
1711327472190,6.571307559963316
1711327472230,6.571307559963316
1711327472270,-83.14455648092553
1711327472310,-107.83883881522343
1711327472350,-107.83883881522343
1711327472390,-107.83883881522343
1711327472430,-107.83883881522343
1711327472471,-113.17626324808225
1711327472510,-113.17626324808225
1711327472550,-148.83843548269942
1711327472590,-240.29171820916235
1711327472631,-240.29171820916235
1711327472671,-240.29171820916235
1711327472711,-240.29171820916235
1711327472751,-240.29171820916235
1711327472791,-240.29171820916235
1711327472831,-240.29171820916235
1711327472872,-148.83843548269942
1711327472911,-113.17626324808225
1711327472951,-25.33950327336788
1711327472992,-21.903226253576577
1711327473032,-21.903226253576577
1711327473072,-25.33950327336788
1711327473112,-25.33950327336788
1711327473152,-25.33950327336788
1711327473192,-148.83843548269942
1711327473232,-280.0604602950625
1711327473273,-320.8949797367677
1711327473312,-423.7900763680227
1711327473353,-424.6145770139992
1711327473392,-472.65464089252055
1711327473432,-472.65464089252055
1711327473473,-472.65464089252055
1711327473513,-472.65464089252055
1711327473553,-472.65464089252055
1711327473593,-472.65464089252055
1711327473633,-472.65464089252055
1711327473674,-472.65464089252055
1711327473713,-472.65464089252055
1711327473753,-540.7556310556829
1711327473793,-553.2049428494647
1711327473834,-645.4101434587501
1711327473874,-663.6146997213364
1711327473914,-942.6179278502241
1711327473954,-1032.7471960186958
1711327473994,-1090.006263852585
1711327474034,-1090.006263852585
1711327474075,-1090.006263852585
1711327474114,-1090.006263852585
1711327474154,-1090.006263852585
1711327474195,-1090.006263852585
1711327474235,-1090.006263852585
1711327474275,-1368.6985045927577
1711327474315,-1368.6985045927577
1711327474355,-1368.6985045927577
