Timestamp,Cleaned PPG
1711590065251,0.0
1711590065294,0.0
1711590065331,0.0
1711590065372,0.0
1711590065411,0.0
1711590065452,0.0
1711590065492,0.0
1711590065532,0.0
1711590065573,0.0
1711590065612,0.0
1711590065652,0.0
1711590065692,0.0
1711590065732,0.0
1711590065773,0.0
1711590065813,0.0
1711590065852,0.0
1711590065893,0.0
1711590065933,0.0
1711590065974,0.0
1711590066013,0.0
1711590066053,0.0
1711590066093,0.0
1711590066133,0.0
1711590066174,0.0
1711590066213,0.0
1711590066253,0.0
1711590066293,0.0
1711590066333,0.0
1711590066374,0.0
1711590066414,0.0
1711590066454,0.0
1711590066494,0.0
1711590066534,1122601.8439738627
1711590066575,1122601.8439738627
1711590066614,1122601.8439738627
1711590066654,1122601.8439738627
1711590066694,1122601.8439738627
1711590066734,1122601.8439738627
1711590066776,1122601.8439738627
1711590066815,1122601.8439738627
1711590066855,1122601.8439738627
1711590066895,1122601.8439738627
1711590066935,1122601.8439738627
1711590066976,1057160.4774425933
1711590067015,993387.2227471587
1711590067055,916957.9903496378
1711590067095,853023.2322572239
1711590067136,801004.2582222675
1711590067176,755052.5971753728
1711590067216,709050.1338999649
1711590067256,662468.2831541453
1711590067296,621567.4016687463
1711590067336,582323.4447895626
1711590067377,544440.7286755093
1711590067416,511068.50647465326
1711590067456,479817.44168290426
1711590067499,449446.442148159
1711590067536,420110.70186759415
1711590067577,394796.82945177075
1711590067617,370986.79633351415
1711590067657,347665.0697222883
1711590067697,324614.35659193154
1711590067737,296543.88732124795
1711590067778,276223.5604888215
1711590067817,250576.89377450943
1711590067857,242230.46993652498
1711590067897,228085.54563174676
1711590067938,207940.50341322809
1711590067979,187243.95846027764
1711590068018,167342.84573959233
1711590068058,155039.15959841036
1711590068098,152099.24460483552
1711590068138,146409.50969205378
1711590068179,142868.30450549768
1711590068218,140057.50245648203
1711590068258,138218.11186564062
1711590068299,138208.29773382237
1711590068339,132797.80637873267
1711590068380,126969.3612065455
1711590068419,116468.3610631423
1711590068459,115841.42663913174
1711590068499,103151.41754116118
1711590068539,101935.05408554501
1711590068580,94980.27901241952
1711590068620,90296.58083841181
1711590068660,85313.75860840175
1711590068700,78947.13293046318
1711590068740,74672.38632921502
1711590068781,70416.44588773604
1711590068820,67896.81373908208
1711590068860,62471.54329775274
1711590068900,59084.44554747245
1711590068941,55859.302330777515
1711590068981,53470.26117167645
1711590069021,51902.4011808096
1711590069061,50430.948653194355
1711590069101,50284.896373461466
1711590069141,41836.16388036404
1711590069182,37345.36095048487
1711590069221,36459.67787004216
1711590069261,36316.33609944675
1711590069302,36164.02227078471
1711590069342,35434.3014236968
1711590069383,30794.89298349945
1711590069422,28123.545726434793
1711590069462,27917.372646282427
1711590069502,27593.284889589995
1711590069542,26815.64971102029
1711590069583,23923.292588758282
1711590069622,22523.591732431203
1711590069663,21825.077206278685
1711590069706,19477.112932073884
1711590069743,19166.451747754123
1711590069784,18674.214255865198
1711590069823,17834.255343744066
1711590069863,17274.425145403482
1711590069903,16070.144882063847
1711590069943,15481.771767606027
1711590069984,14398.175446752459
1711590070024,12342.682090394665
1711590070064,11958.259009748232
1711590070104,10965.115608603694
1711590070144,9671.285961547866
1711590070185,8950.434605670162
1711590070224,8675.062156781554
1711590070264,8663.44638028834
1711590070304,8362.13789239712
1711590070344,8326.694011858199
1711590070385,8170.531861050054
1711590070424,8081.012606333941
1711590070464,8004.03877783427
1711590070504,7451.625405982602
1711590070545,7352.087243148126
1711590070585,6824.264672137797
1711590070625,6807.389238415286
1711590070665,6758.413593563251
1711590070705,5855.102262904402
1711590070745,3536.747811009176
1711590070786,2610.267052400857
1711590070825,1683.999102624599
1711590070865,423.65794588718563
1711590070905,138.73924112785608
1711590070945,-369.549111852888
1711590070987,-662.2330724336207
1711590071026,-870.6842223387212
1711590071066,-1053.87877717847
1711590071106,-1094.271900758613
1711590071146,-1168.7002166057937
1711590071187,-1232.6727429945022
1711590071226,-1237.2676161564887
1711590071266,-1561.7224424052984
1711590071306,-2010.2921544141136
1711590071347,-2520.4623217163607
1711590071387,-3860.077026790008
1711590071427,-5064.099654101301
1711590071467,-7151.7348318416625
1711590071507,-12238.372647900134
1711590071547,-13117.248901632149
1711590071588,-13843.76893148385
1711590071627,-16766.31534830667
1711590071667,-16855.12389959907
1711590071707,-17316.149132193998
1711590071747,-17654.07851413125
1711590071788,-18067.10270839138
1711590071827,-18070.195382807404
1711590071867,-18070.195382807404
1711590071908,-18073.054165858775
1711590071948,-18073.054165858775
1711590071989,-18073.054165858775
1711590072028,-18073.054165858775
1711590072068,-18073.054165858775
1711590072108,-18070.195382807404
1711590072148,-17654.07851413125
1711590072189,-17316.149132193998
1711590072228,-16855.12389959907
1711590072268,-16766.31534830667
1711590072309,-15229.918321779463
1711590072349,-15229.918321779463
1711590072390,-15229.918321779463
1711590072429,-15229.918321779463
1711590072469,-15229.918321779463
1711590072509,-15229.918321779463
1711590072549,-14854.693874479737
1711590072590,-14652.063329855911
1711590072629,-14652.063329855911
1711590072669,-14652.063329855911
1711590072709,-14764.820123862475
1711590072749,-14764.820123862475
1711590072791,-14764.820123862475
1711590072830,-14764.820123862475
1711590072870,-14764.820123862475
1711590072910,-14845.189810846467
1711590072950,-15319.22247751709
1711590072991,-15407.776263032109
1711590073030,-16020.962263710331
1711590073070,-16068.445278073661
1711590073110,-17204.513888890855
1711590073151,-17252.246483028866
1711590073192,-17252.246483028866
1711590073231,-17252.246483028866
1711590073271,-17336.442359979264
1711590073311,-20543.871991354972
1711590073351,-26058.785148889292
1711590073392,-26058.785148889292
1711590073431,-26058.785148889292
1711590073471,-26058.785148889292
1711590073512,-26058.785148889292
1711590073551,-26058.785148889292
1711590073593,-26624.519704332808
1711590073632,-27065.00851368974
1711590073672,-28572.753044193145
1711590073712,-29833.054581699893
1711590073752,-30002.21827321779
1711590073793,-30051.40630972036
1711590073832,-30051.40630972036
1711590073872,-30051.40630972036
1711590073912,-30051.40630972036
1711590073953,-30051.40630972036
1711590073994,-29833.054581699893
1711590074033,-29833.054581699893
1711590074073,-29521.354780810885
1711590074113,-27065.00851368974
1711590074153,-26624.519704332808
1711590074194,-26154.37216301821
1711590074233,-26154.37216301821
1711590074273,-26154.37216301821
1711590074313,-26154.37216301821
1711590074354,-26453.209496690426
1711590074395,-26453.209496690426
1711590074434,-26453.209496690426
1711590074474,-26154.37216301821
1711590074514,-26033.492701584706
1711590074554,-24701.395756805316
1711590074595,-24143.103238445008
1711590074634,-23045.620282529853
1711590074674,-22239.530187841505
1711590074715,-21535.581689151237
1711590074754,-21234.308727604803
1711590074796,-20930.668388367165
1711590074835,-19207.91319622239
1711590074875,-18394.221638267394
1711590074915,-18155.92016004189
1711590074955,-17595.67265812354
1711590074996,-17595.67265812354
1711590075035,-17595.67265812354
1711590075075,-18155.92016004189
1711590075115,-17595.67265812354
1711590075156,-17055.31623900705
1711590075197,-16859.721548649948
1711590075236,-16732.60990503826
1711590075276,-16271.881859663874
1711590075316,-16207.904819063144
1711590075356,-14043.86928699864
1711590075397,-13511.05245861644
1711590075436,-12169.4961038467
1711590075476,-11928.857375010382
1711590075517,-11686.697638003156
1711590075557,-11192.38881496829
1711590075598,-8440.830155934207
1711590075637,-8310.555853815284
1711590075677,-8054.108128410764
1711590075717,-8054.108128410764
1711590075757,-6893.746090428438
1711590075798,-6893.746090428438
1711590075837,-6739.862515111221
1711590075877,-3784.430310495198
1711590075918,-2959.3659835094586
1711590075958,-2793.963703803718
1711590075999,-2762.1087669334374
1711590076038,-2486.6681846268475
1711590076078,-1009.180660856422
1711590076118,-646.7124773878604
1711590076158,814.3983970212284
1711590076199,948.331461371854
1711590076238,1426.0702680889517
1711590076278,1681.7163473239634
1711590076318,2017.0740015469491
1711590076359,2543.2540786447935
1711590076400,2954.6205845214427
1711590076439,3746.701392134186
1711590076479,4251.3808896509
1711590076519,5107.53446815582
1711590076559,5107.53446815582
1711590076600,5107.53446815582
1711590076639,5764.051205252064
1711590076679,6758.120797228534
1711590076719,7174.597942264285
1711590076760,7814.989648414543
1711590076801,7875.901285936125
1711590076840,8262.785406435374
1711590076880,8579.451506193494
1711590076920,10462.091195159592
1711590076960,11138.73639465007
1711590077001,11435.804056628607
1711590077040,12101.382765280083
1711590077080,13136.233718606178
1711590077121,13208.14623978082
1711590077161,13208.14623978082
1711590077202,13208.14623978082
1711590077241,13208.14623978082
1711590077281,13208.14623978082
1711590077321,12615.396493965993
1711590077361,12615.396493965993
1711590077402,12615.396493965993
1711590077441,12615.396493965993
1711590077481,12615.396493965993
1711590077521,12615.396493965993
1711590077562,12615.396493965993
1711590077603,5648.253912744578
1711590077642,-2428.9647167567164
1711590077682,-2428.9647167567164
1711590077722,-2428.9647167567164
1711590077762,-2428.9647167567164
1711590077803,-2428.9647167567164
1711590077843,-2428.9647167567164
1711590077883,-2428.9647167567164
1711590077923,-2493.758801918011
1711590077963,-4167.078874057159
1711590078004,-4760.199209777638
1711590078043,-4777.205169936176
1711590078083,-4921.677101289155
1711590078123,-4921.677101289155
1711590078163,-5283.332107869443
1711590078205,-5283.332107869443
1711590078244,-5842.040404023137
1711590078284,-5842.040404023137
1711590078324,-4921.677101289155
1711590078364,-4167.078874057159
1711590078405,-2428.9647167567164
1711590078444,233.6923539917916
1711590078484,275.02630669320934
1711590078524,1189.7635416798294
1711590078564,1419.974657125771
1711590078605,233.6923539917916
1711590078644,-6576.2247104095295
1711590078684,-7098.814926075283
1711590078724,-7112.667564472649
1711590078764,-8869.340585188707
1711590078806,-8869.340585188707
1711590078845,-9528.954156621592
1711590078885,-9528.954156621592
1711590078925,-10228.924863156863
1711590078965,-10228.924863156863
1711590079006,-9777.167411557399
1711590079045,-8049.727543326328
1711590079085,-6576.2247104095295
1711590079125,-6576.2247104095295
1711590079165,-6576.2247104095295
1711590079206,-6576.2247104095295
1711590079245,-7420.555759206181
1711590079286,-8049.727543326328
1711590079326,-9777.167411557399
1711590079366,-10228.924863156863
1711590079407,-10610.639169090427
1711590079446,-10725.038794890279
1711590079486,-10725.038794890279
1711590079526,-10725.038794890279
1711590079566,-10725.038794890279
1711590079607,-10725.038794890279
1711590079646,-10725.038794890279
1711590079686,-15364.664303293684
1711590079726,-15364.664303293684
1711590079767,-15364.664303293684
1711590079808,-15364.664303293684
1711590079847,-15364.664303293684
1711590079887,-15364.664303293684
1711590079927,-15364.664303293684
1711590079967,-17820.675716576865
1711590080008,-20155.917260262184
1711590080047,-20355.74610413378
1711590080087,-21446.57207330037
1711590080127,-22178.73673173855
1711590080167,-22398.429121760186
1711590080208,-22411.165273141116
1711590080248,-22411.165273141116
1711590080288,-22411.165273141116
1711590080328,-22411.165273141116
1711590080368,-23037.50667108083
1711590080409,-23037.50667108083
1711590080448,-23037.50667108083
1711590080488,-23037.50667108083
1711590080528,-23037.50667108083
1711590080568,-23037.50667108083
1711590080609,-23037.50667108083
1711590080649,-23037.50667108083
1711590080689,-24592.565523691243
1711590080729,-27022.271726775216
1711590080769,-28378.313118053367
1711590080810,-29387.574705366744
1711590080849,-29724.402884854935
1711590080889,-29724.402884854935
1711590080929,-29724.402884854935
1711590080969,-29724.402884854935
1711590081010,-29724.402884854935
1711590081050,-29387.574705366744
1711590081090,-27960.9375352473
1711590081130,-27022.271726775216
1711590081170,-24592.565523691243
1711590081211,-24063.120047391392
1711590081250,-24063.120047391392
1711590081290,-24063.120047391392
1711590081330,-24063.120047391392
1711590081370,-24063.120047391392
1711590081411,-27351.120512995403
1711590081451,-27960.9375352473
1711590081491,-29724.402884854935
1711590081531,-30681.31983460812
1711590081571,-30681.31983460812
1711590081612,-30681.31983460812
1711590081651,-30681.31983460812
1711590081691,-30681.31983460812
1711590081731,-30681.31983460812
1711590081771,-30681.31983460812
1711590081812,-30681.31983460812
1711590081852,-29483.28753212653
1711590081892,-29483.28753212653
1711590081932,-29483.28753212653
1711590081972,-29483.28753212653
1711590082013,-29483.28753212653
1711590082052,-29483.28753212653
1711590082092,-29483.28753212653
1711590082132,-29483.28753212653
1711590082172,-32502.79089661641
1711590082213,-34166.261169659905
1711590082252,-35010.19969830103
1711590082293,-36030.4426180101
1711590082333,-36030.4426180101
1711590082373,-36030.4426180101
1711590082414,-36030.4426180101
1711590082453,-36030.4426180101
1711590082493,-36030.4426180101
1711590082533,-36030.4426180101
1711590082573,-35010.19969830103
1711590082614,-33343.013576756464
1711590082654,-33343.013576756464
1711590082693,-33343.013576756464
1711590082734,-33343.013576756464
1711590082774,-33343.013576756464
1711590082814,-33343.013576756464
1711590082854,-33343.013576756464
1711590082894,-33343.013576756464
1711590082934,-33343.013576756464
1711590082974,-36030.4426180101
1711590083015,-36560.39809321985
1711590083054,-36560.39809321985
1711590083094,-36560.39809321985
1711590083135,-36549.01089224033
1711590083175,-35593.83896946325
1711590083215,-34194.00486562657
1711590083255,-33343.013576756464
1711590083295,-31948.614649187308
1711590083335,-31893.686571956147
1711590083375,-29833.670254810946
1711590083416,-29193.935732570244
1711590083455,-26388.651309520938
1711590083495,-25179.946627908386
1711590083535,-25179.946627908386
1711590083576,-25179.946627908386
1711590083616,-25179.946627908386
1711590083656,-25179.946627908386
1711590083696,-25179.946627908386
1711590083736,-25421.482177527156
1711590083776,-25421.482177527156
1711590083817,-25421.482177527156
1711590083856,-25421.482177527156
1711590083896,-25421.482177527156
1711590083936,-25421.482177527156
1711590083977,-25421.482177527156
1711590084017,-25179.946627908386
1711590084057,-24666.88348459266
1711590084097,-22212.677622855175
1711590084137,-21287.14360918454
1711590084177,-19253.10171142686
1711590084218,-18641.8038014872
1711590084257,-18641.8038014872
1711590084297,-18641.8038014872
1711590084338,-18641.8038014872
1711590084377,-18641.8038014872
1711590084418,-18641.8038014872
1711590084458,-18641.8038014872
1711590084498,-18641.8038014872
1711590084538,-15903.905699838884
1711590084578,-12092.75023884233
1711590084619,-9900.985981034813
1711590084658,-9900.985981034813
1711590084698,-9900.985981034813
1711590084739,-9900.985981034813
1711590084779,-9900.985981034813
1711590084820,-9900.985981034813
1711590084859,-9900.985981034813
1711590084899,-9900.985981034813
1711590084939,-8562.503504243447
1711590084979,-8149.379470322281
1711590085020,-5596.955580842448
1711590085060,-4557.929248974659
1711590085100,-3532.0024480922148
1711590085140,-3532.0024480922148
1711590085180,-3532.0024480922148
1711590085221,-3532.0024480922148
1711590085260,-3532.0024480922148
1711590085300,-3532.0024480922148
1711590085340,-3532.0024480922148
1711590085381,-3532.0024480922148
1711590085421,-2448.4678067455534
1711590085461,751.330193196889
1711590085501,3732.591991303023
1711590085541,6929.389036094071
1711590085581,6929.389036094071
1711590085622,6929.389036094071
1711590085661,6929.389036094071
1711590085701,6929.389036094071
1711590085742,6929.389036094071
1711590085782,6929.389036094071
1711590085823,6929.389036094071
1711590085862,6929.389036094071
1711590085902,6929.389036094071
1711590085942,6929.389036094071
1711590085982,3813.4727932466194
1711590086023,-1031.9181187220383
1711590086063,-3892.5500931828283
1711590086103,-6919.614601887297
1711590086143,-6919.614601887297
1711590086183,-6919.614601887297
1711590086224,-6919.614601887297
1711590086264,-6919.614601887297
1711590086304,-6919.614601887297
1711590086344,-6919.614601887297
1711590086384,-6919.614601887297
1711590086425,-6919.614601887297
1711590086464,-6919.614601887297
1711590086504,-6919.614601887297
1711590086544,-6246.075736147817
1711590086584,11813.920884638093
1711590086625,31407.72202072991
1711590086664,41412.06528079533
1711590086704,41866.4519877166
1711590086744,41866.4519877166
1711590086784,41866.4519877166
1711590086825,41866.4519877166
1711590086865,41866.4519877166
1711590086904,41866.4519877166
1711590086945,41866.4519877166
1711590086985,41866.4519877166
1711590087025,41866.4519877166
1711590087065,41866.4519877166
1711590087105,41866.4519877166
1711590087145,41866.4519877166
1711590087185,41866.4519877166
1711590087226,41866.4519877166
1711590087265,41866.4519877166
1711590087305,41866.4519877166
1711590087346,41866.4519877166
1711590087386,41866.4519877166
1711590087426,41866.4519877166
1711590087466,39370.69394549122
1711590087506,36859.32418982056
1711590087546,35630.581631866284
1711590087586,34538.251502224244
1711590087627,32781.95693111094
1711590087666,31294.188880454283
1711590087706,29326.811344592832
1711590087746,29326.811344592832
1711590087787,29934.753866856452
1711590087827,30071.77496410627
1711590087867,32099.86864504218
1711590087907,32099.86864504218
1711590087947,32099.86864504218
1711590087987,31996.226957795443
1711590088028,31996.226957795443
1711590088067,31996.226957795443
1711590088107,31996.226957795443
1711590088147,31996.226957795443
1711590088188,31996.226957795443
1711590088228,31996.226957795443
1711590088268,31996.226957795443
1711590088308,32099.86864504218
1711590088348,32216.331907493528
1711590088388,32821.860261037946
1711590088429,34554.48203255143
1711590088468,36078.79409658979
1711590088508,36326.300420058426
1711590088548,36326.300420058426
1711590088588,36326.300420058426
1711590088629,36474.66895622504
1711590088669,36788.832703088876
1711590088709,37224.21610143548
1711590088749,37369.27341585257
1711590088789,37576.4864193541
1711590088830,37827.33953788923
1711590088869,37864.79514125083
1711590088909,37864.79514125083
1711590088949,37864.79514125083
1711590088989,37864.79514125083
1711590089030,37864.79514125083
1711590089069,37827.33953788923
1711590089110,37369.27341585257
1711590089150,37224.21610143548
1711590089190,36474.66895622504
1711590089231,36313.93474813085
1711590089270,36313.93474813085
1711590089310,36313.93474813085
1711590089350,36313.93474813085
1711590089390,37224.21610143548
1711590089431,38122.842035321984
1711590089470,38322.008326765615
1711590089511,38322.008326765615
1711590089551,38322.008326765615
1711590089591,38322.008326765615
1711590089632,38322.008326765615
1711590089671,38322.008326765615
1711590089711,42052.813305913936
1711590089751,42052.813305913936
1711590089791,42052.813305913936
1711590089832,42052.813305913936
1711590089871,42052.813305913936
1711590089911,42052.813305913936
1711590089952,42052.813305913936
1711590089992,42052.813305913936
1711590090032,42052.813305913936
1711590090072,42052.813305913936
1711590090112,42052.813305913936
1711590090152,38360.15898958896
1711590090192,28461.525570187718
1711590090233,24943.09397875867
1711590090272,-199.35771188884974
1711590090312,-11519.087157150265
1711590090353,-14149.219480316155
1711590090393,-14622.28619264951
1711590090433,-14938.248297907878
1711590090473,-16590.693174040643
1711590090513,-16833.87985081086
1711590090553,-17046.9188307398
1711590090593,-18298.00346457353
1711590090634,-18484.291142284404
1711590090673,-19144.585114774527
1711590090713,-19583.332163127605
1711590090753,-20322.99836135516
1711590090794,-20941.89966318244
1711590090834,-21102.195080681704
1711590090874,-21238.08477188181
1711590090914,-24801.571693945676
1711590090954,-36620.22847040137
1711590090994,-48599.289320283104
1711590091035,-48599.289320283104
1711590091074,-48599.289320283104
1711590091114,-48599.289320283104
1711590091154,-48599.289320283104
1711590091195,-48599.289320283104
1711590091235,-48599.289320283104
1711590091275,-48599.289320283104
1711590091315,-48599.289320283104
1711590091355,-48599.289320283104
1711590091395,-48599.289320283104
1711590091436,-43777.005636448506
1711590091475,-29566.533283748897
1711590091515,-23185.168886285275
1711590091556,-18600.1236730339
1711590091596,-18452.832470633555
1711590091636,-18092.5784012964
1711590091676,-17874.569255253766
1711590091716,-17595.341909938026
1711590091756,-16562.61526261689
1711590091796,-16562.61526261689
1711590091837,-16562.61526261689
1711590091876,-16562.61526261689
1711590091916,-16562.61526261689
1711590091956,-16562.61526261689
1711590091997,-17595.341909938026
1711590092038,-17874.569255253766
1711590092077,-17874.569255253766
1711590092117,-18092.5784012964
1711590092157,-18452.832470633555
1711590092197,-27197.66069398634
1711590092238,-31567.62417762354
1711590092278,-31567.62417762354
1711590092318,-31567.62417762354
1711590092358,-31567.62417762354
1711590092398,-31567.62417762354
1711590092439,-34171.184084703214
1711590092478,-34556.77452080115
1711590092518,-35141.61651518475
1711590092558,-36524.61466020974
1711590092598,-38226.30135185085
1711590092639,-39163.67375960061
1711590092679,-39411.847501260694
1711590092719,-40014.98673536815
1711590092759,-40014.98673536815
1711590092799,-40014.98673536815
1711590092840,-39411.847501260694
1711590092879,-38226.30135185085
1711590092919,-38060.833942736266
1711590092960,-36524.61466020974
1711590093000,-34892.54742177203
1711590093040,-34892.54742177203
1711590093080,-34892.54742177203
1711590093120,-34892.54742177203
1711590093160,-36640.28902128432
1711590093200,-38060.833942736266
1711590093241,-41236.2940168723
1711590093280,-41745.80507802125
1711590093321,-41745.80507802125
1711590093361,-41745.80507802125
1711590093401,-41745.80507802125
1711590093442,-41236.2940168723
1711590093481,-40380.91743007209
1711590093521,-38060.833942736266
1711590093561,-37868.77553310897
1711590093602,-36640.28902128432
1711590093642,-34892.54742177203
1711590093682,-34780.53418598976
1711590093722,-31047.81437218492
1711590093762,-31047.81437218492
1711590093802,-31047.81437218492
1711590093843,-31047.81437218492
1711590093883,-31047.81437218492
1711590093923,-31047.81437218492
1711590093963,-31124.195203101728
1711590094003,-31124.195203101728
1711590094044,-31124.195203101728
1711590094083,-31124.195203101728
1711590094123,-31124.195203101728
1711590094163,-31047.81437218492
1711590094204,-30252.881026330404
1711590094244,-28935.356733345892
1711590094284,-27399.927911289735
1711590094324,-26749.26981571596
1711590094364,-25231.31428233022
1711590094404,-24632.193414133508
1711590094445,-22683.082454695133
1711590094484,-20749.172896747943
1711590094524,-20749.172896747943
1711590094564,-20749.172896747943
1711590094604,-20749.172896747943
1711590094645,-20749.172896747943
1711590094685,-20749.172896747943
1711590094724,-20749.172896747943
1711590094765,-17626.670771735255
1711590094805,-13869.326056813356
1711590094845,-13869.326056813356
1711590094885,-13869.326056813356
1711590094925,-13869.326056813356
1711590094965,-13869.326056813356
1711590095005,-13869.326056813356
1711590095046,-13869.326056813356
1711590095085,-12980.48979423591
1711590095125,-12006.133335840888
1711590095166,-11506.19665598683
1711590095206,-9912.263410680695
1711590095246,-8751.067093896912
1711590095286,-5727.721421033377
1711590095326,-5573.620383653324
1711590095366,-5573.620383653324
1711590095406,-5573.620383653324
1711590095447,-5573.620383653324
1711590095486,-5573.620383653324
1711590095526,-5573.620383653324
1711590095566,-5573.620383653324
1711590095606,-5573.620383653324
1711590095647,-2282.740049588494
1711590095687,-1611.6843191331718
1711590095727,-1611.6843191331718
1711590095767,-1611.6843191331718
1711590095807,-1611.6843191331718
1711590095848,-1611.6843191331718
1711590095887,-1099.1765054296702
1711590095927,-146.88258762378246
1711590095967,375.3789211269468
1711590096007,824.6060437546112
1711590096048,1802.4673271058127
1711590096087,3963.758340360364
1711590096128,4144.300679301377
1711590096168,4144.300679301377
1711590096208,4144.300679301377
1711590096249,4144.300679301377
1711590096288,4144.300679301377
1711590096328,4144.300679301377
1711590096368,4144.300679301377
1711590096408,4144.300679301377
1711590096449,4144.300679301377
1711590096489,7070.651830224786
1711590096528,7070.651830224786
1711590096569,7070.651830224786
1711590096609,7070.651830224786
1711590096649,7720.18179930374
1711590096689,7867.064402095042
1711590096729,9190.67324180645
1711590096769,9758.336987904739
1711590096809,9906.239133140072
1711590096850,10682.352656182135
1711590096889,11564.526461389381
1711590096929,12599.977778023109
1711590096969,13613.011766916141
1711590097009,13654.9508530749
1711590097050,13654.9508530749
1711590097090,13654.9508530749
1711590097130,13654.9508530749
1711590097170,13654.9508530749
1711590097210,13654.9508530749
1711590097251,13613.011766916141
1711590097290,13542.617777877487
1711590097330,13542.617777877487
1711590097370,13542.617777877487
1711590097410,13654.9508530749
1711590097451,13818.869252782548
1711590097491,15083.293593171984
1711590097531,15919.012278009206
1711590097571,15927.397399411537
1711590097611,16053.441587083042
1711590097652,17152.953309924807
1711590097691,18379.9914121998
1711590097731,18623.878622371005
1711590097771,19938.153787356336
1711590097812,19938.153787356336
1711590097852,19938.153787356336
1711590097892,19938.153787356336
1711590097932,18379.9914121998
1711590097972,17152.953309924807
1711590098012,16053.441587083042
1711590098053,15927.397399411537
1711590098092,15927.397399411537
1711590098132,15927.397399411537
1711590098173,15927.397399411537
1711590098212,15927.397399411537
1711590098253,15927.397399411537
1711590098293,15927.397399411537
1711590098333,14843.682627293048
1711590098373,14686.808306170627
1711590098413,14686.808306170627
1711590098454,14686.808306170627
1711590098493,14686.808306170627
1711590098533,14686.808306170627
1711590098573,14686.808306170627
1711590098614,13101.434188556857
1711590098654,11748.786267495947
1711590098694,11376.028557593701
1711590098734,11214.300647041295
1711590098774,10974.113086029887
1711590098814,10974.113086029887
1711590098855,10974.113086029887
1711590098894,10974.113086029887
1711590098934,10974.113086029887
1711590098975,10974.113086029887
1711590099015,9486.265998400282
1711590099055,5884.77051264327
1711590099095,5884.77051264327
1711590099135,5884.77051264327
1711590099175,5884.77051264327
1711590099215,5884.77051264327
1711590099256,5884.77051264327
1711590099295,5884.77051264327
1711590099336,4031.7840451900847
1711590099376,3527.4192941682413
1711590099416,3291.8945989650674
1711590099457,2690.0180342381354
1711590099496,2314.724102554377
1711590099536,2314.724102554377
1711590099576,2314.724102554377
1711590099617,2314.724102554377
1711590099657,2314.724102554377
1711590099697,2314.724102554377
1711590099737,-2546.9578635115176
1711590099777,-3856.5940287369303
1711590099817,-3856.5940287369303
1711590099858,-3856.5940287369303
1711590099897,-3856.5940287369303
1711590099937,-3856.5940287369303
1711590099978,-3856.5940287369303
1711590100018,-5981.326301471097
1711590100058,-7381.542651011143
1711590100098,-7589.749345079064
1711590100138,-7989.437314641429
1711590100178,-8731.09429563419
1711590100218,-9394.480366404168
1711590100259,-9394.480366404168
1711590100298,-9394.480366404168
1711590100339,-9394.480366404168
1711590100379,-9394.480366404168
1711590100419,-9394.480366404168
1711590100460,-11500.562116180081
1711590100499,-11500.562116180081
1711590100539,-11500.562116180081
1711590100579,-11500.562116180081
1711590100619,-11500.562116180081
1711590100660,-11500.562116180081
1711590100700,-11500.562116180081
1711590100740,-13996.917219514493
1711590100780,-14142.409763561096
1711590100820,-15782.222637080587
1711590100861,-16134.315240457654
1711590100900,-17585.276362685487
1711590100940,-17585.276362685487
1711590100980,-17585.276362685487
1711590101020,-17585.276362685487
1711590101061,-17585.276362685487
1711590101101,-17585.276362685487
1711590101141,-16134.315240457654
1711590101181,-15687.278322746512
1711590101221,-14142.409763561096
1711590101262,-14142.409763561096
1711590101301,-14142.409763561096
1711590101342,-14142.409763561096
1711590101382,-14142.409763561096
1711590101423,-14142.409763561096
1711590101463,-15687.278322746512
1711590101503,-18367.488047992345
1711590101543,-20632.131696403492
1711590101583,-20676.020100079477
1711590101623,-21454.195872293785
1711590101664,-21454.195872293785
1711590101703,-21454.195872293785
1711590101743,-21454.195872293785
1711590101784,-21454.195872293785
1711590101824,-21454.195872293785
1711590101864,-22315.509044319857
1711590101904,-22315.509044319857
1711590101944,-22315.509044319857
1711590101984,-22315.509044319857
1711590102024,-22315.509044319857
1711590102065,-22315.509044319857
1711590102104,-22444.5628876877
1711590102145,-24370.09331522719
1711590102185,-25138.38286529132
1711590102225,-28388.93922449951
1711590102266,-28685.438536388334
1711590102305,-29575.3337793136
1711590102345,-30258.777109927265
1711590102385,-30258.777109927265
1711590102425,-30258.777109927265
1711590102466,-30258.777109927265
1711590102505,-29697.387480997015
1711590102545,-29575.3337793136
1711590102585,-28388.93922449951
1711590102626,-25726.57754075504
1711590102666,-25726.57754075504
1711590102706,-25726.57754075504
1711590102746,-25726.57754075504
1711590102786,-25726.57754075504
1711590102826,-25726.57754075504
1711590102867,-25726.57754075504
1711590102906,-29697.387480997015
1711590102946,-30237.176814282313
1711590102986,-30237.176814282313
1711590103026,-30237.176814282313
1711590103067,-30237.176814282313
1711590103107,-29697.387480997015
1711590103146,-29215.34498251183
1711590103187,-27511.293878948083
1711590103227,-25726.57754075504
1711590103267,-25377.539877627045
1711590103307,-24263.458168371115
1711590103347,-22864.537568816915
1711590103387,-21967.636242063018
1711590103427,-19637.10903369519
1711590103468,-19637.10903369519
1711590103507,-19637.10903369519
1711590103548,-19637.10903369519
1711590103588,-19637.10903369519
1711590103628,-19637.10903369519
1711590103668,-19637.10903369519
1711590103708,-17478.64164285804
1711590103748,-17478.64164285804
1711590103788,-17478.64164285804
1711590103828,-17478.64164285804
1711590103869,-17478.64164285804
1711590103908,-17478.64164285804
1711590103948,-17478.64164285804
1711590103989,-17478.64164285804
1711590104029,-17478.64164285804
1711590104069,-17478.64164285804
1711590104109,-17478.64164285804
1711590104149,-17478.64164285804
1711590104189,-17478.64164285804
1711590104229,-17478.64164285804
1711590104270,-17478.64164285804
1711590104309,-17478.64164285804
1711590104349,-17478.64164285804
1711590104389,-17478.64164285804
1711590104430,-17478.64164285804
1711590104470,-17478.64164285804
1711590104510,-17478.64164285804
1711590104550,-18091.84871780174
1711590104590,-18091.84871780174
1711590104630,-18091.84871780174
1711590104671,-17106.364246873185
1711590104710,-15099.68070943281
1711590104750,-14296.742869015783
1711590104791,-14256.09685017378
1711590104830,-11839.318630573805
1711590104871,-11569.21552485833
1711590104911,-10943.759360979777
1711590104951,-9508.980077187996
1711590104991,-7894.387793862261
1711590105031,-7348.616230903193
1711590105072,-5337.371167314472
1711590105111,-5337.371167314472
1711590105151,-5337.371167314472
1711590105191,-5337.371167314472
1711590105231,-5337.371167314472
1711590105272,-5337.371167314472
1711590105312,-5023.284704056336
1711590105352,-5023.284704056336
1711590105392,-5023.284704056336
1711590105432,-4384.988193036756
1711590105473,-4250.021144904429
1711590105512,-2765.534789764788
1711590105552,-2324.2669974705204
1711590105592,-1865.670826768037
1711590105633,-1289.432210738305
1711590105673,-98.62375473696738
1711590105712,353.66287919227034
1711590105753,992.9905080378521
1711590105793,2215.2478953180835
1711590105833,3652.286019655643
1711590105874,4870.034882347565
1711590105913,4870.034882347565
1711590105953,4870.034882347565
1711590105993,4870.034882347565
1711590106033,4715.818718336988
1711590106074,2215.2478953180835
1711590106114,2215.2478953180835
1711590106154,2215.2478953180835
1711590106194,2215.2478953180835
1711590106234,2215.2478953180835
1711590106275,2474.769219274167
1711590106314,2949.8645867460873
1711590106354,4353.784570559394
1711590106394,4715.818718336988
1711590106434,4870.034882347565
1711590106475,6174.712463775184
1711590106514,8157.437739841174
1711590106555,8157.437739841174
1711590106595,8157.437739841174
1711590106635,8157.437739841174
1711590106676,8157.437739841174
1711590106715,8157.437739841174
1711590106755,8157.437739841174
1711590106795,6174.712463775184
1711590106835,5973.464663850609
1711590106876,5973.464663850609
1711590106915,5973.464663850609
1711590106955,5973.464663850609
1711590106995,5973.464663850609
1711590107036,5973.464663850609
1711590107076,5973.464663850609
1711590107116,5973.464663850609
1711590107156,6174.712463775184
1711590107196,6485.196025063749
1711590107236,8157.437739841174
1711590107277,8978.271979151294
1711590107316,8978.271979151294
1711590107356,8978.271979151294
1711590107396,8978.271979151294
1711590107436,8978.271979151294
1711590107477,8978.271979151294
1711590107517,6485.196025063749
1711590107557,5973.464663850609
1711590107597,5013.554812619463
1711590107637,4357.0915378488135
1711590107678,4357.0915378488135
1711590107717,4357.0915378488135
1711590107757,4357.0915378488135
1711590107797,4357.0915378488135
1711590107837,4831.360916765407
1711590107878,5013.554812619463
1711590107918,6485.196025063749
1711590107958,6513.298055685358
1711590107998,8841.361675260589
1711590108038,8841.361675260589
1711590108079,8841.361675260589
1711590108118,8841.361675260589
1711590108158,8841.361675260589
1711590108198,8841.361675260589
1711590108238,6513.298055685358
1711590108279,4831.360916765407
1711590108319,4357.0915378488135
1711590108359,3700.988715087995
1711590108399,3700.988715087995
1711590108439,3700.988715087995
1711590108480,3700.988715087995
1711590108519,3700.988715087995
1711590108559,3700.988715087995
1711590108599,3700.988715087995
1711590108640,4831.360916765407
1711590108680,5363.727231119527
1711590108720,5363.727231119527
1711590108760,5363.727231119527
1711590108800,5363.727231119527
1711590108840,5363.727231119527
1711590108881,5363.727231119527
1711590108920,5363.727231119527
1711590108960,3357.796559803188
1711590109001,2878.1182500016876
1711590109041,1611.1169570933562
1711590109082,1296.850897363387
1711590109121,1296.850897363387
1711590109161,1296.850897363387
1711590109201,1296.850897363387
1711590109241,1296.850897363387
1711590109282,1296.850897363387
1711590109321,1296.850897363387
1711590109362,1296.850897363387
1711590109402,1611.1169570933562
1711590109442,1611.1169570933562
1711590109483,1611.1169570933562
1711590109522,1611.1169570933562
1711590109562,1611.1169570933562
1711590109603,1611.1169570933562
1711590109642,1611.1169570933562
1711590109683,1611.1169570933562
1711590109723,1217.6327517563477
1711590109763,-929.8903322853148
1711590109803,-2304.038984311279
1711590109843,-2304.038984311279
1711590109884,-2304.038984311279
1711590109923,-2304.038984311279
1711590109963,-2304.038984311279
1711590110003,-2304.038984311279
1711590110044,-2304.038984311279
1711590110085,-2304.038984311279
1711590110124,-929.8903322853148
1711590110164,-426.2869770042598
1711590110204,-426.2869770042598
1711590110244,-426.2869770042598
1711590110285,-426.2869770042598
1711590110324,-426.2869770042598
1711590110364,-426.2869770042598
1711590110405,-426.2869770042598
1711590110445,-3017.4745898051187
1711590110486,-3737.131349273026
1711590110525,-5208.319166459609
1711590110565,-5383.743020874914
1711590110605,-5383.743020874914
1711590110645,-5383.743020874914
1711590110686,-5383.743020874914
1711590110725,-5383.743020874914
1711590110765,-5208.319166459609
1711590110805,-4303.28571539605
1711590110845,-3017.4745898051187
1711590110886,-2433.144001829205
1711590110926,-426.2869770042598
1711590110966,56.23026514612138
1711590111006,56.23026514612138
1711590111046,56.23026514612138
1711590111086,56.23026514612138
1711590111126,-2433.144001829205
1711590111166,-4303.28571539605
1711590111206,-4321.0743460445665
1711590111246,-5383.743020874914
1711590111287,-5812.147386759054
1711590111326,-5812.147386759054
1711590111366,-5812.147386759054
1711590111407,-5812.147386759054
1711590111447,-5812.147386759054
1711590111487,-5800.602834836347
1711590111527,-4321.0743460445665
1711590111567,-4303.28571539605
1711590111607,-3615.547582549043
1711590111647,-3615.547582549043
1711590111688,-3615.547582549043
1711590111727,-3615.547582549043
1711590111767,-3615.547582549043
1711590111807,-3615.547582549043
1711590111847,-4321.0743460445665
1711590111888,-5800.602834836347
1711590111927,-7168.215493604308
1711590111968,-8456.846041872399
1711590112008,-8456.846041872399
1711590112048,-8456.846041872399
1711590112089,-8456.846041872399
1711590112128,-8456.846041872399
1711590112168,-8456.846041872399
1711590112208,-7797.653654500376
1711590112248,-7168.215493604308
1711590112289,-5800.602834836347
1711590112328,-5063.3288347562775
1711590112368,-5063.3288347562775
1711590112408,-5063.3288347562775
1711590112449,-5063.3288347562775
1711590112489,-5063.3288347562775
1711590112529,-5063.3288347562775
1711590112569,-5063.3288347562775
1711590112609,-7797.653654500376
1711590112649,-9442.945864330512
1711590112690,-9442.945864330512
1711590112729,-9442.945864330512
1711590112769,-9442.945864330512
1711590112809,-9442.945864330512
1711590112849,-9442.945864330512
1711590112890,-9442.945864330512
1711590112929,-9442.945864330512
1711590112970,-7873.9066429177765
1711590113010,-7797.653654500376
1711590113050,-5147.78823247226
1711590113091,-5147.78823247226
1711590113130,-5147.78823247226
1711590113170,-5147.78823247226
1711590113210,-5147.78823247226
1711590113250,-5147.78823247226
1711590113291,-5147.78823247226
1711590113330,-5147.78823247226
1711590113369,-5147.78823247226
1711590113409,-5147.78823247226
1711590113450,-4531.647209397983
1711590113490,-4531.647209397983
1711590113530,-4531.647209397983
1711590113570,-4531.647209397983
1711590113610,-4531.647209397983
1711590113650,-4531.647209397983
1711590113691,-4531.647209397983
1711590113730,-4531.647209397983
1711590113770,-4531.647209397983
1711590113810,-3341.8961135474965
1711590113850,-1988.4384088274091
1711590113891,-876.5944877110887
1711590113931,-876.5944877110887
1711590113971,-876.5944877110887
1711590114011,-876.5944877110887
1711590114051,-876.5944877110887
1711590114091,-876.5944877110887
1711590114131,-876.5944877110887
1711590114171,-876.5944877110887
1711590114211,-3341.8961135474965
1711590114251,-4531.647209397983
1711590114292,-5226.998486363562
1711590114331,-5226.998486363562
1711590114371,-5226.998486363562
1711590114412,-5226.998486363562
1711590114452,-5226.998486363562
1711590114492,-5226.998486363562
1711590114532,-5226.998486363562
1711590114572,-3341.8961135474965
1711590114612,-3068.2892452306114
1711590114652,-876.5944877110887
1711590114693,-427.40306221484207
1711590114732,-427.40306221484207
1711590114772,-427.40306221484207
1711590114812,-427.40306221484207
1711590114852,-427.40306221484207
1711590114893,-427.40306221484207
1711590114933,-427.40306221484207
1711590114973,-427.40306221484207
1711590115013,-3068.2892452306114
1711590115053,-3068.2892452306114
1711590115094,-3068.2892452306114
1711590115133,-3068.2892452306114
1711590115173,-3068.2892452306114
1711590115213,-3068.2892452306114
1711590115253,-3068.2892452306114
1711590115294,-3068.2892452306114
1711590115333,-2436.0337794404477
1711590115374,-427.40306221484207
1711590115414,-65.15320411790162
1711590115454,2408.956838760758
1711590115495,2408.956838760758
1711590115534,2408.956838760758
1711590115574,2408.956838760758
1711590115614,2408.956838760758
1711590115654,2408.956838760758
1711590115695,2408.956838760758
1711590115734,2408.956838760758
1711590115774,-65.15320411790162
1711590115814,-1938.3350673667155
1711590115855,-1938.3350673667155
1711590115895,-1938.3350673667155
1711590115935,-1938.3350673667155
1711590115975,-1938.3350673667155
1711590116015,-1779.6737315773498
1711590116055,-1019.4443682390265
1711590116096,-65.15320411790162
1711590116135,323.1184555301443
1711590116175,2174.712025683373
1711590116215,2408.956838760758
1711590116255,4439.849610657897
1711590116296,4439.849610657897
1711590116336,4439.849610657897
1711590116376,4439.849610657897
1711590116416,4439.849610657897
1711590116456,4439.849610657897
1711590116497,4439.849610657897
1711590116536,2174.712025683373
1711590116576,825.2594240545295
1711590116616,825.2594240545295
1711590116656,825.2594240545295
1711590116697,825.2594240545295
1711590116736,1022.480169255985
1711590116777,1726.4016862609424
1711590116817,2174.712025683373
1711590116857,2650.290891090408
1711590116898,4179.36484205327
1711590116937,4439.849610657897
1711590116977,6083.2633794164285
1711590117017,7290.516893947963
1711590117057,7363.057472297689
1711590117098,7363.057472297689
1711590117138,7363.057472297689
1711590117178,7363.057472297689
1711590117218,7363.057472297689
1711590117258,6083.2633794164285
1711590117299,4179.36484205327
1711590117338,2814.186456899857
1711590117378,2814.186456899857
1711590117418,2814.186456899857
1711590117458,2814.186456899857
1711590117499,2814.186456899857
1711590117538,3282.6158741184045
1711590117578,4179.36484205327
1711590117619,4537.313962047454
1711590117659,6083.2633794164285
1711590117699,6428.632169121876
1711590117739,8315.813643235713
1711590117779,8315.813643235713
1711590117819,8315.813643235713
1711590117859,8315.813643235713
1711590117900,8315.813643235713
1711590117939,6428.632169121876
1711590117980,4537.313962047454
1711590118020,3282.6158741184045
1711590118060,2814.186456899857
1711590118101,2795.7346520302817
1711590118140,2795.7346520302817
1711590118180,2795.7346520302817
1711590118220,2795.7346520302817
1711590118260,2795.7346520302817
1711590118301,2795.7346520302817
1711590118341,3282.6158741184045
1711590118381,3651.912346640136
1711590118421,3651.912346640136
1711590118461,3651.912346640136
1711590118502,3651.912346640136
1711590118541,3651.912346640136
1711590118581,3651.912346640136
1711590118622,3651.912346640136
1711590118662,2126.506113067968
1711590118702,1475.622783378698
1711590118742,7.181725291535258
1711590118782,-586.1484190444462
1711590118822,-586.1484190444462
1711590118862,-586.1484190444462
1711590118903,-586.1484190444462
1711590118942,-586.1484190444462
1711590118982,-22.51010414585471
1711590119022,7.181725291535258
1711590119063,1475.622783378698
1711590119103,2240.962238957174
1711590119143,3651.912346640136
1711590119183,4897.170531948097
1711590119223,4897.170531948097
1711590119263,4897.170531948097
1711590119304,3341.9838884794153
1711590119343,2240.962238957174
1711590119383,-22.51010414585471
1711590119423,-2546.6190067534335
1711590119464,-3313.1119059447665
1711590119504,-3918.9139548526146
1711590119544,-3918.9139548526146
1711590119584,-3918.9139548526146
1711590119624,-3918.9139548526146
1711590119664,-3918.9139548526146
1711590119705,-3313.1119059447665
1711590119744,-2691.603309864411
1711590119784,-245.89757122076117
1711590119824,-245.89757122076117
1711590119864,-245.89757122076117
1711590119905,-245.89757122076117
1711590119945,-245.89757122076117
1711590119985,-245.89757122076117
1711590120025,-245.89757122076117
1711590120065,-245.89757122076117
1711590120106,-2691.603309864411
1711590120145,-4507.673195433803
1711590120185,-4507.673195433803
1711590120225,-4507.673195433803
1711590120265,-4507.673195433803
1711590120306,-4507.673195433803
1711590120345,-4507.673195433803
1711590120385,-4507.673195433803
1711590120428,-4507.673195433803
1711590120466,-3612.4633413623087
1711590120507,-2691.603309864411
1711590120546,-1149.630111361621
1711590120586,-1149.630111361621
1711590120626,-1149.630111361621
1711590120666,-1149.630111361621
1711590120707,-1149.630111361621
1711590120746,-1149.630111361621
1711590120787,-1149.630111361621
1711590120827,-3612.4633413623087
1711590120867,-5974.225526972907
1711590120908,-6009.267546060029
1711590120947,-6009.267546060029
1711590120987,-6009.267546060029
1711590121027,-6009.267546060029
1711590121067,-6009.267546060029
1711590121108,-6009.267546060029
1711590121147,-5974.225526972907
1711590121187,-5129.823276023846
1711590121228,-3612.4633413623087
1711590121268,-3496.2977160040755
1711590121308,-1213.8732544889208
1711590121348,-1213.8732544889208
1711590121388,-1213.8732544889208
1711590121428,-1213.8732544889208
1711590121468,-1213.8732544889208
1711590121509,-1213.8732544889208
1711590121548,-3496.2977160040755
1711590121588,-5129.823276023846
1711590121629,-5645.050848283339
1711590121669,-5645.050848283339
1711590121709,-5645.050848283339
1711590121749,-5645.050848283339
1711590121789,-5645.050848283339
1711590121829,-5645.050848283339
1711590121869,-5645.050848283339
1711590121910,-5129.823276023846
1711590121949,-4716.226107606664
1711590121990,-3496.2977160040755
1711590122030,-2396.072946787812
1711590122070,-2396.072946787812
1711590122110,-2396.072946787812
1711590122150,-2396.072946787812
1711590122190,-2396.072946787812
1711590122230,-2396.072946787812
1711590122270,-4716.226107606664
1711590122311,-5645.050848283339
1711590122350,-6492.108415690716
1711590122390,-7227.254867168609
1711590122430,-7227.254867168609
1711590122470,-7227.254867168609
1711590122511,-7227.254867168609
1711590122550,-7227.254867168609
1711590122591,-7227.254867168609
1711590122633,-7227.254867168609
1711590122671,-6492.108415690716
1711590122712,-4716.226107606664
1711590122751,-4498.4202575392555
1711590122791,-4498.4202575392555
1711590122831,-4498.4202575392555
1711590122871,-4498.4202575392555
1711590122912,-4498.4202575392555
1711590122952,-4498.4202575392555
1711590122992,-5491.062721894123
1711590123032,-7261.226866487879
1711590123072,-8200.674420909025
1711590123113,-9272.256504550576
1711590123152,-9272.256504550576
1711590123192,-8160.746334719006
1711590123232,-7351.791318868753
1711590123272,-7261.226866487879
1711590123313,-6689.597174544353
1711590123352,-5491.062721894123
1711590123393,-4965.156644597882
1711590123433,-4498.4202575392555
1711590123473,-3273.223888498731
1711590123514,-959.7616217811592
1711590123553,1699.248793372186
1711590123593,1810.2881549890153
1711590123633,1810.2881549890153
1711590123673,1810.2881549890153
1711590123714,1810.2881549890153
1711590123754,1810.2881549890153
1711590123794,1810.2881549890153
1711590123834,7597.3582561218645
1711590123874,9448.922109276522
1711590123915,11397.105231787544
1711590123954,11397.105231787544
1711590123994,11397.105231787544
1711590124034,11397.105231787544
1711590124074,11397.105231787544
1711590124115,11397.105231787544
1711590124155,12929.470008238684
1711590124194,13403.667106797919
1711590124235,13508.498302110005
1711590124275,13922.13537701685
1711590124316,14195.09311012039
1711590124355,14871.523425779771
1711590124395,14195.09311012039
1711590124435,13922.13537701685
1711590124475,13508.498302110005
1711590124516,12929.470008238684
1711590124555,11397.105231787544
1711590124595,11343.849379029358
1711590124636,9677.463749717688
1711590124676,9644.568396556657
1711590124716,8366.688389981398
1711590124756,7932.872022809926
1711590124796,4482.621711119544
1711590124839,4307.968927313574
1711590124876,4307.968927313574
1711590124917,4307.968927313574
1711590124956,4307.968927313574
1711590124997,4307.968927313574
1711590125037,4307.968927313574
1711590125077,4307.968927313574
1711590125118,4307.968927313574
1711590125157,-730.6571790713351
1711590125197,-748.0539994742721
1711590125237,-909.4302881017793
1711590125277,-909.4302881017793
1711590125318,-909.4302881017793
1711590125358,-909.4302881017793
1711590125398,-909.4302881017793
1711590125439,-909.4302881017793
1711590125479,-909.4302881017793
1711590125519,-748.0539994742721
1711590125559,-730.6571790713351
1711590125599,101.749855134869
1711590125639,2057.642149494961
1711590125679,2057.642149494961
1711590125720,2057.642149494961
1711590125759,2057.642149494961
1711590125799,2057.642149494961
1711590125840,2057.642149494961
1711590125880,2057.642149494961
1711590125920,101.749855134869
1711590125960,-909.4302881017793
1711590126000,-1476.7536395045463
1711590126040,-1476.7536395045463
1711590126080,-1476.7536395045463
1711590126121,-1437.8528192020021
1711590126160,-1149.245342223905
1711590126201,-630.9735444406979
1711590126241,101.749855134869
1711590126281,436.1420414284803
1711590126322,2057.642149494961
1711590126361,2156.5622582631186
1711590126401,3976.296170383459
1711590126441,3976.296170383459
1711590126481,3976.296170383459
1711590126522,3976.296170383459
1711590126562,3976.296170383459
1711590126602,3976.296170383459
1711590126642,3759.5850749325473
1711590126682,2156.5622582631186
1711590126723,436.1420414284803
1711590126762,436.1420414284803
1711590126802,1761.9362234221771
1711590126842,2156.5622582631186
1711590126882,2911.375828880351
1711590126923,3674.7931189434603
1711590126962,3759.5850749325473
1711590127002,3976.296170383459
1711590127043,4389.3475475138985
1711590127083,5189.729302268941
1711590127123,6241.537211691728
1711590127163,6735.997555045877
1711590127203,8591.619718516245
1711590127243,8591.619718516245
1711590127283,8591.619718516245
1711590127324,8591.619718516245
1711590127363,8424.744739061221
1711590127404,6735.997555045877
1711590127444,5189.729302268941
1711590127484,5480.35858473531
1711590127525,6735.997555045877
1711590127564,6774.418024196057
1711590127604,7878.237438897137
1711590127644,8424.744739061221
1711590127684,8591.619718516245
1711590127725,8787.10142637603
1711590127765,8969.312599662691
1711590127804,9230.27049258654
1711590127845,9996.617267159512
1711590127885,10742.34399557067
1711590127925,11422.756041215034
1711590127965,11422.756041215034
1711590128005,11422.756041215034
1711590128045,9996.617267159512
1711590128085,9230.27049258654
1711590128126,8969.312599662691
1711590128165,8787.10142637603
1711590128205,8787.10142637603
1711590128245,8787.10142637603
1711590128285,8787.10142637603
1711590128326,8787.10142637603
1711590128366,8904.654439340578
1711590128406,8969.312599662691
1711590128446,9163.754874500912
1711590128486,9230.27049258654
1711590128526,9886.636253569974
1711590128566,9886.636253569974
1711590128606,9886.636253569974
1711590128646,9886.636253569974
1711590128686,9163.754874500912
1711590128727,8904.654439340578
1711590128766,8509.624866055325
1711590128806,7981.534948017914
1711590128847,7618.72222303343
1711590128886,7618.72222303343
1711590128927,7618.72222303343
1711590128967,7618.72222303343
1711590129007,7618.72222303343
1711590129047,7618.72222303343
1711590129087,4240.54467035085
1711590129128,-817.8690485600382
1711590129167,-817.8690485600382
1711590129207,-817.8690485600382
1711590129247,-817.8690485600382
1711590129287,-817.8690485600382
1711590129328,-1334.1031672409736
1711590129367,-1534.260306074284
1711590129408,-2511.463318455033
1711590129448,-2535.7897038040683
1711590129488,-2843.0260142558254
1711590129529,-2989.528450093232
1711590129568,-3161.438319237437
1711590129608,-3161.438319237437
1711590129648,-3161.438319237437
1711590129689,-3161.438319237437
1711590129729,-3161.438319237437
1711590129768,-3161.438319237437
1711590129809,-2989.528450093232
1711590129849,-2722.30271058809
1711590129889,-2722.30271058809
1711590129930,-2722.30271058809
1711590129969,-2722.30271058809
1711590130009,-2722.30271058809
1711590130049,-2722.30271058809
1711590130089,-2722.30271058809
1711590130130,-2722.30271058809
1711590130170,10412.807966942899
1711590130209,19278.21532227099
1711590130250,19433.921160741476
1711590130290,20529.919199447148
1711590130330,21010.838671911974
1711590130370,21061.67283549835
1711590130410,21652.217666093726
1711590130450,23686.17521664733
1711590130490,23923.456715499517
1711590130531,25665.504168238025
1711590130570,25665.504168238025
1711590130610,25665.504168238025
1711590130650,25665.504168238025
1711590130690,23923.456715499517
1711590130731,23686.17521664733
1711590130771,21652.217666093726
1711590130811,21479.938136592275
1711590130851,21010.838671911974
1711590130891,20529.919199447148
1711590130932,20529.919199447148
1711590130971,19433.921160741476
1711590131011,11034.02312190365
1711590131051,5451.428500697715
1711590131091,1868.6854966981336
1711590131132,1402.903838224709
1711590131172,1164.908413207624
1711590131212,-41.257368977647275
1711590131252,-5208.36469426332
1711590131292,-5839.153396777576
1711590131333,-12651.355135187507
1711590131372,-13453.159219012596
1711590131412,-13981.618289921433
1711590131452,-14545.591600157786
1711590131493,-16434.525268141646
1711590131533,-18390.331432331586
1711590131573,-21478.36401701253
1711590131613,-23089.982874342706
1711590131653,-24137.67265902832
1711590131693,-24985.01118740975
1711590131734,-31740.196969005512
1711590131773,-36120.77226468176
1711590131813,-37327.834399880376
1711590131854,-37327.834399880376
1711590131893,-37327.834399880376
1711590131934,-37327.834399880376
1711590131974,-37327.834399880376
1711590132014,-37327.834399880376
1711590132054,-37327.834399880376
1711590132094,-37327.834399880376
1711590132135,-37327.834399880376
1711590132174,-37327.834399880376
1711590132214,-36120.77226468176
1711590132254,-6467.671886075754
1711590132294,-4537.261065926403
1711590132335,408.0032656057738
1711590132375,497.7599737874698
1711590132415,1010.6794581490103
1711590132455,1272.455027685035
1711590132495,1869.7528183115646
1711590132536,2727.0475219967775
1711590132575,2841.481469044462
1711590132615,2962.2555329962634
1711590132655,2962.2555329962634
1711590132696,2841.481469044462
1711590132736,2727.0475219967775
1711590132776,1869.7528183115646
1711590132816,1272.455027685035
1711590132856,1010.6794581490103
1711590132896,1010.6794581490103
1711590132937,1010.6794581490103
1711590132976,1010.6794581490103
1711590133016,1272.455027685035
1711590133057,1869.7528183115646
1711590133097,1272.455027685035
1711590133137,1272.455027685035
1711590133177,1272.455027685035
1711590133217,2198.0712445098907
1711590133257,2198.0712445098907
1711590133297,1190.65908588795
1711590133338,730.9674344491214
1711590133377,-266.0034388396889
1711590133418,-458.4811110307928
1711590133458,-977.9923431337811
1711590133498,-1864.2939209381584
1711590133539,-1864.2939209381584
1711590133578,-1864.2939209381584
1711590133618,-1864.2939209381584
1711590133658,-1864.2939209381584
1711590133698,-977.9923431337811
1711590133739,-458.4811110307928
1711590133778,362.0220363144763
1711590133818,362.0220363144763
1711590133858,362.0220363144763
1711590133899,362.0220363144763
1711590133939,362.0220363144763
1711590133979,-458.4811110307928
1711590134019,-2386.9648061003536
1711590134059,-2650.8937951144762
1711590134099,-5704.688980352599
1711590134140,-5704.688980352599
1711590134180,-4701.025988604641
1711590134220,-2650.8937951144762
1711590134260,-2619.0920562585816
1711590134300,-2386.9648061003536
1711590134341,-1151.4849822255783
1711590134380,311.9761241269298
1711590134420,362.0220363144763
1711590134460,1868.4394719963893
1711590134501,2166.0624276655726
1711590134541,3969.892396064941
1711590134581,5702.773293355014
1711590134621,4764.933921806747
1711590134661,3969.892396064941
1711590134701,1868.4394719963893
1711590134742,311.9761241269298
1711590134781,263.91147849638946
1711590134821,311.9761241269298
1711590134861,1868.4394719963893
1711590134902,3052.1524510355666
1711590134942,3969.892396064941
1711590134982,4764.933921806747
1711590135022,5493.56129109906
1711590135062,6377.023153834976
1711590135102,6586.379299464403
1711590135143,7681.835267950315
1711590135182,9415.00707654166
1711590135223,9944.48678813316
1711590135263,11995.08494862658
1711590135303,9415.00707654166
1711590135344,7681.835267950315
1711590135383,6377.023153834976
1711590135423,5493.56129109906
1711590135463,5976.33903572429
1711590135503,6377.023153834976
1711590135544,7083.709169602953
1711590135584,7585.808161821216
1711590135624,7681.835267950315
1711590135664,8793.600095334463
1711590135704,9415.00707654166
1711590135745,11123.839621263556
1711590135784,11995.08494862658
1711590135824,13494.306533110095
1711590135864,13989.628491364652
1711590135904,14206.429895658977
1711590135945,13494.306533110095
1711590135984,11123.839621263556
1711590136024,8793.600095334463
1711590136065,7585.808161821216
1711590136105,7083.709169602953
1711590136145,7083.709169602953
1711590136185,7083.709169602953
1711590136225,7083.709169602953
1711590136265,7585.808161821216
1711590136305,7589.229378925636
1711590136346,8793.600095334463
1711590136385,9491.85089231329
1711590136425,11123.839621263556
1711590136465,11628.705234091496
1711590136505,11628.705234091496
1711590136546,11628.705234091496
1711590136585,9566.141721216496
1711590136625,9491.85089231329
1711590136666,7589.229378925636
1711590136706,6825.791305543855
1711590136746,6538.635777265998
1711590136786,6538.635777265998
1711590136826,6538.635777265998
1711590136866,6538.635777265998
1711590136906,6538.635777265998
1711590136947,6538.635777265998
1711590136986,6649.006559578702
1711590137027,6825.791305543855
1711590137067,7589.229378925636
1711590137107,9365.37604463147
1711590137147,9365.37604463147
1711590137187,9365.37604463147
1711590137227,9365.37604463147
1711590137267,6649.006559578702
1711590137307,5006.617113305721
1711590137348,3909.115825066576
1711590137387,3623.3889723704197
1711590137427,3369.6298943958245
1711590137467,3369.6298943958245
1711590137507,3369.6298943958245
1711590137548,3369.6298943958245
1711590137588,3369.6298943958245
1711590137628,3369.6298943958245
1711590137668,2931.085655669449
1711590137708,2931.085655669449
1711590137749,2931.085655669449
1711590137788,2931.085655669449
1711590137828,2931.085655669449
1711590137868,2931.085655669449
1711590137908,2931.085655669449
1711590137949,1386.027349169366
1711590137989,-900.3475289549679
1711590138028,-1918.5045158504508
1711590138069,-2219.888435381232
1711590138109,-3474.19403972663
1711590138149,-3474.19403972663
1711590138189,-3474.19403972663
1711590138229,-3474.19403972663
1711590138269,-3474.19403972663
1711590138309,-3474.19403972663
1711590138350,-3140.3619433310814
1711590138389,-3140.3619433310814
1711590138429,-3140.3619433310814
1711590138470,-3140.3619433310814
1711590138509,-3140.3619433310814
1711590138550,-3140.3619433310814
1711590138590,-4666.353170692455
1711590138630,-4688.330291861668
1711590138670,-6475.348591430578
1711590138710,-6845.317786791362
1711590138751,-7080.027797701769
1711590138790,-7813.986982903909
1711590138830,-7813.986982903909
1711590138870,-7813.986982903909
1711590138910,-7813.986982903909
1711590138951,-7813.986982903909
1711590138991,-8714.47078354843
1711590139031,-8714.47078354843
1711590139071,-7813.986982903909
1711590139111,-7813.986982903909
1711590139152,-7813.986982903909
1711590139191,-7813.986982903909
1711590139231,-8938.022246440407
1711590139271,-9181.160256501753
1711590139311,-9741.063136489596
1711590139352,-11191.067908952944
1711590139392,-12033.820253914455
1711590139432,-12366.073611405445
1711590139472,-12366.073611405445
1711590139512,-12366.073611405445
1711590139553,-12366.073611405445
1711590139592,-12656.97651032568
1711590139632,-13101.225566989277
1711590139672,-26442.129965653177
1711590139712,-26442.129965653177
1711590139753,-26442.129965653177
1711590139793,-26442.129965653177
1711590139833,-26442.129965653177
1711590139873,-26442.129965653177
1711590139913,-26442.129965653177
1711590139954,-26442.129965653177
1711590139993,-26442.129965653177
1711590140033,-27712.9925593629
1711590140073,-27712.9925593629
1711590140113,-27712.9925593629
1711590140154,-26898.52022657008
1711590140194,-26365.48004269204
1711590140234,-25994.28854578454
1711590140274,-25875.85369503172
1711590140314,-25625.15260023251
1711590140355,-25479.156615909887
1711590140394,-23512.3597261759
1711590140434,-21734.485284586437
1711590140474,-19266.5331728803
1711590140515,-17982.068807920907
1711590140555,-16307.417732037138
1711590140595,-16121.214661841746
1711590140635,-16307.417732037138
1711590140675,-17982.068807920907
1711590140715,-19266.5331728803
1711590140756,-20811.63529206114
1711590140795,-20811.63529206114
1711590140836,-17982.068807920907
1711590140876,-16307.417732037138
1711590140916,-15794.421439888421
1711590140957,-14666.901259309147
1711590140996,-13752.601223199163
1711590141036,-10709.378922969103
1711590141076,-10681.944026528392
1711590141117,-9141.032322635176
1711590141157,-9141.032322635176
1711590141197,-9141.032322635176
1711590141237,-10681.944026528392
1711590141277,-13752.601223199163
1711590141317,-13752.601223199163
1711590141358,-13752.601223199163
1711590141397,-13752.601223199163
1711590141438,-10681.944026528392
1711590141478,-9141.032322635176
1711590141518,-8984.189862742554
1711590141559,-8817.833128717262
1711590141598,-6022.536457717884
1711590141638,-3849.550310796825
1711590141678,-105.19167501153424
1711590141719,12900.5539463819
1711590141759,13622.58882824704
1711590141799,16635.94462349033
1711590141839,17027.645925102755
1711590141879,17027.645925102755
1711590141919,17027.645925102755
1711590141960,17027.645925102755
1711590141999,17027.645925102755
1711590142040,17027.645925102755
1711590142080,17027.645925102755
1711590142120,17027.645925102755
1711590142161,17027.645925102755
1711590142200,16635.94462349033
1711590142240,12900.5539463819
1711590142280,8193.869054229697
1711590142321,-143.1406671074219
1711590142361,-143.1406671074219
1711590142401,-143.1406671074219
1711590142441,-143.1406671074219
1711590142481,-143.1406671074219
1711590142521,-143.1406671074219
1711590142562,-143.1406671074219
1711590142601,-1266.627395756077
1711590142641,-1695.7278493684717
1711590142682,-2963.38367871847
1711590142722,-3254.912200168008
1711590142762,-3515.13319986593
1711590142802,-3515.13319986593
1711590142842,-3515.13319986593
1711590142882,-3515.13319986593
1711590142922,-3515.13319986593
1711590142963,-2963.38367871847
1711590143003,-1695.7278493684717
1711590143043,-143.1406671074219
1711590143083,9526.94753319677
1711590143123,9595.037447778974
1711590143164,9860.028391839005
1711590143203,9595.037447778974
1711590143243,9526.94753319677
1711590143283,8345.773253826424
1711590143323,3054.5580457444303
1711590143364,812.0320515495259
1711590143404,-3079.8518693388905
1711590143444,-3079.8518693388905
1711590143484,-1222.804933872074
1711590143524,812.0320515495259
1711590143565,955.7179856451694
1711590143604,3054.5580457444303
1711590143644,3277.1887515983544
1711590143684,5513.017899137456
1711590143724,7782.831448947545
1711590143765,7782.831448947545
1711590143804,7782.831448947545
1711590143845,7782.831448947545
1711590143885,7782.831448947545
1711590143925,7782.831448947545
1711590143965,7782.831448947545
1711590144005,5513.017899137456
1711590144045,4368.257186253788
1711590144085,4368.257186253788
1711590144125,4368.257186253788
1711590144166,4368.257186253788
1711590144205,4368.257186253788
1711590144245,5280.141635923181
1711590144285,5513.017899137456
1711590144326,6399.38840895216
1711590144366,7782.831448947545
1711590144406,7805.05745688919
1711590144446,8710.92232207884
1711590144486,10087.254557101056
1711590144526,10467.348859919934
1711590144567,10467.348859919934
1711590144606,10467.348859919934
1711590144646,10467.348859919934
1711590144686,10467.348859919934
1711590144727,10467.348859919934
1711590144767,8710.92232207884
1711590144807,8619.089638716541
1711590144847,8619.089638716541
1711590144887,8619.089638716541
1711590144927,8619.089638716541
1711590144968,8619.089638716541
1711590145007,8619.089638716541
1711590145047,8619.089638716541
1711590145087,8740.982719783904
1711590145127,10467.348859919934
1711590145168,10676.108198829694
1711590145208,12090.122431861237
1711590145248,12090.122431861237
1711590145288,12090.122431861237
1711590145328,12090.122431861237
1711590145369,12090.122431861237
1711590145408,12090.122431861237
1711590145448,12090.122431861237
1711590145488,12090.122431861237
1711590145528,10676.108198829694
1711590145569,8740.982719783904
1711590145608,8740.982719783904
1711590145648,8740.982719783904
1711590145689,8740.982719783904
1711590145729,8740.982719783904
1711590145769,8740.982719783904
1711590145809,8740.982719783904
1711590145849,8740.982719783904
1711590145889,8740.982719783904
1711590145929,8446.104866390582
1711590145970,8446.104866390582
1711590146009,8446.104866390582
1711590146050,8446.104866390582
1711590146090,8446.104866390582
1711590146130,8446.104866390582
1711590146171,8446.104866390582
1711590146210,8446.104866390582
1711590146250,8446.104866390582
1711590146290,8446.104866390582
1711590146330,8181.057974100113
1711590146371,7009.737788908184
1711590146410,7009.737788908184
1711590146450,7009.737788908184
1711590146490,7216.372009698302
1711590146531,8088.084200226935
1711590146571,8088.084200226935
1711590146611,8446.104866390582
1711590146651,8663.63081450155
1711590146691,8906.11802589288
1711590146731,9810.146699896082
1711590146772,10325.66809454211
1711590146811,11888.196543973172
1711590146851,11888.196543973172
1711590146891,11888.196543973172
1711590146931,11888.196543973172
1711590146972,11888.196543973172
1711590147012,11888.196543973172
1711590147052,11888.196543973172
1711590147092,9810.146699896082
1711590147132,9810.146699896082
1711590147173,9810.146699896082
1711590147212,9810.146699896082
1711590147252,9939.335977896582
1711590147292,10846.28002238553
1711590147333,11375.457232316025
1711590147373,11389.965289214859
1711590147413,11888.196543973172
1711590147453,11947.465479130391
1711590147493,12864.563899544068
1711590147533,13514.940893748077
1711590147574,14214.03097598115
1711590147613,14214.03097598115
1711590147653,14214.03097598115
1711590147693,14214.03097598115
1711590147734,14214.03097598115
1711590147774,13220.837758576032
1711590147814,12864.563899544068
1711590147854,11947.465479130391
1711590147894,11389.965289214859
1711590147934,11389.965289214859
1711590147975,11389.965289214859
1711590148014,11389.965289214859
1711590148054,11389.965289214859
1711590148095,11389.965289214859
1711590148135,11863.61258871993
1711590148175,12864.563899544068
1711590148215,13220.837758576032
1711590148255,13957.176668778993
1711590148295,13957.176668778993
1711590148335,13957.176668778993
1711590148376,13957.176668778993
1711590148415,13957.176668778993
1711590148456,13957.176668778993
1711590148496,13220.837758576032
1711590148536,11863.61258871993
1711590148577,10867.092317722505
1711590148616,10641.112626152579
1711590148656,10641.112626152579
1711590148696,10641.112626152579
1711590148736,10641.112626152579
1711590148777,10641.112626152579
1711590148817,10641.112626152579
1711590148857,10641.112626152579
1711590148897,9523.957664180547
1711590148937,9523.957664180547
1711590148978,9523.957664180547
1711590149017,9523.957664180547
1711590149057,9523.957664180547
1711590149097,9523.957664180547
1711590149137,9523.957664180547
1711590149178,7082.126998537686
1711590149218,6776.193430365063
1711590149258,5934.336461189669
1711590149298,5645.0387253756635
1711590149338,5510.344318576157
1711590149379,5510.344318576157
1711590149418,5510.344318576157
1711590149457,5510.344318576157
1711590149497,5510.344318576157
1711590149538,5510.344318576157
1711590149578,4950.76646213606
1711590149618,4950.76646213606
1711590149658,4950.76646213606
1711590149698,4950.76646213606
1711590149738,4950.76646213606
1711590149779,4950.76646213606
1711590149818,4950.76646213606
1711590149859,2957.0219604391605
1711590149899,2112.874456186313
1711590149939,1442.5188380749896
1711590149980,410.8797449427657
1711590150019,339.48110380396247
1711590150059,339.48110380396247
1711590150099,339.48110380396247
1711590150139,339.48110380396247
1711590150180,339.48110380396247
1711590150219,339.48110380396247
1711590150260,285.04894076054916
1711590150300,285.04894076054916
1711590150340,285.04894076054916
1711590150381,285.04894076054916
1711590150420,285.04894076054916
1711590150460,285.04894076054916
1711590150501,285.04894076054916
1711590150540,-1003.4100382809993
1711590150581,-2153.8472561063245
1711590150621,-2890.0590208228678
1711590150661,-3711.992692043539
1711590150701,-3902.523852115497
1711590150741,-3902.523852115497
1711590150782,-3902.523852115497
1711590150821,-3902.523852115497
1711590150861,-3902.523852115497
1711590150901,-3902.523852115497
1711590150942,-3711.992692043539
1711590150982,-2987.5127364280634
1711590151022,-2890.0590208228678
1711590151062,-2153.8472561063245
1711590151102,-2153.8472561063245
1711590151142,-2153.8472561063245
1711590151183,-2153.8472561063245
1711590151222,-2987.5127364280634
1711590151262,-4709.2590553078335
1711590151302,-6357.11908530863
1711590151343,-7222.40883918223
1711590151383,-7834.505900358316
1711590151423,-7834.505900358316
1711590151463,-7834.505900358316
1711590151503,-7834.505900358316
1711590151543,-7834.505900358316
1711590151584,-7222.40883918223
1711590151623,-6709.111605297308
1711590151663,-6357.11908530863
1711590151703,-4709.2590553078335
1711590151743,-4683.603980341461
1711590151784,-4683.603980341461
1711590151824,-4683.603980341461
1711590151864,-4683.603980341461
1711590151904,-4683.603980341461
1711590151944,-6709.111605297308
1711590151984,-7222.40883918223
1711590152024,-7997.24545716797
1711590152064,-8644.908221937716
1711590152104,-8644.908221937716
1711590152144,-8644.908221937716
1711590152185,-8644.908221937716
1711590152224,-8644.908221937716
1711590152264,-8644.908221937716
1711590152305,-7997.24545716797
1711590152344,-6709.111605297308
1711590152385,-6508.422932371497
1711590152425,-4683.603980341461
1711590152465,-4220.2977694149595
1711590152505,-4220.2977694149595
1711590152545,-4220.2977694149595
1711590152586,-4220.2977694149595
1711590152625,-6508.422932371497
1711590152665,-8919.304155195132
1711590152705,-10049.217028359883
1711590152745,-10570.254193140194
1711590152786,-10570.254193140194
1711590152826,-10331.609631925821
1711590152866,-10062.078842604998
1711590152906,-10049.217028359883
1711590152946,-9403.18199052196
1711590152987,-9024.372599672759
1711590153026,-8919.304155195132
1711590153066,-7225.9925008774735
1711590153106,-6508.422932371497
1711590153147,-4733.124183707638
1711590153187,-4733.124183707638
1711590153227,-4733.124183707638
1711590153267,-4733.124183707638
1711590153307,-7225.9925008774735
1711590153347,-8918.754929118324
1711590153388,-9024.372599672759
1711590153427,-9403.18199052196
1711590153467,-9403.18199052196
1711590153507,-9403.18199052196
1711590153547,-9403.18199052196
1711590153588,-9403.18199052196
1711590153628,-9403.18199052196
1711590153668,-9403.18199052196
1711590153708,-9024.372599672759
1711590153748,-8918.754929118324
1711590153789,-8187.2781757765915
1711590153828,-8187.2781757765915
1711590153868,-8187.2781757765915
1711590153908,-8187.2781757765915
1711590153948,-8187.2781757765915
1711590153989,-8918.754929118324
1711590154028,-10521.80775025161
1711590154069,-11848.16158527974
1711590154109,-12081.196458686143
1711590154149,-12380.789035402006
1711590154190,-12380.789035402006
1711590154229,-12380.789035402006
1711590154269,-12380.789035402006
1711590154309,-12380.789035402006
1711590154349,-12380.789035402006
1711590154390,-12081.196458686143
1711590154429,-11848.16158527974
1711590154470,-10997.497924873605
1711590154510,-10997.497924873605
1711590154550,-10997.497924873605
1711590154591,-10997.497924873605
1711590154630,-10997.497924873605
1711590154670,-10997.497924873605
1711590154710,-11848.16158527974
1711590154750,-13223.535408337833
1711590154791,-14514.842735760147
1711590154830,-15894.120380960638
1711590154870,-15894.120380960638
1711590154910,-15894.120380960638
1711590154951,-15894.120380960638
1711590154991,-15894.120380960638
1711590155031,-14575.788610378746
1711590155071,-14514.842735760147
1711590155111,-13223.535408337833
1711590155151,-12844.021091403207
1711590155192,-10997.497924873605
1711590155231,-10385.698660816532
1711590155271,-10385.698660816532
1711590155312,-10385.698660816532
1711590155352,-10385.698660816532
1711590155392,-10385.698660816532
1711590155432,-12844.021091403207
1711590155472,-14575.788610378746
1711590155512,-15667.159530317876
1711590155552,-15441.561764851213
1711590155593,-14844.192705726251
1711590155632,-14751.641258842312
1711590155672,-14575.788610378746
1711590155712,-14043.37859567115
1711590155753,-12844.021091403207
1711590155793,-12673.001174116042
1711590155833,-10385.698660816532
1711590155873,-10371.073685337324
1711590155913,-9434.219128768425
1711590155953,-8007.487316165119
1711590155994,-8007.487316165119
1711590156033,-8007.487316165119
1711590156073,-8007.487316165119
1711590156114,-8007.487316165119
1711590156154,-9434.219128768425
1711590156194,-9757.482924314681
1711590156234,-10371.073685337324
1711590156274,-10371.073685337324
1711590156314,-9922.644988948945
1711590156354,-9757.482924314681
1711590156395,-9346.38513129414
1711590156434,-9335.758398025297
1711590156475,-8501.139358186163
1711590156515,-8007.487316165119
1711590156555,-7223.312161440728
1711590156596,-5201.212837050203
1711590156635,-5050.841513665859
1711590156675,-2543.5479285740294
1711590156715,-2072.4390955767594
1711590156755,-2072.4390955767594
1711590156796,-2072.4390955767594
1711590156835,-3087.973339878954
1711590156876,-5050.841513665859
1711590156916,-7223.312161440728
1711590156956,-8501.139358186163
1711590156997,-8501.139358186163
1711590157036,-8501.139358186163
1711590157076,-8501.139358186163
1711590157116,-8501.139358186163
1711590157156,-8501.139358186163
1711590157197,-7396.644745055353
1711590157237,-7223.312161440728
1711590157277,-5856.597580508562
1711590157317,-5050.841513665859
1711590157357,-3618.2499838620424
1711590157398,-3618.2499838620424
1711590157437,-3618.2499838620424
1711590157477,-3618.2499838620424
1711590157517,-3618.2499838620424
1711590157558,-3618.2499838620424
1711590157598,-5856.597580508562
1711590157638,-7396.644745055353
1711590157678,-9173.148837181507
1711590157718,-9173.148837181507
1711590157758,-9173.148837181507
1711590157799,-9173.148837181507
1711590157838,-9173.148837181507
1711590157878,-9173.148837181507
1711590157919,-9173.148837181507
1711590157959,-9173.148837181507
1711590157999,-9709.59977338463
1711590158039,-9709.59977338463
1711590158079,-9709.59977338463
1711590158119,-9709.59977338463
1711590158159,-9709.59977338463
1711590158200,-9709.59977338463
1711590158239,-9709.59977338463
1711590158280,-9709.59977338463
1711590158320,-9709.59977338463
1711590158360,-9709.59977338463
1711590158401,-9709.59977338463
1711590158440,-8576.057476335904
1711590158480,-8538.73451478267
1711590158520,-7637.070895435289
1711590158560,-7540.73644730309
1711590158601,-6270.8654423041735
1711590158641,-4844.598765757168
1711590158681,-4243.97659185715
1711590158721,-3376.3891001385637
1711590158761,-2519.0725435256027
1711590158802,-1981.527608526405
1711590158841,-1493.6489922502078
1711590158881,44.390971523476765
1711590158922,1425.733904987108
1711590158962,1830.0513073499314
1711590159002,3225.460422022268
1711590159042,3227.9139428809285
1711590159082,2152.366725374013
1711590159122,1830.0513073499314
1711590159162,1830.0513073499314
1711590159203,1830.0513073499314
1711590159242,1830.0513073499314
1711590159282,1830.0513073499314
1711590159322,1830.0513073499314
1711590159362,1830.0513073499314
1711590159403,1830.0513073499314
1711590159443,2152.366725374013
1711590159483,2983.1696430835873
1711590159523,3227.9139428809285
1711590159563,3227.9139428809285
1711590159604,5328.007470536744
1711590159643,5558.4184096935205
1711590159683,5558.4184096935205
1711590159723,5558.4184096935205
1711590159763,5558.4184096935205
1711590159804,5558.4184096935205
1711590159843,2983.1696430835873
1711590159884,2152.366725374013
1711590159924,1782.9115179944783
1711590159964,2983.1696430835873
1711590160005,3319.1118542084005
1711590160044,4489.943332341965
1711590160084,5558.4184096935205
1711590160124,7231.750773599604
1711590160164,7769.737837311346
1711590160205,8452.157494541258
1711590160245,8709.819351398386
1711590160284,9077.76929242583
1711590160325,9690.425368623342
1711590160365,10292.484670079546
1711590160405,11091.08568054298
1711590160445,11091.08568054298
1711590160485,11091.08568054298
1711590160525,10292.484670079546
1711590160565,9077.76929242583
1711590160606,8709.819351398386
1711590160645,8709.819351398386
1711590160685,8709.819351398386
1711590160725,8709.819351398386
1711590160765,8709.819351398386
1711590160806,8709.819351398386
1711590160846,8709.819351398386
1711590160886,9077.76929242583
1711590160926,9111.200332671637
1711590160966,10292.484670079546
1711590161006,11091.08568054298
1711590161046,11134.257951577194
1711590161086,11134.257951577194
1711590161126,11134.257951577194
1711590161166,11134.257951577194
1711590161207,9830.6015580073
1711590161246,9111.200332671637
1711590161286,7828.314102910692
1711590161327,7181.571205636719
1711590161366,7049.5464899735525
1711590161407,7049.5464899735525
1711590161447,7049.5464899735525
1711590161487,7049.5464899735525
1711590161527,7049.5464899735525
1711590161567,7049.5464899735525
1711590161608,7049.5464899735525
1711590161647,7828.314102910692
1711590161687,8103.981675429735
1711590161727,8103.981675429735
1711590161767,8103.981675429735
1711590161808,8103.981675429735
1711590161847,8103.981675429735
1711590161887,8103.981675429735
1711590161928,6132.446204463253
1711590161968,4429.086622969247
1711590162008,4062.335705931997
1711590162048,3945.867914102273
1711590162088,3945.867914102273
1711590162128,3945.867914102273
1711590162168,3945.867914102273
1711590162209,3945.867914102273
1711590162248,3945.867914102273
1711590162288,3945.867914102273
1711590162328,730.3345739156939
1711590162368,-2936.982198577374
1711590162409,-2936.982198577374
1711590162448,-2936.982198577374
1711590162489,-2936.982198577374
1711590162529,-2936.982198577374
1711590162569,-2936.982198577374
1711590162610,-2936.982198577374
1711590162649,-4831.584910378093
1711590162689,-6086.542672419455
1711590162729,-6364.756176287308
1711590162769,-6544.156815471128
1711590162810,-6813.832906470867
1711590162849,-6813.832906470867
1711590162890,-6813.832906470867
1711590162929,-6813.832906470867
1711590162970,-6364.756176287308
1711590163010,-6086.542672419455
1711590163050,-5472.146097786492
1711590163090,-4831.584910378093
1711590163130,-3621.169035625644
1711590163170,-2936.982198577374
1711590163211,-1850.4809757149778
1711590163250,-1850.4809757149778
1711590163290,-3621.169035625644
1711590163330,-4684.478465903085
1711590163371,-5472.146097786492
1711590163411,-7075.107031425927
1711590163451,-7253.765691298991
1711590163491,-7253.765691298991
1711590163531,-7253.765691298991
1711590163571,-7253.765691298991
1711590163612,-7253.765691298991
1711590163651,-7075.107031425927
1711590163691,-6834.648368397728
1711590163732,-5472.146097786492
1711590163772,-5111.786383284954
1711590163812,-4684.478465903085
1711590163852,-4684.478465903085
1711590163892,-4684.478465903085
1711590163932,-5111.786383284954
1711590163972,-6834.648368397728
1711590164013,-7397.563338779379
1711590164052,-7836.940942444373
1711590164092,-8083.238303588005
1711590164132,-8083.238303588005
1711590164173,-7836.940942444373
1711590164213,-7397.563338779379
1711590164253,-6834.648368397728
1711590164293,-6809.613080836134
1711590164333,-5111.786383284954
1711590164373,-5103.573678487912
1711590164414,-4856.2097154723015
1711590164453,-4251.905691001564
1711590164493,-2336.6720506106503
1711590164533,6.838134471327066
1711590164574,6.838134471327066
1711590164614,-531.9171467868146
1711590164654,-4251.905691001564
1711590164694,-4856.2097154723015
1711590164734,-5103.573678487912
1711590164774,-4916.627900263295
1711590164815,-4856.2097154723015
1711590164854,-4306.553580999607
1711590164894,-4251.905691001564
1711590164934,-3160.5237669912167
1711590164974,-1952.9474956048653
1711590165015,-531.9171467868146
1711590165055,-302.90190340043046
1711590165095,6.838134471327066
1711590165135,927.9646716387942
1711590165175,1929.6186999424826
1711590165216,1929.6186999424826
1711590165255,-302.90190340043046
1711590165295,-463.1519645950757
1711590165335,-531.9171467868146
1711590165375,-1952.9474956048653
1711590165416,-3160.5237669912167
1711590165456,-3160.5237669912167
1711590165496,-3160.5237669912167
1711590165536,-3160.5237669912167
1711590165576,-3160.5237669912167
1711590165617,-3028.4372851355
1711590165656,-1952.9474956048653
1711590165696,-911.711431035772
1711590165736,-463.1519645950757
1711590165776,-463.1519645950757
1711590165817,-463.1519645950757
1711590165857,-463.1519645950757
1711590165897,-463.1519645950757
1711590165937,-463.1519645950757
1711590165977,-463.1519645950757
1711590166018,-911.711431035772
1711590166057,-1218.9062247818802
1711590166097,-3028.4372851355
1711590166138,-3028.4372851355
1711590166177,-3028.4372851355
1711590166218,-3028.4372851355
1711590166258,-3028.4372851355
1711590166298,-3028.4372851355
1711590166338,-3028.4372851355
1711590166378,-3028.4372851355
1711590166419,-3028.4372851355
1711590166458,-6019.426473728148
1711590166499,-6019.426473728148
1711590166539,-6019.426473728148
1711590166579,-6019.426473728148
1711590166620,-6019.426473728148
1711590166659,-6019.426473728148
1711590166699,-6019.426473728148
1711590166739,-6019.426473728148
1711590166779,-6019.426473728148
1711590166820,-6029.178632045165
1711590166860,-6491.328613613965
1711590166900,-6491.328613613965
1711590166940,-6481.24119676929
1711590166980,-6029.178632045165
1711590167021,-6019.426473728148
1711590167060,-5249.4401360314805
1711590167100,-4126.508137815632
1711590167140,-3889.0499299596995
1711590167180,-3321.7765434631146
1711590167221,-3318.6490215261
1711590167261,-3082.632125755539
1711590167301,-1413.6235991057474
1711590167341,-73.55084099317901
1711590167381,875.6412381329574
1711590167422,1482.4969087373465
1711590167461,1482.4969087373465
1711590167501,1482.4969087373465
1711590167541,1482.4969087373465
1711590167582,1482.4969087373465
1711590167622,3415.8416438801214
1711590167662,3751.0315191512927
1711590167702,4036.1493081101216
1711590167742,5764.009555201512
1711590167782,5930.379098406993
1711590167823,6272.663508770056
1711590167862,8417.505354725523
1711590167902,9847.394153322559
1711590167942,10253.453046431998
1711590167982,10540.40595392487
1711590168023,10652.677300242707
1711590168063,10964.569858063944
1711590168103,11001.77716031135
1711590168143,12065.298014492262
1711590168183,12068.558211175026
1711590168224,12068.558211175026
1711590168263,12068.558211175026
1711590168303,12068.558211175026
1711590168343,15589.99278350803
1711590168383,15792.09599511372
1711590168424,16574.874583175173
1711590168463,16974.353142076172
1711590168503,17159.668628894724
1711590168544,18515.371810505632
1711590168584,19523.911870482378
1711590168624,19572.72615743475
1711590168664,19695.836227027234
1711590168704,20555.12372072367
1711590168744,22009.631492916495
1711590168784,22074.9083532542
1711590168825,22349.706335738534
1711590168864,22381.6435549804
1711590168904,22381.6435549804
1711590168944,22349.706335738534
1711590168984,22074.9083532542
1711590169025,22074.9083532542
1711590169065,22074.9083532542
1711590169105,22074.9083532542
1711590169145,22193.10239231051
1711590169185,22319.31543462444
1711590169226,22329.726423054934
1711590169265,22329.726423054934
1711590169305,22336.017296859296
1711590169345,22336.017296859296
1711590169385,22336.017296859296
1711590169426,22503.723687846214
1711590169465,22503.723687846214
1711590169506,22503.723687846214
1711590169546,22503.723687846214
1711590169586,22336.017296859296
1711590169627,22329.726423054934
1711590169666,22319.31543462444
1711590169706,22193.10239231051
1711590169746,22193.10239231051
1711590169786,22193.10239231051
1711590169827,22193.10239231051
1711590169867,22193.10239231051
1711590169907,22193.10239231051
1711590169947,22193.10239231051
1711590169987,22319.31543462444
1711590170028,22329.726423054934
1711590170067,22335.326138191624
1711590170107,22335.326138191624
1711590170147,22335.326138191624
1711590170187,22335.326138191624
1711590170228,22335.326138191624
1711590170267,21781.914369766833
1711590170308,20687.5404488754
1711590170348,20407.396211666754
1711590170388,20179.63629374327
1711590170429,20179.63629374327
1711590170468,20179.63629374327
1711590170508,20179.63629374327
1711590170548,20179.63629374327
1711590170588,20179.63629374327
1711590170629,20179.63629374327
1711590170668,20179.63629374327
1711590170709,20179.63629374327
1711590170749,20179.63629374327
1711590170789,20179.63629374327
1711590170830,20179.63629374327
1711590170869,20179.63629374327
1711590170909,20179.63629374327
1711590170949,20122.275244423887
1711590170989,19268.55665996927
1711590171030,18606.456172731705
1711590171069,18337.899592602625
1711590171109,18333.497499217046
1711590171149,18333.497499217046
1711590171190,18189.305338986916
1711590171230,18189.305338986916
1711590171270,18189.305338986916
1711590171310,18072.57362942677
1711590171350,17481.86168785114
1711590171390,14690.68625471997
1711590171431,14690.68625471997
1711590171470,14690.68625471997
1711590171510,14690.68625471997
1711590171550,14690.68625471997
1711590171590,14690.68625471997
1711590171631,14690.68625471997
1711590171671,14667.594122365117
1711590171711,14426.144289280288
1711590171751,14233.552499646787
1711590171791,13957.826135348994
1711590171832,13945.849587685196
1711590171871,13945.849587685196
1711590171911,13862.95272380556
1711590171951,13524.079366967082
1711590171991,13516.388697846327
1711590172032,13417.526889657602
1711590172072,9425.752520303708
1711590172112,6231.385466901818
1711590172152,6231.385466901818
1711590172192,6231.385466901818
1711590172233,6231.385466901818
1711590172272,6231.385466901818
1711590172312,6231.385466901818
1711590172352,6231.385466901818
1711590172392,5950.552651036531
1711590172433,5719.321121459827
1711590172473,5575.374133903068
1711590172513,5470.1657228791155
1711590172553,5367.428807998309
1711590172593,4908.279787702486
1711590172634,4466.340184192173
1711590172673,3704.9923035607208
1711590172713,3690.526928687468
1711590172753,3664.6081719337963
1711590172793,75.63006364600733
1711590172834,-2846.318940141704
1711590172873,-2846.318940141704
1711590172913,-2846.318940141704
1711590172953,-2846.318940141704
1711590172994,-2846.318940141704
1711590173034,-2846.318940141704
1711590173074,-2846.318940141704
1711590173114,-3958.51659981627
1711590173154,-4017.7683771492448
1711590173194,-4761.491857401561
1711590173235,-5258.149334840244
1711590173274,-5867.51949091861
1711590173314,-5867.51949091861
1711590173355,-5867.51949091861
1711590173395,-5867.51949091861
1711590173435,-6124.332014832646
1711590173475,-6227.994391788263
1711590173515,-6227.994391788263
1711590173555,-10430.216363323387
1711590173595,-10430.216363323387
1711590173636,-10430.216363323387
1711590173675,-10430.216363323387
1711590173716,-10430.216363323387
1711590173756,-10430.216363323387
1711590173796,-10430.216363323387
1711590173837,-10430.216363323387
1711590173876,-11276.187537587713
1711590173916,-12711.679647733225
1711590173956,-13711.449278827058
1711590173996,-13851.09612984443
1711590174037,-13851.09612984443
1711590174077,-13851.09612984443
1711590174117,-13851.09612984443
1711590174157,-13851.09612984443
1711590174197,-14124.096186398994
1711590174238,-14124.096186398994
1711590174277,-14124.096186398994
1711590174317,-23205.468166392995
1711590174357,-25040.66792823281
1711590174397,-25040.66792823281
1711590174438,-25040.66792823281
1711590174478,-25040.66792823281
1711590174518,-25040.66792823281
1711590174558,-25040.66792823281
1711590174598,-25040.66792823281
1711590174639,-26429.29124939884
1711590174678,-26883.60554495128
1711590174718,-26980.935696612112
1711590174758,-27816.959874105873
1711590174799,-27984.57594138733
1711590174839,-28562.23272638442
1711590174879,-29035.905919252895
1711590174919,-29397.69043556694
1711590174959,-29635.245496113785
1711590174999,-29035.905919252895
1711590175040,-27816.959874105873
1711590175079,-27220.178066245047
1711590175119,-26883.60554495128
1711590175160,-25040.66792823281
1711590175200,-23851.26085905824
1711590175241,-23851.26085905824
1711590175280,-23851.26085905824
1711590175320,-23851.26085905824
1711590175360,-23851.26085905824
1711590175401,-25873.955306089483
1711590175441,-26975.651836398523
1711590175481,-25873.955306089483
1711590175521,-25683.609952932224
1711590175561,-24344.395992473466
1711590175601,-23851.26085905824
1711590175642,-22803.400515739806
1711590175681,-22373.905585574452
1711590175721,-21873.778727298602
1711590175761,-20888.559775665868
1711590175801,-20820.843356591184
1711590175842,-20292.803081557155
1711590175882,-19561.276501831133
1711590175922,-18993.305028780364
1711590175962,-17938.157305493252
1711590176002,-17938.157305493252
1711590176043,-17938.157305493252
1711590176082,-19561.276501831133
1711590176122,-20292.803081557155
1711590176162,-20820.843356591184
1711590176202,-21287.17892266088
1711590176243,-21287.17892266088
1711590176282,-21287.17892266088
1711590176322,-21287.17892266088
1711590176363,-21287.17892266088
1711590176403,-21287.17892266088
1711590176443,-21287.17892266088
1711590176483,-21287.17892266088
1711590176523,-21287.17892266088
1711590176563,-21287.17892266088
1711590176603,-21287.17892266088
1711590176644,-21287.17892266088
1711590176683,-21287.17892266088
1711590176724,-21287.17892266088
1711590176763,-21287.17892266088
1711590176804,-22987.751455550548
1711590176844,-25336.873862288194
1711590176884,-26048.8778850534
1711590176924,-26717.037229843903
1711590176964,-26717.037229843903
1711590177004,-26048.8778850534
1711590177045,-25525.522094995016
1711590177084,-25525.522094995016
1711590177124,-25336.873862288194
1711590177164,-25246.346154010156
1711590177205,-23747.547306595836
1711590177245,-22987.751455550548
1711590177285,-21039.75354373455
1711590177325,-20457.03933758242
1711590177365,-18624.002731678076
1711590177405,-18624.002731678076
1711590177446,-18624.002731678076
1711590177485,-18624.002731678076
1711590177525,-19004.48855887889
1711590177565,-19004.48855887889
1711590177605,-19004.48855887889
1711590177646,-18849.05256527057
1711590177686,-18624.002731678076
1711590177726,-16767.809660068713
1711590177766,-15833.795346001862
1711590177806,-15225.213240494253
1711590177847,-14587.625012730248
1711590177886,-13546.654011055361
1711590177926,-13046.265202465001
1711590177966,-12275.002879096894
1711590178006,-11591.997207202017
1711590178047,-10626.114971516654
1711590178086,-10487.616626285017
1711590178126,-9127.313144609332
1711590178167,-8114.511676145485
1711590178207,-7142.562167966971
1711590178247,-7142.562167966971
1711590178287,-6329.466684380313
1711590178327,-4150.241074821446
1711590178367,-2950.8027674008626
1711590178407,-2512.1348054730333
1711590178448,-2338.924288272392
1711590178487,-829.5455787123647
1711590178527,26.519249443896115
1711590178567,1363.366717954399
1711590178607,2488.052471044706
1711590178648,2495.104516933905
1711590178688,2803.17207433586
1711590178728,3271.3680693260394
1711590178768,4037.2713119885884
1711590178808,5281.868391917553
1711590178849,5553.7322344647255
1711590178888,7834.500118344091
1711590178928,5422.907014805824
1711590178968,5422.907014805824
1711590179008,5638.264156644698
1711590179049,6451.489256235771
1711590179088,7834.500118344091
1711590179129,7988.851046022028
1711590179169,8481.280719912145
1711590179209,8830.27691296162
1711590179250,8963.867348180618
1711590179289,9200.748001456494
1711590179329,9900.411227708915
1711590179369,9946.050994887948
1711590179409,11191.751629001927
1711590179450,12473.710231842473
1711590179489,12473.710231842473
1711590179529,12473.710231842473
1711590179570,11191.751629001927
1711590179610,9900.411227708915
1711590179650,9200.748001456494
1711590179690,8963.867348180618
1711590179730,8963.867348180618
1711590179770,8963.867348180618
1711590179810,8963.867348180618
1711590179851,8963.867348180618
1711590179890,8963.867348180618
1711590179930,8963.867348180618
1711590179971,9200.748001456494
1711590180010,9900.411227708915
1711590180051,10144.981813706225
1711590180091,10144.981813706225
1711590180131,10144.981813706225
1711590180171,10144.981813706225
1711590180211,10144.981813706225
1711590180252,8743.694200388156
1711590180291,8272.761648650514
1711590180331,7966.405494931154
1711590180371,7892.048419706523
1711590180411,7819.286406878382
1711590180452,7819.286406878382
1711590180492,7819.286406878382
1711590180532,7819.286406878382
1711590180575,7819.286406878382
1711590180612,7487.942034251755
1711590180653,5775.2609461215325
1711590180692,5775.2609461215325
1711590180732,5775.2609461215325
1711590180772,5775.2609461215325
1711590180813,5775.2609461215325
1711590180853,5775.2609461215325
1711590180893,5775.2609461215325
1711590180933,5080.097007108387
1711590180973,4150.619364749175
1711590181013,3092.5701781071257
1711590181054,3024.509659417905
1711590181093,2630.9500638882164
1711590181133,2630.9500638882164
1711590181173,2630.9500638882164
1711590181213,2630.9500638882164
1711590181254,2561.0234719282016
1711590181294,2149.098501063185
1711590181334,2149.098501063185
1711590181374,1382.1811284972355
1711590181414,1382.1811284972355
1711590181454,1382.1811284972355
1711590181494,1382.1811284972355
1711590181534,1382.1811284972355
1711590181574,1382.1811284972355
1711590181614,1382.1811284972355
1711590181655,-881.5597155503929
1711590181694,-1945.0178820854053
1711590181734,-2860.8480735414196
1711590181775,-3302.2787766316906
1711590181815,-3776.5080020194873
1711590181856,-3780.810113166459
1711590181895,-4228.649643564597
1711590181935,-4283.152789272135
1711590181975,-4460.879255205393
1711590182015,-4460.879255205393
1711590182056,-5475.58669884759
1711590182095,-5899.866752824746
1711590182136,-5899.866752824746
1711590182176,-5899.866752824746
1711590182216,-5899.866752824746
1711590182257,-5899.866752824746
1711590182296,-5899.866752824746
1711590182336,-5899.866752824746
1711590182376,-7094.481637323741
1711590182416,-7849.228754970944
1711590182457,-9379.572932004463
1711590182497,-9710.89573209011
1711590182536,-10640.812159611378
1711590182577,-10866.793004762847
1711590182617,-10866.793004762847
1711590182657,-10866.793004762847
1711590182697,-10866.793004762847
1711590182737,-10778.206859190948
1711590182780,-9379.572932004463
1711590182817,-8503.531010784442
1711590182858,-7849.228754970944
1711590182897,-7849.228754970944
1711590182937,-7849.228754970944
1711590182978,-7849.228754970944
1711590183018,-7849.228754970944
1711590183059,-7849.228754970944
1711590183098,-7849.228754970944
1711590183138,-7849.228754970944
1711590183178,-8503.531010784442
1711590183218,-10778.206859190948
1711590183259,-10778.206859190948
1711590183299,-10778.206859190948
1711590183339,-10770.306153607788
1711590183379,-10300.42812213744
1711590183419,-9935.402466814034
1711590183460,-9157.205485333223
1711590183499,-8503.531010784442
1711590183539,-7186.906104486436
1711590183580,-7097.811132963048
1711590183620,-6871.231214941479
1711590183660,-4975.894409100059
1711590183700,-3041.622976723127
1711590183740,-2434.9558258769102
1711590183780,-2434.9558258769102
1711590183820,-2434.9558258769102
1711590183861,-3881.156629925128
1711590183900,-6871.231214941479
1711590183941,-6952.976312098792
1711590183981,-6871.231214941479
1711590184021,-6284.358980152989
1711590184062,-5073.725911757443
1711590184101,-4856.160471845884
1711590184141,-4453.575727359159
1711590184181,-4369.163578250911
1711590184221,-3881.156629925128
1711590184262,-2723.1460129769985
1711590184301,-2434.9558258769102
1711590184341,-1236.1988531160168
1711590184381,-546.4423331215512
1711590184422,1352.4577530683018
1711590184462,1352.4577530683018
1711590184502,1352.4577530683018
1711590184542,1352.4577530683018
1711590184582,414.38303021434695
1711590184622,-1236.1988531160168
1711590184663,-2723.1460129769985
1711590184702,-2723.1460129769985
1711590184742,-1591.908510623034
1711590184782,-1236.1988531160168
1711590184822,-802.739527968457
1711590184863,-667.2683965545148
1711590184903,-213.74444303382188
1711590184943,414.38303021434695
1711590184985,637.0386152211577
1711590185023,1352.4577530683018
1711590185064,2148.2137376642786
1711590185103,3062.3760544937104
1711590185143,4253.54270051932
1711590185183,4253.54270051932
1711590185223,4253.54270051932
1711590185264,4253.54270051932
1711590185303,2249.715032288339
1711590185343,2148.2137376642786
1711590185384,637.0386152211577
1711590185424,637.0386152211577
1711590185464,637.0386152211577
1711590185504,637.0386152211577
1711590185545,637.0386152211577
1711590185585,637.0386152211577
1711590185625,1134.3358705386054
1711590185666,2148.2137376642786
1711590185705,2249.715032288339
1711590185745,2545.45787541382
1711590185785,4253.54270051932
1711590185826,4577.18103816919
1711590185867,4577.18103816919
1711590185906,4577.18103816919
1711590185946,4577.18103816919
1711590185986,4577.18103816919
1711590186026,3887.77339201048
1711590186067,2545.45787541382
1711590186106,2249.715032288339
1711590186146,1134.3358705386054
1711590186186,1554.1365391463041
1711590186227,2159.350458504632
1711590186267,2221.663039697567
1711590186307,2545.45787541382
1711590186347,2746.1815990668256
1711590186387,3887.77339201048
1711590186427,4129.639624888077
1711590186468,4577.18103816919
1711590186507,5797.503020913107
1711590186547,7505.351502305828
1711590186588,7677.842862240039
1711590186628,7677.842862240039
1711590186668,7677.842862240039
1711590186708,7677.842862240039
1711590186748,5797.503020913107
1711590186788,4697.3738728016615
1711590186828,4129.639624888077
1711590186869,4129.639624888077
1711590186908,4649.845998905599
1711590186949,4697.3738728016615
1711590186989,5339.02631227416
1711590187029,5339.02631227416
1711590187070,5489.459705755347
1711590187109,5797.503020913107
1711590187149,5835.053761379793
1711590187189,7339.685782137793
1711590187229,7677.842862240039
1711590187270,8975.03082286194
1711590187309,8975.03082286194
1711590187349,8975.03082286194
1711590187390,8975.03082286194
1711590187430,7339.685782137793
1711590187471,5835.053761379793
1711590187510,5489.459705755347
1711590187550,5339.02631227416
1711590187590,5339.02631227416
1711590187630,5339.02631227416
1711590187671,5339.02631227416
1711590187711,5339.02631227416
1711590187751,5339.02631227416
1711590187791,4997.796455293428
1711590187831,4997.796455293428
1711590187872,5835.053761379793
1711590187911,5980.128978624707
1711590187951,5980.128978624707
1711590187991,5980.128978624707
1711590188032,5980.128978624707
1711590188072,5822.762338987086
1711590188112,4411.514024769887
1711590188152,4351.592781534186
1711590188192,3222.5367910508066
1711590188232,3185.2985111013986
1711590188273,3094.0121716419235
1711590188312,3094.0121716419235
1711590188353,3094.0121716419235
1711590188393,3094.0121716419235
1711590188433,2691.2250530309975
1711590188474,2398.332475641044
1711590188513,2691.2250530309975
1711590188553,2749.3186711287126
1711590188593,2749.3186711287126
1711590188633,2749.3186711287126
1711590188674,2749.3186711287126
1711590188714,2749.3186711287126
1711590188754,856.1359896389768
1711590188794,-776.5112610668875
1711590188834,-1175.8577138071414
1711590188875,-1346.3695339369588
1711590188914,-1571.4034898045938
1711590188954,-1801.70335257845
1711590188995,-1801.70335257845
1711590189035,-1801.70335257845
1711590189075,-1801.70335257845
1711590189115,-1801.70335257845
1711590189155,-1828.4785396615043
1711590189195,-1801.70335257845
1711590189235,-1346.3695339369588
1711590189276,-1346.3695339369588
1711590189315,-1346.3695339369588
1711590189356,-1346.3695339369588
1711590189396,-1346.3695339369588
1711590189436,-3156.8815669827163
1711590189477,-4635.597764599137
1711590189516,-6198.23886748869
1711590189556,-6720.281208936591
1711590189596,-6902.907319428632
1711590189636,-6902.907319428632
1711590189677,-6902.907319428632
1711590189717,-6902.907319428632
1711590189757,-6902.907319428632
1711590189797,-6984.4882363649085
1711590189837,-6984.4882363649085
1711590189878,-6198.23886748869
1711590189917,-5796.961675874656
1711590189958,-5796.961675874656
1711590189998,-5796.961675874656
1711590190038,-5796.961675874656
1711590190079,-7157.405848418828
1711590190118,-7485.350329122972
1711590190158,-9129.853046941804
1711590190198,-9555.01636881777
1711590190238,-10163.060815338045
1711590190279,-10570.272646659054
1711590190319,-10570.272646659054
1711590190359,-10570.272646659054
1711590190399,-10570.272646659054
1711590190439,-10163.060815338045
1711590190480,-9536.489562598523
1711590190519,-9129.853046941804
1711590190560,-7485.350329122972
1711590190600,-7157.405848418828
1711590190640,-6804.85512979934
1711590190681,-6804.85512979934
1711590190720,-6804.85512979934
1711590190760,-6804.85512979934
1711590190800,-7157.405848418828
1711590190840,-9536.489562598523
1711590190881,-11230.95028097136
1711590190920,-11492.084876634646
1711590190960,-11492.084876634646
1711590191001,-11492.084876634646
1711590191041,-11492.084876634646
1711590191081,-11492.084876634646
1711590191121,-11492.084876634646
1711590191161,-11230.95028097136
1711590191201,-11217.774317723932
1711590191241,-9536.489562598523
1711590191282,-9419.587586752139
1711590191321,-9419.587586752139
1711590191361,-9419.587586752139
1711590191402,-11217.774317723932
1711590191442,-11230.95028097136
1711590191482,-11978.400708396453
1711590191522,-12527.430234509986
1711590191562,-12746.664252141723
1711590191602,-13236.268858752213
1711590191642,-13407.474459465593
1711590191683,-13417.270708025666
1711590191722,-14106.652504262514
1711590191762,-14296.827909159707
1711590191802,-14555.181759238243
1711590191842,-14555.181759238243
1711590191883,-14106.652504262514
1711590191922,-12746.664252141723
1711590191963,-11978.400708396453
1711590192003,-11978.400708396453
1711590192043,-11978.400708396453
1711590192084,-11978.400708396453
1711590192123,-14555.181759238243
1711590192163,-15537.608323519351
1711590192203,-15537.608323519351
1711590192243,-15537.608323519351
1711590192284,-15273.950647607911
1711590192324,-14555.181759238243
1711590192364,-14128.358678708319
1711590192404,-13143.849845247809
1711590192444,-12667.71485743625
1711590192485,-12541.133054298814
1711590192524,-11962.01763415779
1711590192564,-11723.677513877396
1711590192604,-11480.260021531256
1711590192644,-9617.252763763303
1711590192685,-8614.37857745774
1711590192725,-7826.884070043452
1711590192765,-9617.252763763303
1711590192805,-10052.216940248385
1711590192845,-11102.811650915537
1711590192885,-11102.811650915537
1711590192925,-10854.06347317528
1711590192965,-10052.216940248385
1711590193005,-9617.252763763303
1711590193045,-9560.807569665369
1711590193086,-8716.922234144295
1711590193125,-8115.653847348411
1711590193165,-7826.884070043452
1711590193206,-7169.753104039235
1711590193246,-5956.942962282337
1711590193286,-5492.565271652769
1711590193326,-4043.9757821201347
1711590193366,-3060.644039832987
1711590193406,-3060.644039832987
1711590193446,-3228.0163334845565
1711590193487,-4043.9757821201347
1711590193526,-4258.845934025478
1711590193567,-4258.845934025478
1711590193607,-4043.9757821201347
1711590193647,-4010.189475188963
1711590193688,-3228.0163334845565
1711590193727,-2897.9373779352754
1711590193767,-1958.3533645858988
1711590193807,-1879.8573738634586
1711590193847,-1614.008858678164
1711590193888,-1394.5300114443526
1711590193928,-14.161886196117848
1711590193967,737.5677132410929
1711590194008,1990.4737846334465
1711590194048,3317.478908760473
1711590194088,3790.588170902338
1711590194128,3790.588170902338
1711590194168,1990.4737846334465
1711590194208,1775.020177683793
1711590194248,1775.020177683793
1711590194289,1990.4737846334465
1711590194328,2528.4572598545346
1711590194368,3640.363908397034
1711590194409,4267.778257526923
1711590194448,4320.344961231574
1711590194489,4822.898674860597
1711590194529,5351.724831976229
1711590194569,6095.101199023426
1711590194609,6424.2745109973475
1711590194649,7410.291818162892
1711590194690,8267.781929084565
1711590194729,8609.866146223154
1711590194769,10180.915453180438
1711590194809,10495.294698495883
1711590194850,8609.866146223154
1711590194890,7410.291818162892
1711590194930,7410.291818162892
1711590194970,8057.3511920478195
1711590195010,8609.866146223154
1711590195050,9462.016100969631
1711590195091,10186.713673262624
1711590195130,10444.022045395803
1711590195170,10495.294698495883
1711590195210,10521.691613672767
1711590195251,10553.844165012473
1711590195291,10988.70403529657
1711590195331,12687.529942058492
1711590195371,13155.859505110653
1711590195411,13914.193212819519
1711590195451,13914.193212819519
1711590195492,12687.529942058492
1711590195531,10988.70403529657
1711590195571,10553.844165012473
1711590195612,10521.691613672767
1711590195651,10444.022045395803
1711590195692,10521.691613672767
1711590195732,10723.490142281633
1711590195772,10818.487189219333
1711590195812,10951.36701562046
1711590195852,10988.70403529657
1711590195893,11814.779264329001
1711590195932,12687.529942058492
1711590195973,12749.888600352919
1711590196013,13914.193212819519
1711590196053,14089.846527217422
1711590196094,14089.846527217422
1711590196133,13874.089422201272
1711590196173,12749.888600352919
1711590196213,11814.779264329001
1711590196253,10951.36701562046
1711590196294,10818.487189219333
1711590196334,10818.487189219333
1711590196374,10818.487189219333
1711590196414,10818.487189219333
1711590196454,10818.487189219333
1711590196495,10818.487189219333
1711590196534,10951.36701562046
1711590196574,11053.596114257816
1711590196614,11814.779264329001
1711590196654,12452.291053049732
1711590196695,12452.291053049732
1711590196735,12452.291053049732
1711590196775,12452.291053049732
1711590196815,11053.596114257816
1711590196855,10453.604003429879
1711590196896,10051.182114926865
1711590196935,9246.114950257586
1711590196975,9230.479205053532
1711590197016,9230.479205053532
1711590197056,9230.479205053532
1711590197096,9230.479205053532
1711590197136,9230.479205053532
1711590197176,8874.027285026852
1711590197216,8873.147950321436
1711590197256,7885.577011669753
1711590197297,7885.577011669753
1711590197337,7885.577011669753
1711590197377,7885.577011669753
1711590197417,7885.577011669753
1711590197457,7885.577011669753
1711590197498,7073.0124759753235
1711590197537,6344.617179603316
1711590197577,5381.547256663907
1711590197618,4963.121269126888
1711590197658,4645.308383056894
1711590197699,4614.671399764251
1711590197738,4614.671399764251
1711590197778,4614.671399764251
1711590197818,4614.671399764251
1711590197859,4564.683383579366
1711590197900,4108.160241137026
1711590197939,-763.1467540455051
1711590197979,-2733.3908078528475
1711590198019,-2978.4784562317654
1711590198059,-2978.4784562317654
1711590198100,-2978.4784562317654
1711590198140,-3045.494396246271
1711590198180,-3245.5308761987835
1711590198220,-3574.13091583224
1711590198260,-3716.3432150711305
1711590198301,-3870.01003751019
1711590198340,-3991.599376602564
1711590198380,-4442.574809271842
1711590198420,-4509.993395892903
1711590198460,-4509.993395892903
1711590198501,-4920.70760905277
1711590198541,-5373.415432658512
1711590198581,-5879.905364473583
1711590198621,-5879.905364473583
1711590198661,-5879.905364473583
1711590198702,-5879.905364473583
1711590198741,-5879.905364473583
1711590198781,-5879.905364473583
1711590198821,-7511.69857392041
1711590198861,-8708.259285576642
1711590198902,-10185.991571566556
1711590198941,-10185.991571566556
1711590198982,-10185.991571566556
1711590199022,-10116.685268034227
1711590199062,-9598.368426512927
1711590199103,-8708.259285576642
1711590199142,-7857.620958350599
1711590199182,-7511.69857392041
1711590199222,-6338.091643941589
1711590199262,-6316.893161886837
1711590199303,-5879.905364473583
1711590199342,-5572.385510882363
1711590199382,-4703.204083811957
1711590199422,-1968.1975749437697
1711590199463,-1463.3615370763
1711590199503,-877.4607697632164
1711590199543,-1463.3615370763
1711590199583,-2140.0827469166834
1711590199623,-2428.843621622771
1711590199663,-2286.0150247227866
1711590199704,-2140.0827469166834
1711590199743,-2140.0827469166834
1711590199783,-1838.9503942802548
1711590199823,-1463.3615370763
1711590199863,-877.4607697632164
1711590199904,60.69445388391614
1711590199944,328.2667656382546
1711590199984,876.020023027435
1711590200024,2867.9338380633853
1711590200064,2867.9338380633853
1711590200105,2867.9338380633853
1711590200144,876.020023027435
1711590200184,328.2667656382546
1711590200224,60.69445388391614
1711590200264,60.69445388391614
1711590200305,60.69445388391614
1711590200344,328.2667656382546
1711590200385,876.020023027435
1711590200425,909.175195557531
1711590200465,1984.6745833749883
1711590200505,2004.7651072405279
1711590200545,2867.9338380633853
1711590200585,4258.968156897463
1711590200625,4541.594990158686
1711590200665,5095.365062576253
1711590200706,5099.919850755716
1711590200745,5519.289268148132
1711590200786,5519.289268148132
1711590200826,5099.919850755716
1711590200866,5095.365062576253
1711590200906,4258.968156897463
1711590200946,2004.7651072405279
1711590200986,2004.7651072405279
1711590201026,2004.7651072405279
1711590201066,2004.7651072405279
1711590201107,2004.7651072405279
1711590201146,2004.7651072405279
1711590201186,1506.1468075891025
1711590201227,1506.1468075891025
1711590201267,1506.1468075891025
1711590201307,1506.1468075891025
1711590201347,1506.1468075891025
1711590201387,1506.1468075891025
1711590201427,1049.4087946908548
1711590201467,194.44993031257764
1711590201508,112.01815712545067
1711590201547,-2997.672842166852
1711590201587,-3221.656146173831
1711590201628,-3520.612903078785
1711590201668,-3520.612903078785
1711590201708,-3520.612903078785
1711590201748,-3520.612903078785
1711590201788,-3520.612903078785
1711590201828,-3520.612903078785
1711590201868,-3221.656146173831
1711590201909,-3221.656146173831
1711590201948,194.44993031257764
1711590201988,365.3404030469246
1711590202029,365.3404030469246
1711590202069,365.3404030469246
1711590202110,365.3404030469246
1711590202149,-1964.6888257577084
1711590202189,-1964.6888257577084
1711590202229,-1964.6888257577084
1711590202269,-3447.7435262440704
1711590202310,-3447.7435262440704
1711590202349,-3447.7435262440704
1711590202389,-3447.7435262440704
1711590202430,-3447.7435262440704
1711590202470,-3447.7435262440704
1711590202510,-3447.7435262440704
1711590202550,-3055.522426597774
1711590202590,-1964.6888257577084
1711590202630,-1866.2010234156623
1711590202670,-1662.0632495768368
1711590202711,-1662.0632495768368
1711590202750,-1866.2010234156623
1711590202790,-1964.6888257577084
1711590202831,-3055.522426597774
1711590202871,-3447.7435262440704
1711590202912,-5045.785186446272
1711590202951,-5613.113562868908
1711590202991,-5776.098674639594
1711590203031,-7223.158279381692
1711590203071,-7535.485693193972
1711590203112,-7535.485693193972
1711590203151,-7535.485693193972
1711590203192,-7223.158279381692
1711590203232,-5776.098674639594
1711590203272,-5613.113562868908
1711590203313,-4877.130653617205
1711590203352,-4051.788104407722
1711590203392,-4877.130653617205
1711590203432,-5776.098674639594
1711590203472,-7117.569464793429
1711590203513,-7535.485693193972
1711590203553,-7535.485693193972
1711590203593,-7535.485693193972
1711590203633,-7117.569464793429
1711590203673,-6479.244888685178
1711590203714,-4877.130653617205
1711590203753,-4518.439939389005
1711590203793,-4051.788104407722
1711590203833,-881.7542072366923
1711590203874,-392.38908194424585
1711590203914,-328.81007045158185
1711590203954,273.5156469694339
1711590203994,273.5156469694339
1711590204034,273.5156469694339
1711590204074,135.27678427984938
1711590204115,-328.81007045158185
1711590204154,-392.38908194424585
1711590204194,-4518.439939389005
1711590204234,-4518.439939389005
1711590204275,-4518.439939389005
1711590204315,-4518.439939389005
1711590204355,-4518.439939389005
1711590204395,-4518.439939389005
1711590204435,-5636.132575365482
1711590204475,-5636.132575365482
1711590204516,-5636.132575365482
1711590204555,-5636.132575365482
1711590204596,-5636.132575365482
1711590204636,-6279.108537401771
1711590204676,-7610.887886541896
1711590204716,-8553.825973954052
1711590204756,-8728.513939585537
1711590204796,-9436.677190208342
1711590204836,-9694.898784521502
1711590204876,-9749.034866567235
1711590204917,-10075.107313698158
1711590204956,-10256.082459068624
1711590204997,-10256.082459068624
1711590205037,-13598.272052161396
1711590205077,-13598.272052161396
1711590205118,-13598.272052161396
1711590205157,-13598.272052161396
1711590205197,-13598.272052161396
1711590205237,-13977.247857651673
1711590205278,-16079.718642615946
1711590205318,-16748.855425027898
1711590205358,-16834.15233410336
1711590205398,-17051.037762206048
1711590205438,-17051.037762206048
1711590205478,-17051.037762206048
1711590205519,-17051.037762206048
1711590205558,-16834.15233410336
1711590205599,-16748.855425027898
1711590205638,-16079.718642615946
1711590205679,-15313.95122753596
1711590205719,-14800.519580151187
1711590205759,-13977.247857651673
1711590205799,-10624.579785720445
1711590205839,-10052.016967853764
1711590205879,-10052.016967853764
1711590205920,-10624.579785720445
1711590205959,-14230.842085663928
1711590205999,-14800.519580151187
1711590206040,-15313.95122753596
1711590206080,-15313.95122753596
1711590206120,-15313.95122753596
1711590206160,-15313.95122753596
1711590206200,-14800.519580151187
1711590206240,-14419.047509395983
1711590206280,-14230.842085663928
1711590206321,-11480.57403006684
1711590206360,-10624.579785720445
1711590206400,-8221.190908104181
1711590206441,-8221.190908104181
1711590206480,-8221.190908104181
1711590206521,-11480.57403006684
1711590206561,-14230.842085663928
1711590206601,-14419.047509395983
1711590206641,-14466.166524515022
1711590206681,-16792.58353306516
1711590206722,-17026.457154968288
1711590206761,-17026.457154968288
1711590206801,-17026.457154968288
1711590206841,-17026.457154968288
1711590206881,-17026.457154968288
1711590206922,-17026.457154968288
1711590206961,-17225.152201405494
1711590207001,-17225.152201405494
1711590207042,-17225.152201405494
1711590207082,-17225.152201405494
1711590207122,-17225.152201405494
1711590207162,-17960.64134587231
1711590207202,-18102.46395021025
1711590207242,-18180.95458112657
1711590207282,-18675.637556211324
1711590207323,-19766.522449966054
1711590207362,-22284.154174040537
1711590207402,-22514.963917080546
1711590207442,-22908.889547751984
1711590207483,-23730.04447072395
1711590207523,-23730.04447072395
1711590207563,-22844.43152032257
1711590207603,-22514.963917080546
1711590207643,-22514.963917080546
1711590207683,-22514.963917080546
1711590207724,-21060.93361868523
1711590207763,-21060.93361868523
1711590207803,-21060.93361868523
1711590207843,-22784.980273122434
1711590207883,-22844.43152032257
1711590207924,-22844.43152032257
1711590207964,-22844.43152032257
1711590208004,-22784.980273122434
1711590208044,-22392.506849588826
1711590208084,-21060.93361868523
1711590208125,-20968.62133010337
1711590208164,-20004.12935045245
1711590208204,-19383.48396197008
1711590208244,-19245.238342118915
1711590208284,-19061.47489825636
1711590208325,-18811.29356446443
1711590208364,-17895.006864654366
1711590208404,-17374.802951692604
1711590208445,-16611.090681138914
1711590208485,-16611.090681138914
1711590208525,-16611.090681138914
1711590208565,-16611.090681138914
1711590208605,-16611.090681138914
1711590208645,-16270.460982375778
1711590208685,-15921.039670185186
1711590208726,-15253.946759372018
1711590208765,-14626.892656431533
1711590208805,-13256.928792527411
1711590208846,-11926.857756434707
1711590208886,-11167.874529452063
1711590208926,-10178.48639464844
1711590208966,-8672.606000327505
1711590209006,-5308.39736493933
1711590209046,-4217.29747259384
1711590209086,-3131.209236235358
1711590209127,-1005.0288806210738
1711590209166,-1005.0288806210738
1711590209206,-227.82559342798777
1711590209246,-227.82559342798777
1711590209286,-19.822350409347564
1711590209327,3077.98366643209
1711590209367,7844.011819419218
1711590209407,14819.585631092777
1711590209447,17743.415385660017
1711590209487,20642.78631480504
1711590209528,21022.77841107594
1711590209567,21330.6889453833
1711590209604,21509.35358717898
1711590209644,21656.491460170597
1711590209684,24061.396440846846
1711590209725,26141.923612332204
1711590209764,38198.08392949798
1711590209805,51525.07020363328
1711590209845,59316.78024724801
1711590209885,59316.78024724801
1711590209926,59316.78024724801
1711590209965,59316.78024724801
1711590210005,59316.78024724801
1711590210045,64286.755118724424
1711590210085,65748.99663777137
1711590210126,65748.99663777137
1711590210166,65895.24124213238
1711590210205,66140.23010617541
1711590210246,66140.23010617541
1711590210286,66781.34640670405
1711590210327,67719.96421848028
1711590210366,66781.34640670405
1711590210406,66781.34640670405
1711590210446,66781.34640670405
1711590210486,65895.24124213238
1711590210527,65544.97833812842
1711590210566,64407.241209796164
1711590210606,56376.79065465508
1711590210647,56376.79065465508
1711590210687,54343.90586026898
1711590210727,54343.90586026898
1711590210767,54343.90586026898
1711590210807,54343.90586026898
1711590210847,51093.59711588477
1711590210887,49967.08916627965
1711590210928,49532.40330077801
1711590210967,48113.821693364065
1711590211008,46391.86348923063
1711590211048,41226.99966665357
1711590211088,38097.820048343856
1711590211129,36584.07812490943
1711590211168,36584.07812490943
1711590211208,36584.07812490943
1711590211248,36584.07812490943
1711590211288,30571.77520968439
1711590211329,27556.332696182653
1711590211369,27466.177667999873
1711590211409,26004.89062152384
1711590211449,22921.803200626746
1711590211489,22921.803200626746
1711590211530,22921.803200626746
1711590211569,22921.803200626746
1711590211609,22921.803200626746
1711590211649,24602.113362303935
1711590211689,26004.89062152384
1711590211730,27109.626290696207
1711590211769,27109.626290696207
1711590211810,27109.626290696207
1711590211850,27109.626290696207
1711590211890,27109.626290696207
1711590211931,27109.626290696207
1711590211970,27109.626290696207
1711590212010,25541.298028729856
1711590212050,24602.113362303935
1711590212090,24602.113362303935
