Timestamp,Cleaned PPG
1712124649093,0.0
1712124649134,0.0
1712124649173,0.0
1712124649213,0.0
1712124649253,0.0
1712124649294,0.0
1712124649335,0.0
1712124649374,0.0
1712124649414,0.0
1712124649454,0.0
1712124649494,0.0
1712124649535,0.0
1712124649574,0.0
1712124649614,0.0
1712124649655,0.0
1712124649694,0.0
1712124649736,0.0
1712124649775,0.0
1712124649815,0.0
1712124649855,0.0
1712124649895,0.0
1712124649936,0.0
1712124649975,0.0
1712124650015,0.0
1712124650055,0.0
1712124650095,0.0
1712124650137,0.0
1712124650176,0.0
1712124650218,0.0
1712124650256,0.0
1712124650296,0.0
1712124650337,0.0
1712124650376,1123035.9016656282
1712124650416,1123035.9016656282
1712124650456,1123035.9016656282
1712124650497,1123035.9016656282
1712124650537,1123035.9016656282
1712124650577,1123035.9016656282
1712124650617,1123035.9016656282
1712124650657,1123035.9016656282
1712124650697,1123035.9016656282
1712124650738,1123035.9016656282
1712124650777,1123035.9016656282
1712124650817,1053446.8765382916
1712124650858,987847.9556227461
1712124650898,929021.4523461098
1712124650939,873763.7461937824
1712124650978,822725.5802407986
1712124651019,771006.2578560268
1712124651058,718175.0405007908
1712124651098,663654.8089303253
1712124651139,624715.2452723277
1712124651178,591511.0864178888
1712124651219,558354.03217221
1712124651259,522761.2256769191
1712124651299,491017.14606141415
1712124651340,468471.7973527461
1712124651379,445258.298524942
1712124651419,398779.1556845431
1712124651459,374535.70101257786
1712124651499,350480.7440012549
1712124651540,312753.80655308464
1712124651580,292159.24094945984
1712124651620,278670.7871719219
1712124651660,266651.14539259346
1712124651700,251682.01411104086
1712124651741,230405.50574731128
1712124651780,221741.7097886291
1712124651820,218895.28188563185
1712124651860,212529.9776360239
1712124651900,203012.4339272594
1712124651941,193125.34189601126
1712124651981,186432.2971385112
1712124652022,180027.6701776865
1712124652061,176093.1558583565
1712124652101,174099.63204896473
1712124652142,170881.76407168922
1712124652181,170407.62517275685
1712124652222,162196.20936169662
1712124652262,156071.14396984875
1712124652302,151335.35564887244
1712124652342,150130.88545775926
1712124652382,149271.49945411878
1712124652425,148286.97493455512
1712124652462,119947.55601647776
1712124652502,93194.07269416051
1712124652543,82059.03784583835
1712124652583,78068.07095861528
1712124652623,76273.16892255913
1712124652663,74919.80886793835
1712124652703,71426.54878882808
1712124652744,64706.29276558198
1712124652783,64626.332448395435
1712124652823,63361.28050723346
1712124652863,62159.41305297613
1712124652904,59256.21437984705
1712124652944,56610.09214754985
1712124652984,56553.922952745575
1712124653025,52997.65745175816
1712124653064,46525.553584097885
1712124653104,40283.23492124397
1712124653145,28719.66273551993
1712124653184,22932.241777619347
1712124653225,20439.44368616026
1712124653265,13381.760592084378
1712124653305,8293.6370548876
1712124653346,3323.896341464948
1712124653385,2274.2018872927874
1712124653425,2274.2018872927874
1712124653465,2274.2018872927874
1712124653506,2274.2018872927874
1712124653546,2274.2018872927874
1712124653586,2274.2018872927874
1712124653626,2274.2018872927874
1712124653666,2274.2018872927874
1712124653706,2274.2018872927874
1712124653747,2274.2018872927874
1712124653786,2274.2018872927874
1712124653826,12622.174873427022
1712124653867,12622.174873427022
1712124653907,12622.174873427022
1712124653947,12622.174873427022
1712124653987,12622.174873427022
1712124654028,12622.174873427022
1712124654067,12622.174873427022
1712124654107,12622.174873427022
1712124654148,12622.174873427022
1712124654188,12622.174873427022
1712124654228,12622.174873427022
1712124654268,12330.930699945427
1712124654308,11386.227291029878
1712124654349,11007.089412312955
1712124654388,10882.635442815255
1712124654428,10838.602413042448
1712124654469,10830.524755420629
1712124654509,10727.108822112437
1712124654549,10589.032506688498
1712124654589,10541.474211859051
1712124654629,10378.6478520073
1712124654669,10218.323316603899
1712124654709,9746.031861780211
1712124654750,9111.784915768076
1712124654790,7990.756526400335
1712124654830,6610.80177086778
1712124654870,6610.80177086778
1712124654910,6610.80177086778
1712124654951,6302.034277846105
1712124654990,6302.034277846105
1712124655032,6302.034277846105
1712124655071,6302.034277846105
1712124655111,6302.034277846105
1712124655151,6153.180542579386
1712124655191,6050.154100045562
1712124655231,5940.54827330308
1712124655271,5597.649635731243
1712124655311,5403.745601473842
1712124655352,5403.745601473842
1712124655392,5403.745601473842
1712124655432,5403.745601473842
1712124655472,5403.745601473842
1712124655512,5403.745601473842
1712124655553,5403.745601473842
1712124655592,5101.616065336391
1712124655632,4967.758319541812
1712124655673,4967.758319541812
1712124655713,4967.758319541812
1712124655754,4967.758319541812
1712124655794,4967.758319541812
1712124655834,4967.758319541812
1712124655874,4967.758319541812
1712124655914,4359.306189075112
1712124655955,4092.675274454057
1712124655994,3924.798443595879
1712124656035,3803.003862236161
1712124656074,3697.637651797384
1712124656114,3697.637651797384
1712124656155,3697.637651797384
1712124656195,3697.637651797384
1712124656235,3697.637651797384
1712124656275,3697.637651797384
1712124656315,3697.637651797384
1712124656355,2827.217378512025
1712124656395,1827.2502732379362
1712124656435,1827.2502732379362
1712124656475,1827.2502732379362
1712124656515,1827.2502732379362
1712124656556,1827.2502732379362
1712124656595,1827.2502732379362
1712124656636,1827.2502732379362
1712124656676,1486.0592592293397
1712124656716,1359.9148591072299
1712124656757,1251.8581702765077
1712124656796,1021.2686454332434
1712124656836,954.5229174187407
1712124656876,954.5229174187407
1712124656916,954.5229174187407
1712124656957,954.5229174187407
1712124656996,954.5229174187407
1712124657038,954.5229174187407
1712124657076,803.4701922107488
1712124657117,52.5407000631094
1712124657157,-1173.5225598108955
1712124657197,-1575.5608199443668
1712124657237,-1575.5608199443668
1712124657277,-1575.5608199443668
1712124657317,-1575.5608199443668
1712124657358,-1575.5608199443668
1712124657397,-1575.5608199443668
1712124657437,-1731.17960843537
1712124657477,-1803.5463408315554
1712124657517,-2032.684889272321
1712124657558,-2091.9248192720115
1712124657598,-2121.3986490806565
1712124657638,-2121.3986490806565
1712124657678,-2351.5336179323494
1712124657718,-2526.2837336766534
1712124657759,-2538.3370840856805
1712124657798,-2869.591751032509
1712124657838,-2923.727561573498
1712124657878,-3483.178562844172
1712124657918,-3616.5666182716377
1712124657959,-3616.5666182716377
1712124657999,-3616.5666182716377
1712124658040,-3616.5666182716377
1712124658079,-3616.5666182716377
1712124658119,-3616.5666182716377
1712124658160,-3616.5666182716377
1712124658199,-3616.5666182716377
1712124658239,-3797.1850756229833
1712124658279,-3894.9767102170736
1712124658320,-4074.7446228829212
1712124658360,-4074.7446228829212
1712124658400,-4074.7446228829212
1712124658440,-4074.7446228829212
1712124658480,-4074.7446228829212
1712124658520,-4074.7446228829212
1712124658561,-4074.7446228829212
1712124658600,-3974.5338621083647
1712124658640,-3894.9767102170736
1712124658681,-3616.5666182716377
1712124658721,-3616.5666182716377
1712124658762,-3606.515063574072
1712124658801,-3606.515063574072
1712124658841,-3606.515063574072
1712124658881,-3606.515063574072
1712124658921,-3606.515063574072
1712124658962,-3974.5338621083647
1712124659001,-4321.303964075632
1712124659042,-4350.920927109662
1712124659082,-4361.748023473658
1712124659122,-4361.748023473658
1712124659163,-4350.920927109662
1712124659202,-4349.285107552074
1712124659242,-4349.285107552074
1712124659282,-4349.285107552074
1712124659322,-4311.361015268136
1712124659363,-3974.5338621083647
1712124659402,-3915.6674090735614
1712124659442,-3796.786069025751
1712124659482,-3796.786069025751
1712124659523,-3796.786069025751
1712124659563,-3796.786069025751
1712124659603,-3915.6674090735614
1712124659643,-3938.3329281769693
1712124659683,-4311.361015268136
1712124659723,-4349.285107552074
1712124659764,-4431.8522839117795
1712124659803,-4497.878089676611
1712124659844,-4497.878089676611
1712124659884,-4497.878089676611
1712124659924,-4497.878089676611
1712124659965,-4497.878089676611
1712124660004,-4651.146856575273
1712124660044,-4975.197145041078
1712124660084,-5485.600969182793
1712124660125,-5577.95542313531
1712124660165,-5577.95542313531
1712124660205,-5577.95542313531
1712124660245,-5577.95542313531
1712124660285,-5577.95542313531
1712124660325,-5661.617975989357
1712124660366,-5736.372489666566
1712124660405,-5896.737169907428
1712124660445,-6269.951777734794
1712124660485,-6567.583509181626
1712124660525,-6730.098841864616
1712124660566,-6756.190105132759
1712124660606,-6784.820234175306
1712124660646,-6825.913166165352
1712124660686,-6825.913166165352
1712124660726,-6784.820234175306
1712124660767,-6269.951777734794
1712124660806,-6181.481222925708
1712124660846,-5736.372489666566
1712124660886,-5661.617975989357
1712124660927,-5661.617975989357
1712124660968,-5661.617975989357
1712124661007,-5661.617975989357
1712124661048,-5661.617975989357
1712124661087,-6181.481222925708
1712124661180,-6591.658441522159
1712124661221,-6825.913166165352
1712124661261,-6845.253198419698
1712124661301,-6845.253198419698
1712124661341,-6845.253198419698
1712124661381,-6845.253198419698
1712124661422,-6845.253198419698
1712124661461,-6845.253198419698
1712124661501,-6845.253198419698
1712124661541,-6845.253198419698
1712124661582,-7534.522841643076
1712124661623,-7534.522841643076
1712124661662,-7534.522841643076
1712124661702,-7534.522841643076
1712124661742,-7534.522841643076
1712124661782,-7534.522841643076
1712124661823,-7534.522841643076
1712124661863,-7534.522841643076
1712124661903,-7534.522841643076
1712124661943,-7534.522841643076
1712124661983,-7534.522841643076
1712124662024,-6883.645456832834
1712124662063,-6686.716285773087
1712124662103,-6642.339867664035
1712124662143,-6571.597799925134
1712124662184,-6413.970624948852
1712124662224,-6169.663740674499
1712124662264,-6078.939989413135
1712124662304,-5823.920666403137
1712124662344,-5786.989843227901
1712124662384,-5648.316480269656
1712124662425,-5583.207861512434
1712124662465,-5303.824809196405
1712124662505,-4909.025432684459
1712124662545,-4592.3277848702855
1712124662585,-4545.764507203363
1712124662626,-4545.764507203363
1712124662665,-4545.764507203363
1712124662705,-4545.764507203363
1712124662745,-4342.298354394734
1712124662785,-3362.7270451551303
1712124662826,-3153.0642288383096
1712124662866,-3153.0642288383096
1712124662906,-3153.0642288383096
1712124662946,-3009.98143150378
1712124662986,-2978.39220871171
1712124663027,-2765.057553219609
1712124663066,-2697.7445052592084
1712124663106,-2353.2228341931477
1712124663146,-2142.3883604882285
1712124663186,-2135.9095721570775
1712124663227,-2075.9817052278668
1712124663266,-1860.967341019772
1712124663307,-1860.967341019772
1712124663347,-1860.967341019772
1712124663387,-1860.967341019772
1712124663428,-1860.967341019772
1712124663467,-1860.967341019772
1712124663507,-1860.967341019772
1712124663547,-1860.967341019772
1712124663587,-1860.967341019772
1712124663628,-1860.967341019772
1712124663668,-1860.967341019772
1712124663708,-1705.2661603484303
1712124663748,-1705.2661603484303
1712124663788,-1705.2661603484303
1712124663829,-1648.2208722280338
1712124663868,-1499.6486314628273
1712124663909,-1433.1404960583895
1712124663949,-1409.3702029064298
1712124663989,-1350.0602965541184
1712124664030,-1190.7999135022983
1712124664070,-982.1239694971591
1712124664111,-982.1239694971591
1712124664150,-982.1239694971591
1712124664190,-982.1239694971591
1712124664231,-982.1239694971591
1712124664271,-982.1239694971591
1712124664311,-982.1239694971591
1712124664351,-754.8066731877625
1712124664391,-611.8061659922823
1712124664432,208.97941240807995
1712124664472,338.123283399269
1712124664512,1393.3694361560047
1712124664552,2784.465078691952
1712124664592,3342.601030443795
1712124664633,4068.8666427070275
1712124664673,4339.678772327956
1712124664713,4712.80911434954
1712124664753,4736.507325616665
1712124664793,5048.979416021146
1712124664834,5192.1334749646485
1712124664874,5379.20453268569
1712124664914,5532.885114717763
1712124664955,5579.17270788271
1712124664995,5983.917414074764
1712124665036,6231.50979130622
1712124665075,6314.408655046485
1712124665116,6694.423962077592
1712124665156,6696.7505996790715
1712124665196,6867.302283593919
1712124665237,6952.910979011096
1712124665277,7196.251236055978
1712124665317,7367.5972856506705
1712124665357,7425.345516289119
1712124665397,8196.782236238476
1712124665438,8312.238656900823
1712124665478,8312.238656900823
1712124665518,8384.807297074702
1712124665558,8397.21127505228
1712124665599,8428.349631110206
1712124665640,8570.293670883402
1712124665679,9119.724100168794
1712124665719,9191.983772921842
1712124665760,9279.055194745772
1712124665800,9360.505769008305
1712124665841,9410.092897486873
1712124665880,9410.092897486873
1712124665921,9410.092897486873
1712124665962,9410.092897486873
1712124666002,9360.505769008305
1712124666043,9279.055194745772
1712124666082,9279.055194745772
1712124666123,9279.055194745772
1712124666163,9279.055194745772
1712124666203,9279.055194745772
1712124666244,9279.055194745772
1712124666284,9279.055194745772
1712124666324,9279.055194745772
1712124666364,9191.983772921842
1712124666404,9020.410903433803
1712124666445,8969.839590977877
1712124666485,8931.376626683865
1712124666525,8860.896100120153
1712124666565,8398.321208728477
1712124666606,8379.010005816352
1712124666647,8317.983233024366
1712124666686,8014.475456125103
1712124666726,7993.935197826009
1712124666767,7753.10049566254
1712124666807,7725.867333538365
1712124666847,7665.425804284401
1712124666887,7566.914206715301
1712124666927,7566.914206715301
1712124666967,7566.914206715301
1712124667007,7566.914206715301
1712124667048,7566.914206715301
1712124667088,7566.914206715301
1712124667129,7725.867333538365
1712124667168,7753.10049566254
1712124667208,7993.935197826009
1712124667249,8014.475456125103
1712124667289,8014.475456125103
1712124667329,8697.161720417906
1712124667369,10617.90202769544
1712124667409,11706.690456825309
1712124667450,12729.981836391613
1712124667490,13039.899156330153
1712124667530,13512.268148963805
1712124667570,14331.61141103413
1712124667610,14866.421863163356
1712124667651,15247.32475061249
1712124667690,15247.32475061249
1712124667731,15247.32475061249
1712124667771,15247.32475061249
1712124667811,15247.32475061249
1712124667852,15247.32475061249
1712124667892,15247.32475061249
1712124667932,15247.32475061249
1712124667972,15247.32475061249
1712124668012,15247.32475061249
1712124668053,15247.32475061249
1712124668092,14988.25664138794
1712124668133,14442.8718851991
1712124668173,14093.674929778092
1712124668213,14030.025267052464
1712124668254,13930.756853569299
1712124668294,13680.903138997499
1712124668334,13304.716911166906
1712124668374,13170.662819510326
1712124668415,12818.00121375639
1712124668456,12443.14832535386
1712124668496,12312.003748453222
1712124668536,12307.092739819083
1712124668576,12106.670378811657
1712124668616,11242.57181870751
1712124668657,11089.54761666432
1712124668697,11015.593406718224
1712124668737,10926.974177238997
1712124668777,10457.065154558513
1712124668817,9905.128116559703
1712124668859,8064.089906379115
1712124668898,6963.06511277426
1712124668938,5830.148789923638
1712124668979,5234.734302549623
1712124669019,4964.790731343441
1712124669060,4700.2128147822805
1712124669099,4689.288359879982
1712124669139,4689.288359879982
1712124669180,4689.288359879982
1712124669220,4635.474168623798
1712124669261,4459.248295926489
1712124669301,4275.727585992776
1712124669341,4262.3144346401095
1712124669381,4228.261705988087
1712124669421,4012.0037083514035
1712124669462,4002.5899747582152
1712124669502,3949.9416544428095
1712124669542,3881.8636724571697
1712124669582,3881.8636724571697
1712124669622,3638.568870065734
1712124669663,2695.8286240422167
1712124669703,1883.947945155669
1712124669743,1047.5807808903046
1712124669783,-169.98064745636657
1712124669824,-1183.770050888881
1712124669865,-1183.770050888881
1712124669904,-1183.770050888881
1712124669945,-1183.770050888881
1712124669985,-1183.770050888881
1712124670025,-1210.7934677619487
1712124670066,-1318.9976492845453
1712124670106,-1487.5928267468698
1712124670147,-1534.5344832576811
1712124670186,-1612.4590187137946
1712124670226,-1854.59477161197
1712124670267,-1881.5582038322464
1712124670307,-2132.3573078117333
1712124670347,-2208.5244532693177
1712124670387,-2256.65074674692
1712124670427,-2739.9344097012654
1712124670468,-2983.164181689732
1712124670508,-5095.808257614262
1712124670548,-5835.439843676519
1712124670588,-5852.160413876176
1712124670628,-6377.302275475115
1712124670669,-6377.302275475115
1712124670708,-6377.302275475115
1712124670749,-6377.302275475115
1712124670789,-6377.302275475115
1712124670829,-6377.302275475115
1712124670870,-6789.531088237651
1712124670910,-7000.9460263545625
1712124670950,-7140.579709830694
1712124670990,-7261.6983816847205
1712124671030,-7261.6983816847205
1712124671071,-7261.6983816847205
1712124671110,-7323.780529770069
1712124671151,-7323.780529770069
1712124671191,-7725.006175610237
1712124671231,-8061.775283141062
1712124671272,-8342.9425263796
1712124671311,-9390.387010302395
1712124671351,-10844.46955278702
1712124671392,-12181.473216097802
1712124671432,-12951.65331965778
1712124671473,-13118.672550858464
1712124671512,-13118.672550858464
1712124671552,-13118.672550858464
1712124671593,-13118.672550858464
1712124671633,-13118.672550858464
1712124671674,-13118.672550858464
1712124671713,-13118.672550858464
1712124671754,-13397.993188980035
1712124671794,-13609.862171175424
1712124671834,-13962.906762107275
1712124671875,-13992.005561982282
1712124671915,-14271.314782082103
1712124671955,-14975.65699960012
1712124671995,-15042.709984689951
1712124672035,-15042.709984689951
1712124672076,-15042.709984689951
1712124672116,-15042.709984689951
1712124672156,-15042.709984689951
1712124672196,-15042.709984689951
1712124672237,-14975.65699960012
1712124672278,-14975.65699960012
1712124672317,-14975.65699960012
1712124672358,-14975.65699960012
1712124672398,-14975.65699960012
1712124672438,-14975.65699960012
1712124672479,-14975.65699960012
1712124672518,-14975.65699960012
1712124672559,-14975.65699960012
1712124672599,-14975.65699960012
1712124672639,-14937.701175560709
1712124672680,-14029.020566333085
1712124672720,-12741.542361298576
1712124672760,-12573.657811516896
1712124672800,-12573.657811516896
1712124672841,-12573.657811516896
1712124672881,-12573.657811516896
1712124672921,-12573.657811516896
1712124672961,-12023.223798894323
1712124673002,-11861.692025464028
1712124673042,-11786.075200977735
1712124673083,-11521.954432829283
1712124673122,-11411.78014862677
1712124673164,-11355.038081045263
1712124673203,-11093.550183971412
1712124673249,-11093.550183971412
1712124673290,-11093.550183971412
1712124673329,-11093.550183971412
1712124673369,-11093.550183971412
1712124673409,-11093.550183971412
1712124673450,-11093.550183971412
1712124673490,-10374.072140139062
1712124673530,-10028.321727138013
1712124673570,-10007.859789912589
1712124673610,-9999.554638974834
1712124673650,-9639.305470657535
1712124673691,-9586.365373253822
1712124673730,-9265.537059902214
1712124673770,-9065.23607629072
1712124673811,-8931.676210932434
1712124673851,-8752.469057469629
1712124673891,-8488.54383992264
1712124673931,-8366.00133850472
1712124673971,-7897.405648954213
1712124674011,-7442.411091245245
1712124674051,-7010.295652852394
1712124674092,-7010.295652852394
1712124674131,-7010.295652852394
1712124674171,-7897.405648954213
1712124674211,-7243.125848655589
1712124674251,-7243.125848655589
1712124674292,-7243.125848655589
1712124674332,-7243.125848655589
1712124674372,-7243.125848655589
1712124674412,-7170.543065056205
1712124674452,-7010.295652852394
1712124674492,-6985.521243598312
1712124674532,-6642.886696226429
1712124674572,-6401.165491648484
1712124674612,-6073.563739654608
1712124674652,-6007.590415596496
1712124674693,-6007.590415596496
1712124674732,-6007.590415596496
1712124674772,-6007.590415596496
1712124674812,-6007.590415596496
1712124674852,-6401.165491648484
1712124674893,-6642.886696226429
1712124674933,-6985.521243598312
1712124674973,-7170.543065056205
1712124675013,-7170.543065056205
1712124675053,-7170.543065056205
1712124675094,-7170.543065056205
1712124675133,-7170.543065056205
1712124675173,-7170.543065056205
1712124675213,-7170.543065056205
1712124675253,-7180.631903029978
1712124675294,-9327.325929538812
1712124675333,-10567.34322608728
1712124675374,-10567.34322608728
1712124675414,-10567.34322608728
1712124675454,-10567.34322608728
1712124675494,-10567.34322608728
1712124675534,-10567.34322608728
1712124675574,-10567.34322608728
1712124675614,-10567.34322608728
1712124675654,-10567.34322608728
1712124675695,-10567.34322608728
1712124675734,-10595.162914616987
1712124675774,-10595.162914616987
1712124675814,-10595.162914616987
1712124675855,-10595.162914616987
1712124675895,-10567.34322608728
1712124675935,-10422.849874227773
1712124675975,-10187.982315573841
1712124676015,-9905.127804736607
1712124676055,-9612.880015261006
1712124676096,-9567.919869136997
1712124676135,-8890.975270730443
1712124676177,-8874.982054723427
1712124676216,-8711.306791034527
1712124676256,-7926.137628071941
1712124676296,-7926.137628071941
1712124676336,-7826.77984622214
1712124676376,-7826.77984622214
1712124676416,-7826.77984622214
1712124676456,-7826.77984622214
1712124676497,-6479.250521540176
1712124676536,-6479.250521540176
1712124676576,-6479.250521540176
1712124676616,-6479.250521540176
1712124676656,-6479.250521540176
1712124676697,-6479.250521540176
1712124676737,-6479.250521540176
1712124676777,-6479.250521540176
1712124676817,-6479.250521540176
1712124676857,-6479.250521540176
1712124676898,-6423.718613579404
1712124676937,-6361.149069201667
1712124676977,-6361.149069201667
1712124677017,-6361.149069201667
1712124677057,-6361.149069201667
1712124677098,-6361.149069201667
1712124677137,-6361.149069201667
1712124677178,-6361.149069201667
1712124677218,-6361.149069201667
1712124677258,-6361.149069201667
1712124677299,-6361.149069201667
1712124677338,-5989.4690353425685
1712124677378,-5731.893051845953
1712124677418,-5605.042217370821
1712124677458,-5218.499173083343
1712124677499,-5217.098976531532
1712124677539,-5027.594869688386
1712124677578,-4789.4283959446475
1712124677618,-4762.2705931770615
1712124677659,-4615.799971370958
1712124677699,-3780.5363938636146
1712124677739,-3451.8298362083733
1712124677779,-3309.2623643735424
1712124677819,-3013.4658122537658
1712124677859,-2111.994347483851
1712124677900,-1717.62757699145
1712124677939,-1717.62757699145
1712124677979,-1717.62757699145
1712124678020,-1717.62757699145
1712124678059,-1717.62757699145
1712124678100,-1717.62757699145
1712124678140,-1717.62757699145
1712124678180,-1150.8237895776983
1712124678220,-1150.8237895776983
1712124678260,-1061.6061750610825
1712124678301,-845.6915052896366
1712124678340,-845.6915052896366
1712124678380,-845.6915052896366
1712124678420,-845.6915052896366
1712124678460,-845.6915052896366
1712124678501,-625.5006605314557
1712124678541,-590.9640876117628
1712124678581,-590.9640876117628
1712124678621,-590.9640876117628
1712124678661,-590.9640876117628
1712124678702,-590.9640876117628
1712124678741,-590.9640876117628
1712124678781,-590.9640876117628
1712124678821,-845.6915052896366
1712124678861,-1061.6061750610825
1712124678902,-1061.6061750610825
1712124678942,-1061.6061750610825
1712124678982,-1061.6061750610825
1712124679022,-1112.0874955118634
1712124679062,-1112.0874955118634
1712124679103,-1152.998722820077
1712124679142,-1335.2431798879988
1712124679184,-1507.8865409852006
1712124679222,-1969.608968523331
1712124679262,-2179.2310063717887
1712124679303,-2179.2310063717887
1712124679343,-2179.2310063717887
1712124679383,-2179.2310063717887
1712124679423,-2179.2310063717887
1712124679463,-2179.2310063717887
1712124679504,-2179.2310063717887
1712124679543,-2179.2310063717887
1712124679584,-2179.2310063717887
1712124679624,-2179.2310063717887
1712124679664,-2179.2310063717887
1712124679705,-1764.7694285826292
1712124679744,324.19442559592426
1712124679784,1011.739572623279
1712124679824,1999.7915732027031
1712124679864,2510.7745794351213
1712124679905,2618.020959715126
1712124679945,2837.342702716356
1712124679984,3444.403058677446
1712124680025,3505.4482115504798
1712124680065,3764.9627778870054
1712124680106,3870.8942558746785
1712124680145,4544.706763578812
1712124680185,4998.283933399245
1712124680225,5663.996451566927
1712124680265,5814.580906571355
1712124680306,6087.8530979231
1712124680346,6372.483805078082
1712124680386,6426.28428789461
1712124680426,7140.405119719217
1712124680466,7259.983224207303
1712124680507,8993.49638198223
1712124680546,8993.49638198223
1712124680586,9868.820430109976
1712124680626,10376.297814059537
1712124680667,10423.766039351933
1712124680707,11754.358995781513
1712124680747,11789.016690672841
1712124680787,11937.490582424682
1712124680827,12514.515717658214
1712124680867,12993.972342060879
1712124680908,12993.972342060879
1712124680947,12993.972342060879
1712124680988,12993.972342060879
1712124681028,12993.972342060879
1712124681068,12993.972342060879
1712124681109,12514.515717658214
1712124681149,12106.996416200418
1712124681189,11942.586300604977
1712124681229,11937.490582424682
1712124681270,11882.646127261221
1712124681311,11789.016690672841
1712124681351,11679.938536968548
1712124681391,11679.938536968548
1712124681431,11679.938536968548
1712124681471,11629.557521732524
1712124681512,11369.995570749976
1712124681551,11125.781939488836
1712124681591,8409.033175181597
1712124681631,6068.942759803962
1712124681671,4962.118341701571
1712124681712,3745.7274295398965
1712124681752,3509.3182341177016
1712124681792,2317.2253390685655
1712124681832,1625.8031551749445
1712124681872,1479.2745956359431
1712124681913,1189.6150238653645
1712124681953,965.406118851155
1712124681993,513.6963865119033
1712124682033,355.21102690603584
1712124682073,-341.8028645645827
1712124682114,-502.0324377436191
1712124682153,-867.6956054330803
1712124682195,-1597.9972990835086
1712124682234,-1856.4520918070339
1712124682274,-1964.5359699130058
1712124682315,-1987.8577008368447
1712124682355,-2993.524114803411
1712124682394,-6230.384891718626
1712124682435,-7455.318890004884
1712124682475,-7455.318890004884
1712124682516,-7455.318890004884
1712124682555,-7455.318890004884
1712124682596,-7455.318890004884
1712124682635,-7455.318890004884
1712124682676,-7455.318890004884
1712124682717,-7455.318890004884
1712124682756,-7455.318890004884
1712124682796,-7455.318890004884
1712124682837,-7455.318890004884
1712124682877,-6246.777695834637
1712124682918,-5641.621245755814
1712124682957,-5641.621245755814
1712124682997,-5641.621245755814
1712124683038,-5641.621245755814
1712124683078,-5641.621245755814
1712124683119,-5641.621245755814
1712124683158,-5641.621245755814
1712124683199,-5641.621245755814
1712124683239,-5641.621245755814
1712124683279,-5174.97772283433
1712124683320,-4681.719809134491
1712124683360,-4591.547179439105
1712124683400,-4591.547179439105
1712124683444,-4591.547179439105
1712124683484,-4591.547179439105
1712124683525,-4591.547179439105
1712124683565,-4591.547179439105
1712124683605,-4591.547179439105
1712124683645,-4591.547179439105
1712124683686,-3925.882955532521
1712124683726,-3183.1414931192994
1712124683766,-2789.4212758420035
1712124683806,-2582.589734255336
1712124683846,-2384.6025424008258
1712124683887,-2384.6025424008258
1712124683928,-2384.6025424008258
1712124683967,-2384.6025424008258
1712124684008,-2197.772418054752
1712124684048,-2125.3401018590666
1712124684088,-2120.4666783325374
1712124684129,-1955.5274526746944
1712124684169,-1561.6276182606816
1712124684209,-1329.334263201803
1712124684249,-610.6126975473017
1712124684290,-610.6126975473017
1712124684330,-610.6126975473017
1712124684370,-610.6126975473017
1712124684410,-610.6126975473017
1712124684450,-610.6126975473017
1712124684491,-610.6126975473017
1712124684532,-610.6126975473017
1712124684571,-610.6126975473017
1712124684611,-610.6126975473017
1712124684652,-610.6126975473017
1712124684692,-610.6126975473017
1712124684732,-610.6126975473017
1712124684772,-526.7036647582427
1712124684812,-427.0817051269114
1712124684852,-11.33091560518369
1712124684892,104.99169776123017
1712124684933,604.484188798815
1712124684973,604.484188798815
1712124685013,604.484188798815
1712124685053,604.484188798815
1712124685093,604.484188798815
1712124685134,309.7417605719529
1712124685174,104.99169776123017
1712124685215,-427.0817051269114
1712124685254,-526.7036647582427
1712124685290,-656.5895042023621
1712124685331,-790.9423231789842
1712124685370,-790.9423231789842
1712124685410,-790.9423231789842
1712124685450,-790.9423231789842
1712124685491,-790.9423231789842
1712124685531,-790.9423231789842
1712124685571,-1930.6480826763436
1712124685611,-3250.9683628589846
1712124685651,-3250.9683628589846
1712124685691,-3250.9683628589846
1712124685732,-3250.9683628589846
1712124685771,-3250.9683628589846
1712124685811,-3250.9683628589846
1712124685851,-3250.9683628589846
1712124685891,-3250.9683628589846
1712124685932,-3250.9683628589846
1712124685972,-3250.9683628589846
1712124686012,-3250.9683628589846
1712124686052,-2739.8233112525195
1712124686092,-2530.5433578584343
1712124686133,-2193.5174149265513
1712124686172,-2121.6369267413393
1712124686212,-2121.6369267413393
1712124686252,-2121.6369267413393
1712124686293,-2005.1269873743877
1712124686333,-1958.2069237865508
1712124686373,-1795.9311029370874
1712124686413,-1645.4371503158472
1712124686453,-1615.8896896904334
1712124686493,-1513.4117757193744
1712124686534,-1498.2047456889413
1712124686573,-1007.350110469386
1712124686613,-1320.7479932582937
1712124686653,-1513.4117757193744
1712124686694,-1615.8896896904334
1712124686734,-1645.4371503158472
1712124686774,-1795.9311029370874
1712124686814,-1958.2069237865508
1712124686854,-1958.2069237865508
1712124686894,-2005.1269873743877
1712124686935,-2121.6369267413393
1712124686974,-2164.429713981226
1712124687014,-2441.793012929149
1712124687055,-3478.337373177521
1712124687095,-3987.637770307716
1712124687135,-4286.7042075174395
1712124687175,-4286.7042075174395
1712124687215,-4286.7042075174395
1712124687255,-4286.7042075174395
1712124687295,-4286.7042075174395
1712124687336,-4286.7042075174395
1712124687375,-4286.7042075174395
1712124687416,-4402.177392811514
1712124687456,-4621.15203006193
1712124687496,-4644.225226797862
1712124687537,-5055.716525780503
1712124687576,-5055.716525780503
1712124687616,-5055.716525780503
1712124687656,-5055.716525780503
1712124687696,-5121.746236312203
1712124687737,-5121.746236312203
1712124687777,-5121.746236312203
1712124687817,-6045.311240126379
1712124687857,-8085.645066307392
1712124687897,-9311.632894746494
1712124687938,-9311.632894746494
1712124687977,-9311.632894746494
1712124688017,-9712.267387297004
1712124688057,-9712.267387297004
1712124688097,-9814.631845954107
1712124688138,-10449.258893997874
1712124688178,-10513.199013350066
1712124688219,-10604.492257723585
1712124688258,-10792.19996700855
1712124688298,-10792.19996700855
1712124688339,-10792.19996700855
1712124688378,-10792.19996700855
1712124688418,-10604.492257723585
1712124688459,-10513.199013350066
1712124688499,-10449.258893997874
1712124688539,-9814.631845954107
1712124688579,-9332.331811906537
1712124688619,-8988.285160870291
1712124688659,-8714.252797469962
1712124688699,-8393.130147419637
1712124688740,-6304.458744076546
1712124688780,-1099.595929545816
1712124688820,258.82819653954357
1712124688860,971.0271512393374
1712124688900,2645.49199933256
1712124688941,2797.858031665208
1712124688980,3073.131845360389
1712124689020,4317.125959352823
1712124689060,4694.527360670734
1712124689101,5159.063151382608
1712124689141,5511.718874119921
1712124689181,7502.851889979094
1712124689221,7502.851889979094
1712124689261,7502.851889979094
1712124689301,7502.851889979094
1712124689342,7589.660536227748
1712124689381,7977.446859723423
1712124689421,8827.157961447723
1712124689462,9443.684030155186
1712124689502,10086.7664235509
1712124689542,10257.497715042671
1712124689582,10742.697069549235
1712124689622,11091.905310217524
1712124689662,11102.652271016967
1712124689702,11102.652271016967
1712124689743,11102.652271016967
1712124689783,11102.652271016967
1712124689823,11091.905310217524
1712124689863,11091.905310217524
1712124689903,11091.905310217524
1712124689944,10497.07110515656
1712124689983,10497.07110515656
1712124690023,11102.652271016967
1712124690064,11102.652271016967
1712124690104,11102.652271016967
1712124690144,11102.652271016967
1712124690184,11102.652271016967
1712124690224,10497.07110515656
1712124690264,10086.7664235509
1712124690304,9408.690164039843
1712124690345,6655.092674495885
1712124690385,4863.983198477887
1712124690425,2257.296254077228
1712124690465,1069.9754499695264
1712124690505,254.90347124636173
1712124690546,-37.27412845520303
1712124690585,-520.8685987088829
1712124690625,-2035.7747007720172
1712124690666,-2424.0418693586253
1712124690706,-2517.3961967309006
1712124690746,-2616.5502055613324
1712124690786,-2845.85079263011
1712124690826,-4748.714821539354
1712124690866,-4748.714821539354
1712124690906,-4871.069424961694
1712124690947,-5398.313035003142
1712124690986,-5398.313035003142
1712124691026,-5414.1435537533835
1712124691066,-5697.658625280485
1712124691106,-5828.311190347187
1712124691147,-5828.311190347187
1712124691187,-7267.4331491398625
1712124691228,-7267.4331491398625
1712124691267,-7267.4331491398625
1712124691307,-7987.700431088684
1712124691347,-7987.700431088684
1712124691387,-7987.700431088684
1712124691427,-7987.700431088684
1712124691467,-7987.700431088684
1712124691507,-7575.126909947954
1712124691548,-7267.4331491398625
1712124691587,-7267.4331491398625
1712124691627,-7239.61597082857
1712124691667,-6352.344807364512
1712124691707,-6352.344807364512
1712124691748,-5258.782765797339
1712124691788,-4359.151682132389
1712124691828,-4320.4599045000505
1712124691868,-2158.1678384295665
1712124691908,-1830.437420128379
1712124691949,-1830.437420128379
1712124691988,-1834.9837229303084
1712124692028,-1834.9837229303084
1712124692068,-1834.9837229303084
1712124692108,-1834.9837229303084
1712124692149,-1834.9837229303084
1712124692188,-1834.9837229303084
1712124692229,-1834.9837229303084
1712124692269,-1686.4066069074906
1712124692309,-868.7291192221455
1712124692350,-700.1487851908896
1712124692389,-700.1487851908896
1712124692429,-700.1487851908896
1712124692469,-700.1487851908896
1712124692509,-700.1487851908896
1712124692550,-700.1487851908896
1712124692589,-700.1487851908896
1712124692629,-700.1487851908896
1712124692669,-644.2985579178203
1712124692710,761.745442584157
1712124692750,1120.3236613636836
1712124692790,1120.3236613636836
1712124692830,1120.3236613636836
1712124692870,1120.3236613636836
1712124692910,1120.3236613636836
1712124692951,1120.3236613636836
1712124692990,1120.3236613636836
1712124693030,1120.3236613636836
1712124693071,1120.3236613636836
1712124693111,1120.3236613636836
1712124693152,1120.3236613636836
1712124693191,346.38393033109605
1712124693231,346.38393033109605
1712124693271,346.38393033109605
1712124693312,346.38393033109605
1712124693352,346.38393033109605
1712124693392,346.38393033109605
1712124693432,346.38393033109605
1712124693472,346.38393033109605
1712124693512,346.38393033109605
1712124693553,346.38393033109605
1712124693593,346.38393033109605
1712124693633,1770.9924686467275
1712124693674,1951.5983307138085
1712124693714,1951.5983307138085
1712124693755,1951.5983307138085
1712124693794,1951.5983307138085
1712124693834,1951.5983307138085
1712124693875,1951.5983307138085
1712124693915,1951.5983307138085
1712124693956,1951.5983307138085
1712124693996,1951.5983307138085
1712124694036,1951.5983307138085
1712124694076,1900.036314769648
1712124694116,1770.9924686467275
1712124694157,1595.1677452172153
1712124694197,1595.1677452172153
1712124694238,1595.1677452172153
1712124694277,1595.1677452172153
1712124694318,1469.1998882456683
1712124694358,775.5971683233511
1712124694398,718.9485073050018
1712124694438,544.9992210324854
1712124694479,229.5461480836384
1712124694519,-259.6377275038976
1712124694560,-832.4898707161192
1712124694599,-981.4094491712749
1712124694640,-855.1301770065911
1712124694680,-832.4898707161192
1712124694720,-832.4898707161192
1712124694761,-832.4898707161192
1712124694800,-832.4898707161192
1712124694841,229.5461480836384
1712124694881,812.2919873411302
1712124694921,1469.1998882456683
1712124694962,1469.1998882456683
1712124695002,1703.9099804949947
1712124695042,2282.7079886484426
1712124695082,2282.7079886484426
1712124695123,2296.247427326627
1712124695164,2296.247427326627
1712124695203,2296.247427326627
1712124695243,2296.247427326627
1712124695284,2296.247427326627
1712124695324,2296.247427326627
1712124695365,2296.247427326627
1712124695404,2296.247427326627
1712124695445,2296.247427326627
1712124695485,2419.070106584113
1712124695525,2419.070106584113
1712124695566,2419.070106584113
1712124695606,2251.7791528529488
1712124695646,2251.7791528529488
1712124695686,2251.7791528529488
1712124695727,2251.7791528529488
1712124695767,2251.7791528529488
1712124695807,2251.7791528529488
1712124695847,1776.2957202105317
1712124695887,1765.3374211052433
1712124695927,1047.268635425251
1712124695968,973.3489104975015
1712124696008,973.3489104975015
1712124696048,973.3489104975015
1712124696088,973.3489104975015
1712124696128,582.5921168061905
1712124696169,231.00567599758506
1712124696208,113.99713286804035
1712124696249,104.3824617555365
1712124696289,-108.55225832690485
1712124696329,-108.55225832690485
1712124696370,-108.55225832690485
1712124696409,-108.55225832690485
1712124696450,-108.55225832690485
1712124696490,-108.55225832690485
1712124696530,-108.55225832690485
1712124696571,-108.55225832690485
1712124696610,-108.55225832690485
1712124696650,-227.54925511637703
1712124696690,-267.7636429001577
1712124696731,-267.7636429001577
1712124696771,-288.02101174835116
1712124696811,-300.4398513189517
1712124696851,-300.4398513189517
1712124696891,-300.4398513189517
1712124696932,-414.5580901487265
1712124696973,-968.134086834034
1712124697012,-968.134086834034
1712124697052,-667.0604666008148
1712124697092,-493.3182519741822
1712124697133,-493.3182519741822
1712124697174,-493.3182519741822
1712124697213,-493.3182519741822
1712124697255,-579.6515531372279
1712124697294,-667.0604666008148
1712124697340,-968.134086834034
1712124697380,-1173.3918103110045
1712124697420,-1341.4492970232386
1712124697460,-1351.6917321518995
1712124697500,-1363.0098450481892
1712124697540,-1363.0098450481892
1712124697581,-1363.0098450481892
1712124697620,-1409.3434865304735
1712124697661,-1409.3434865304735
1712124697701,-2190.0691670579836
1712124697741,-2200.834311792627
1712124697782,-2200.834311792627
1712124697821,-2200.834311792627
1712124697861,-2200.834311792627
1712124697901,-2200.834311792627
1712124697941,-2200.834311792627
1712124697982,-2200.834311792627
1712124698022,-2200.834311792627
1712124698061,-2200.834311792627
1712124698102,-2200.834311792627
1712124698142,-2200.834311792627
1712124698183,-1746.707449198002
1712124698222,-1746.707449198002
1712124698262,-1746.707449198002
1712124698302,-1746.707449198002
1712124698342,-1746.707449198002
1712124698383,-1746.707449198002
1712124698423,-1309.6495070457458
1712124698463,-975.1732264808379
1712124698503,-975.1732264808379
1712124698543,-974.2793378001079
1712124698584,-974.2793378001079
1712124698623,-727.2284302557819
1712124698663,-727.2284302557819
1712124698703,-727.2284302557819
1712124698744,-820.615394566441
1712124698784,-974.2793378001079
1712124698824,-1025.534450875828
1712124698864,-1309.6495070457458
1712124698904,-1372.4923084466718
1712124698944,-1746.707449198002
1712124698985,-2008.592519292608
1712124699024,-2197.880846080603
1712124699064,-2825.142435165122
1712124699105,-2825.142435165122
1712124699145,-2825.142435165122
1712124699185,-4355.151317100506
1712124699225,-6308.853479337413
1712124699265,-7963.423983274959
1712124699305,-8886.224722951185
1712124699345,-9422.718549532816
1712124699386,-9560.15251041553
1712124699426,-9592.193146106321
1712124699466,-9840.168880309677
1712124699506,-10090.821017915616
1712124699546,-10911.613465119153
1712124699587,-11049.031881395727
1712124699626,-11108.883413543692
1712124699666,-11113.089116266463
1712124699707,-11641.978133694734
1712124699747,-11782.915609389078
1712124699787,-12123.284358989913
1712124699827,-12398.603182699997
1712124699867,-14856.706426600693
1712124699907,-15605.124252451817
1712124699947,-16083.976042128634
1712124699988,-16593.707240025513
1712124700027,-16881.031309128273
1712124700068,-16881.031309128273
1712124700108,-16881.031309128273
1712124700148,-16881.031309128273
1712124700189,-16881.031309128273
1712124700228,-17213.837490259204
1712124700270,-17418.242532421835
1712124700308,-17599.938652168494
1712124700348,-17656.792921131477
1712124700389,-17894.853479307145
1712124700429,-18158.168654229958
1712124700469,-18158.168654229958
1712124700509,-17656.792921131477
1712124700549,-17599.938652168494
1712124700590,-17448.301506913267
1712124700629,-17418.242532421835
1712124700670,-17213.837490259204
1712124700710,-17213.837490259204
1712124700750,-17213.837490259204
1712124700791,-17071.395684785442
1712124700830,-16875.215949806385
1712124700870,-15853.450704319403
1712124700910,-15568.027184400475
1712124700950,-15568.027184400475
1712124700991,-15568.027184400475
1712124701031,-15568.027184400475
1712124701071,-15044.758766574087
1712124701111,-14203.182690367568
1712124701151,-13834.942841300042
1712124701192,-13631.132607152918
1712124701231,-13518.09095605067
1712124701271,-13411.17163033341
1712124701311,-12651.079849502305
1712124701351,-12271.927311121952
1712124701392,-12156.727511455072
1712124701432,-12153.99437906337
1712124701472,-11420.536159610376
1712124701512,-11260.05422080867
1712124701552,-11039.670574030606
1712124701592,-10448.849076702027
1712124701632,-10064.989101771032
1712124701672,-9083.530420723604
1712124701712,-8280.16738135228
1712124701752,-7800.055927817943
1712124701793,-7317.185818233993
1712124701832,-7172.19527958543
1712124701872,-6762.261576088145
1712124701912,-6728.022956687259
1712124701953,-6250.950616874732
1712124701993,-5873.692051443271
1712124702033,-5695.706574267708
1712124702073,-5166.739940995816
1712124702113,-4970.963552662637
1712124702153,-4856.012720441911
1712124702194,-4802.808033177629
1712124702233,-4452.581652240828
1712124702273,-4284.554108903976
1712124702313,-4162.690375487786
1712124702353,-4162.690375487786
1712124702394,-4162.690375487786
1712124702433,-3377.6063956008293
1712124702474,-3377.6063956008293
1712124702514,-3377.6063956008293
1712124702554,-3377.6063956008293
1712124702595,-3377.6063956008293
1712124702634,-3377.6063956008293
1712124702674,-3377.6063956008293
1712124702714,-3377.6063956008293
1712124702754,-2720.333837922197
1712124702795,-1918.3915596688166
1712124702834,-1882.1819875722285
1712124702874,-1355.7877767034806
1712124702914,-1355.7877767034806
1712124702955,-1355.7877767034806
1712124702995,-1355.7877767034806
1712124703035,-1355.7877767034806
1712124703075,-1355.7877767034806
1712124703115,-1404.1365929928143
1712124703155,-1918.3915596688166
1712124703196,-2170.3725644757506
1712124703235,-2565.4792035552673
1712124703276,-2565.4792035552673
1712124703315,-2565.4792035552673
1712124703355,-2565.4792035552673
1712124703396,-2565.4792035552673
1712124703436,-2565.4792035552673
1712124703476,-2565.4792035552673
1712124703516,-2318.4818361848593
1712124703556,-2170.3725644757506
1712124703597,-1918.3915596688166
1712124703636,-1404.1365929928143
1712124703676,-1404.1365929928143
1712124703716,-1404.1365929928143
1712124703756,-1404.1365929928143
1712124703797,-1404.1365929928143
1712124703836,-1404.1365929928143
1712124703877,-1404.1365929928143
1712124703917,-1404.1365929928143
1712124703957,-702.9077371254098
1712124703997,283.1340761636384
1712124704037,630.2215382265858
1712124704077,1397.222334225662
1712124704117,1711.863456660416
1712124704157,1764.6635612319224
1712124704198,1798.304182867054
1712124704237,2355.488110181177
1712124704278,2560.2197888651863
1712124704318,2833.212509062607
1712124704358,2994.111847120803
1712124704399,3142.432915217709
1712124704438,3819.8381471433677
1712124704478,4708.804388693068
1712124704518,5207.557191842003
1712124704558,5501.304295191076
1712124704599,5699.251973966835
1712124704638,5699.251973966835
1712124704678,5699.251973966835
1712124704719,5979.588397600921
1712124704759,5979.588397600921
1712124704799,5979.588397600921
1712124704839,5979.588397600921
1712124704879,5979.588397600921
1712124704919,5979.588397600921
1712124704959,5979.588397600921
1712124705000,5979.588397600921
1712124705039,5979.588397600921
1712124705079,5979.588397600921
1712124705120,6538.914582236204
1712124705160,6538.914582236204
1712124705201,6958.857341767056
1712124705240,6958.857341767056
1712124705280,6958.857341767056
1712124705321,6958.857341767056
1712124705361,6958.857341767056
1712124705402,6958.857341767056
1712124705441,6958.857341767056
1712124705485,6246.8298198741395
1712124705522,5979.588397600921
1712124705562,5271.316377044655
1712124705603,5271.316377044655
1712124705643,5271.316377044655
1712124705683,5271.316377044655
1712124705723,5271.316377044655
1712124705763,5271.316377044655
1712124705804,5271.316377044655
1712124705844,5271.316377044655
1712124705884,5271.316377044655
1712124705924,5271.316377044655
1712124705965,4496.939779404085
1712124706006,4277.057883602101
1712124706045,4277.057883602101
1712124706086,4277.057883602101
1712124706126,4277.057883602101
1712124706166,4277.057883602101
1712124706207,4277.057883602101
1712124706247,4277.057883602101
1712124706288,4230.3913269364275
1712124706327,4112.627128432039
1712124706367,3897.7348676603287
1712124706408,3423.1457345297094
1712124706448,3396.183235310018
1712124706488,3423.1457345297094
1712124706528,3854.3467305668164
1712124706569,4112.627128432039
1712124706610,4230.3913269364275
1712124706649,4277.057883602101
1712124706690,5063.860033213859
1712124706730,5515.405868831091
1712124706770,6034.404744986445
1712124706812,6181.993436248042
1712124706851,6224.840902752709
1712124706892,6663.194247943349
1712124706932,6839.261746138334
1712124706972,6932.235495252069
1712124707013,6932.235495252069
1712124707052,6932.235495252069
1712124707092,6974.675343789626
1712124707132,6974.675343789626
1712124707173,6974.675343789626
1712124707214,6974.675343789626
1712124707253,6974.675343789626
1712124707293,6974.675343789626
1712124707333,6974.675343789626
1712124707373,6974.675343789626
1712124707414,6974.675343789626
1712124707454,6974.675343789626
1712124707494,6974.675343789626
1712124707534,5280.584572561551
1712124707574,5280.584572561551
1712124707615,5280.584572561551
1712124707655,5280.584572561551
1712124707698,5280.584572561551
1712124707735,5280.584572561551
1712124707775,5280.584572561551
1712124707816,5280.584572561551
1712124707855,5280.584572561551
1712124707896,5280.584572561551
1712124707936,5280.584572561551
1712124707976,4978.302456917707
1712124708017,4978.302456917707
1712124708056,3885.018123100046
1712124708097,3885.018123100046
1712124708137,3885.018123100046
1712124708177,3885.018123100046
1712124708218,3885.018123100046
1712124708258,3885.018123100046
1712124708298,3885.018123100046
1712124708338,3885.018123100046
1712124708378,3648.4671687006485
1712124708419,1097.9887741487473
1712124708459,-379.3752458479721
1712124708499,-379.3752458479721
1712124708539,-379.3752458479721
1712124708579,-379.3752458479721
1712124708620,-379.3752458479721
1712124708660,-379.3752458479721
1712124708700,-379.3752458479721
1712124708740,-379.3752458479721
1712124708781,-831.767164147459
1712124708822,-831.767164147459
1712124708861,-903.6281095766462
1712124708901,-1050.4469661023468
1712124708942,-1050.4469661023468
1712124708982,-1050.4469661023468
1712124709023,-1050.4469661023468
1712124709063,-1050.4469661023468
1712124709103,-903.6281095766462
1712124709143,-831.767164147459
1712124709183,-725.7129729297012
1712124709224,-84.48765951464884
1712124709264,53.31077235471457
1712124709306,53.31077235471457
1712124709345,53.31077235471457
1712124709384,53.31077235471457
1712124709423,53.31077235471457
1712124709462,53.31077235471457
1712124709501,53.31077235471457
1712124709540,53.31077235471457
1712124709579,539.3039407983888
1712124709618,539.3039407983888
1712124709657,539.3039407983888
1712124709696,539.3039407983888
1712124709735,539.3039407983888
1712124709774,539.3039407983888
1712124709813,539.3039407983888
1712124709852,539.3039407983888
1712124709891,539.3039407983888
1712124709930,-346.05586349824443
1712124709969,-346.05586349824443
1712124710008,-346.05586349824443
1712124710047,-346.05586349824443
1712124710086,-346.05586349824443
1712124710125,539.3039407983888
1712124710164,1889.489025016781
1712124710203,1889.489025016781
1712124710242,2535.5062292485964
1712124710281,2535.5062292485964
1712124710320,2535.5062292485964
1712124710359,2189.5436120221857
1712124710398,1889.489025016781
1712124710437,1889.489025016781
1712124710476,1889.489025016781
1712124710515,1889.489025016781
1712124710554,2189.5436120221857
1712124710593,2535.5062292485964
1712124710632,4258.138327745954
1712124710671,4723.732145832386
1712124710710,5404.763228930533
1712124710749,5659.010751832509
1712124710788,6712.598645915277
1712124710827,8652.20318032708
1712124710866,8877.413276458858
1712124710905,9529.558800883126
1712124710945,9529.558800883126
1712124710985,9529.558800883126
1712124711025,9246.758440943435
1712124711065,9246.758440943435
1712124711105,9246.758440943435
1712124711145,9246.758440943435
1712124711185,9246.758440943435
1712124711225,9246.758440943435
1712124711265,9246.758440943435
1712124711305,9246.758440943435
1712124711345,9246.758440943435
1712124711385,7703.476004877128
1712124711425,6197.851093686651
1712124711465,5562.225666032173
1712124711505,4251.578558087116
1712124711545,4137.215287178755
1712124711585,4040.650659199804
1712124711625,3822.5875990693457
1712124711665,3482.279455244541
1712124711705,2962.5057394565083
1712124711745,2500.2602503171656
1712124711785,2443.826100898441
1712124711825,2361.7196097408887
1712124711865,1317.4447545320727
1712124711905,1208.4127978906035
1712124711945,822.4268707456067
1712124711985,-423.12170956563205
1712124712025,-2472.9512849510647
1712124712065,-3631.5947273178026
1712124712105,-3631.5947273178026
1712124712145,-3631.5947273178026
1712124712185,-3631.5947273178026
1712124712225,-3631.5947273178026
1712124712265,-3631.5947273178026
1712124712305,-3631.5947273178026
1712124712345,-3631.5947273178026
1712124712385,-3990.911102276994
1712124712425,-4366.557634378783
1712124712465,-4407.207324790768
1712124712505,-4533.413405226078
1712124712545,-4533.413405226078
1712124712585,-4533.413405226078
1712124712625,-4458.353060903493
1712124712665,-4458.353060903493
1712124712705,-4458.353060903493
1712124712745,-4458.353060903493
1712124712785,-4458.353060903493
1712124712825,-4458.353060903493
1712124712865,-4407.207324790768
1712124712905,-4407.207324790768
1712124712945,-4407.207324790768
1712124712985,-4407.207324790768
1712124713025,-4407.207324790768
1712124713065,-4458.353060903493
1712124713105,-4714.852562696207
1712124713145,-4932.789766490692
1712124713185,-5029.715800622478
1712124713225,-5087.61313929758
1712124713265,-5183.207481524674
1712124713305,-5183.207481524674
1712124713345,-5183.207481524674
1712124713385,-5183.207481524674
1712124713425,-5359.592530797236
1712124713465,-5648.3832422953565
1712124713505,-7298.606668857392
1712124713545,-7317.007762585301
1712124713585,-7317.007762585301
1712124713625,-7317.007762585301
1712124713665,-7317.007762585301
1712124713705,-7317.007762585301
1712124713745,-7317.007762585301
1712124713785,-7317.007762585301
1712124713825,-7317.007762585301
1712124713865,-7850.126919980859
1712124713905,-8308.624846033286
1712124713945,-8384.417552041123
1712124713985,-9172.914896441624
1712124714025,-8798.200202421285
1712124714065,-8308.624846033286
1712124714105,-8210.19625968649
1712124714145,-8210.19625968649
1712124714185,-7875.354380717501
1712124714225,-7850.126919980859
1712124714265,-7823.263201848837
1712124714305,-7317.007762585301
1712124714345,-7314.962058506906
1712124714385,-7155.64294316899
1712124714425,-7155.64294316899
1712124714465,-7155.64294316899
1712124714505,-7155.64294316899
1712124714545,-7155.64294316899
1712124714585,-7314.962058506906
1712124714625,-7823.263201848837
1712124714665,-7875.354380717501
1712124714705,-7875.354380717501
1712124714745,-7875.354380717501
1712124714785,-7823.263201848837
1712124714825,-7796.598948433064
1712124714865,-7366.550325783202
1712124714905,-7314.962058506906
1712124714945,-7114.040737049654
1712124714985,-6954.698413689854
1712124715025,-6523.531574184308
1712124715065,-6516.99143866729
1712124715105,-5783.224705220666
1712124715145,-5783.224705220666
1712124715185,-5783.224705220666
1712124715225,-5783.224705220666
1712124715265,-5783.224705220666
1712124715305,-6516.99143866729
1712124715345,-6954.698413689854
1712124715385,-7114.040737049654
1712124715425,-7114.040737049654
1712124715465,-7114.040737049654
1712124715505,-7114.040737049654
1712124715545,-7114.040737049654
1712124715585,-7114.040737049654
1712124715625,-7114.040737049654
1712124715665,-7114.040737049654
1712124715705,-7430.865371827036
1712124715745,-7430.865371827036
1712124715785,-7430.865371827036
1712124715825,-7430.865371827036
1712124715865,-7430.865371827036
1712124715905,-7430.865371827036
1712124715945,-7430.865371827036
1712124715985,-7451.740029003238
1712124716025,-7478.342187389499
1712124716065,-7732.870754018659
1712124716105,-8306.315570194274
1712124716145,-9031.124655685853
1712124716185,-9087.396640787832
1712124716225,-9087.396640787832
1712124716265,-9087.396640787832
1712124716305,-9087.396640787832
1712124716345,-9126.812628799118
1712124716385,-8306.315570194274
1712124716425,-7732.870754018659
1712124716465,-7478.342187389499
1712124716505,-7430.865371827036
1712124716545,-7410.45994975185
1712124716585,-7410.45994975185
1712124716625,-7410.45994975185
1712124716665,-7410.45994975185
1712124716705,-7410.45994975185
1712124716745,-7410.45994975185
1712124716785,-7410.45994975185
1712124716825,-7410.45994975185
1712124716865,-7410.45994975185
1712124716905,-7410.45994975185
1712124716945,-7410.45994975185
1712124716985,-7258.316184178926
1712124717025,-6608.719211961143
1712124717065,-6530.880336049013
1712124717105,-6326.972901116824
1712124717145,-5570.660165660083
1712124717185,-5389.78062005504
1712124717225,-5386.41547462577
1712124717265,-4358.942674383521
1712124717305,-4319.909959611716
1712124717345,-3951.4905768902972
1712124717385,-3951.4905768902972
1712124717425,-3951.4905768902972
1712124717465,-3951.4905768902972
1712124717505,-4358.942674383521
1712124717545,-4765.715588761494
1712124717585,-4765.715588761494
1712124717625,-4765.715588761494
1712124717665,-4765.715588761494
1712124717705,-4660.71764958743
1712124717745,-4358.942674383521
1712124717785,-4044.9951403536834
1712124717825,-3951.4905768902972
1712124717865,-3519.6537531614304
1712124717905,-3327.9894633204676
1712124717945,-2887.5453256822657
1712124717985,-2662.4575263974257
1712124718025,-2291.3723169658333
1712124718065,-1770.2400425733067
1712124718105,-1770.2400425733067
1712124718145,-1770.2400425733067
1712124718185,-2075.9184075142257
1712124718225,-2291.3723169658333
1712124718265,-2662.4575263974257
1712124718305,-2918.7795693690423
1712124718345,-2918.7795693690423
1712124718385,-2918.7795693690423
1712124718425,-2918.7795693690423
1712124718465,-2918.7795693690423
1712124718505,-2918.7795693690423
1712124718545,-2918.7795693690423
1712124718585,-2773.372332117986
1712124718625,-2426.0628164773807
1712124718665,-2426.0628164773807
1712124718705,-2426.0628164773807
1712124718745,-2426.0628164773807
1712124718785,-2426.0628164773807
1712124718825,-2426.0628164773807
1712124718865,-2426.0628164773807
1712124718905,-2773.372332117986
1712124718945,-2918.7795693690423
1712124718985,-3047.0112085177097
1712124719025,-3063.9575424431823
1712124719065,-3606.3352492109407
1712124719105,-3606.3352492109407
1712124719145,-3606.3352492109407
1712124719185,-3606.3352492109407
1712124719225,-3606.3352492109407
1712124719265,-3606.3352492109407
1712124719305,-3063.9575424431823
1712124719345,-3047.0112085177097
1712124719385,-2773.372332117986
1712124719425,-2609.7133580236696
1712124719465,-2609.7133580236696
1712124719505,-2609.7133580236696
1712124719545,-2609.7133580236696
1712124719585,-2609.7133580236696
1712124719625,-2609.7133580236696
1712124719665,-2609.7133580236696
1712124719705,-2609.7133580236696
1712124719745,-2433.1513627492823
1712124719785,-2433.1513627492823
1712124719825,-2433.1513627492823
1712124719865,-2433.1513627492823
1712124719905,-2433.1513627492823
1712124719945,-2433.1513627492823
1712124719985,-2433.1513627492823
1712124720025,-2433.1513627492823
1712124720065,-2433.1513627492823
1712124720105,-2433.1513627492823
1712124720145,-2162.97868050728
1712124720185,-2162.97868050728
1712124720225,-2162.97868050728
1712124720265,-2162.97868050728
1712124720305,-2162.97868050728
1712124720345,-2433.1513627492823
1712124720385,-2768.9233465574216
1712124720425,-2836.4482823912986
1712124720465,-2857.5238718199544
1712124720505,-3193.6220428049564
1712124720545,-3228.5421679860447
1712124720585,-3487.1267222466413
1712124720625,-3636.3608379880898
1712124720665,-3648.5632295105606
1712124720705,-3686.4674122636206
1712124720745,-3686.4674122636206
1712124720785,-3686.4674122636206
1712124720825,-3648.5632295105606
1712124720865,-3648.5632295105606
1712124720905,-3629.1025316258892
1712124720945,-3480.537152494304
1712124720985,-3480.537152494304
1712124721025,-3480.537152494304
1712124721065,-3480.537152494304
1712124721105,-3480.537152494304
1712124721145,-3480.537152494304
1712124721185,-3480.537152494304
1712124721225,-3362.8343574588653
1712124721265,-3233.2369035265874
1712124721305,-3166.176855208352
1712124721398,-3084.924092084635
1712124721439,-2352.2831448854413
1712124721478,-2092.815503901802
1712124721518,-2020.452456361847
1712124721559,-1422.7647257552017
1712124721599,-1241.6060762717389
1712124721639,-1238.4953521080315
1712124721679,-615.4120674422011
1712124721719,-605.107359246118
1712124721759,-549.0895494977012
1712124721799,-391.2001807591878
1712124721840,-391.2001807591878
1712124721880,-391.2001807591878
1712124721920,-391.2001807591878
1712124721960,-398.76241421164013
1712124722000,-398.76241421164013
1712124722041,-398.76241421164013
1712124722080,-398.76241421164013
1712124722120,-398.76241421164013
1712124722160,-398.76241421164013
1712124722200,-398.76241421164013
1712124722241,-398.76241421164013
1712124722280,-298.32387699442916
1712124722321,382.30217360076495
1712124722361,788.4767150161788
1712124722401,925.4690934056416
1712124722442,925.4690934056416
1712124722481,925.4690934056416
1712124722521,925.4690934056416
1712124722561,925.4690934056416
1712124722601,925.4690934056416
1712124722642,788.4767150161788
1712124722682,118.19406964746304
1712124722722,-298.32387699442916
1712124722762,-398.76241421164013
1712124722802,-436.098700536415
1712124722843,-436.098700536415
1712124722882,-436.098700536415
1712124722922,-436.098700536415
1712124722962,-436.098700536415
1712124723003,-436.098700536415
1712124723044,-436.098700536415
1712124723083,-298.32387699442916
1712124723123,118.19406964746304
1712124723163,118.19406964746304
1712124723203,118.19406964746304
1712124723244,118.19406964746304
1712124723284,118.19406964746304
1712124723324,118.19406964746304
1712124723364,118.19406964746304
1712124723404,-633.2662137753796
1712124723445,-742.0028450437821
1712124723484,-771.0803774662782
1712124723524,-953.0716202743351
1712124723564,-953.0716202743351
1712124723604,-953.0716202743351
1712124723645,-1505.6152247525752
1712124723685,-1767.1236859182827
1712124723725,-1767.1236859182827
1712124723765,-1767.1236859182827
1712124723805,-1505.6152247525752
1712124723846,-633.2662137753796
1712124723885,-548.4795975012239
1712124723925,-548.4795975012239
1712124723965,-548.4795975012239
1712124724006,-548.4795975012239
1712124724046,-548.4795975012239
1712124724086,-548.4795975012239
1712124724126,-548.4795975012239
1712124724166,-548.4795975012239
1712124724206,-548.4795975012239
1712124724247,-417.08811076986603
1712124724286,-417.08811076986603
1712124724328,-417.08811076986603
1712124724367,-417.08811076986603
1712124724407,-104.21568068582565
1712124724448,109.0198373682797
1712124724487,208.24245513090864
1712124724527,368.30037325341254
1712124724567,368.30037325341254
1712124724607,368.30037325341254
1712124724648,368.30037325341254
1712124724688,368.30037325341254
1712124724728,109.0198373682797
1712124724768,109.0198373682797
1712124724808,109.0198373682797
1712124724849,109.0198373682797
1712124724888,109.0198373682797
1712124724928,109.0198373682797
1712124724968,109.0198373682797
1712124725008,109.0198373682797
1712124725049,488.3732339129783
1712124725089,960.166772655677
1712124725129,960.166772655677
1712124725169,1094.0222211671062
1712124725209,1094.0222211671062
1712124725250,1202.5407780460082
1712124725289,1209.7201139661483
1712124725330,1202.5407780460082
1712124725370,2018.6925585442223
1712124725410,2378.7021858245134
1712124725451,2409.9496212387457
1712124725490,2637.925590584753
1712124725530,2637.925590584753
1712124725571,2637.925590584753
1712124725611,2637.925590584753
1712124725652,2409.9496212387457
1712124725691,2378.7021858245134
1712124725731,2018.6925585442223
1712124725771,1863.2154662029352
1712124725812,1123.4982368340716
1712124725852,1094.0222211671062
1712124725892,639.5445657700766
1712124725932,-248.87722230423242
1712124725972,-1850.2114369999617
1712124726012,-2812.4771976787597
1712124726053,-4125.938278218964
1712124726093,-4874.179330271669
1712124726133,-5586.78800924751
1712124726173,-6042.066567752045
1712124726213,-6042.066567752045
1712124726254,-6042.066567752045
1712124726294,-6042.066567752045
1712124726334,-6042.066567752045
1712124726374,-6042.066567752045
1712124726415,-6042.066567752045
1712124726455,-6042.066567752045
1712124726495,-6042.066567752045
1712124726535,-6001.495282854419
1712124726575,-5917.2878317395225
1712124726616,-5586.78800924751
1712124726657,-5223.9114132307
1712124726696,-5058.855068538105
1712124726736,-5058.855068538105
1712124726777,-5017.547006702749
1712124726818,-3607.7168930072803
1712124726859,-863.5309471422806
1712124726898,7112.815176813398
1712124726938,7238.88132044021
1712124726979,7491.790009667166
1712124727019,9777.540683953092
1712124727060,12239.442531404085
1712124727099,12663.84224847285
1712124727140,15091.055798565038
1712124727180,15091.055798565038
1712124727220,15091.055798565038
1712124727261,15091.055798565038
1712124727301,15091.055798565038
1712124727342,15091.055798565038
1712124727381,15091.055798565038
1712124727421,13876.655289060203
1712124727462,12986.606874259654
1712124727502,12986.606874259654
1712124727542,13009.845811685082
1712124727582,13876.655289060203
1712124727623,14923.231460116804
1712124727664,14532.441392314155
1712124727703,14532.441392314155
1712124727744,13876.655289060203
1712124727784,13106.854410432745
1712124727824,13009.845811685082
1712124727865,12986.606874259654
1712124727904,12771.918857798213
1712124727945,12507.822515598731
1712124727985,12293.206157263368
1712124728025,12155.659250197932
1712124728066,12155.659250197932
1712124728106,12018.828274416272
1712124728146,11935.58095229417
1712124728186,7215.715243059676
1712124728227,6198.414708992932
1712124728268,5856.457348767202
1712124728307,5856.457348767202
1712124728348,5856.457348767202
1712124728388,5856.457348767202
1712124728428,5856.457348767202
1712124728469,5856.457348767202
1712124728508,5856.457348767202
1712124728549,5856.457348767202
1712124728589,5242.579339538468
1712124728629,5168.870606297394
1712124728670,5168.870606297394
1712124728709,5192.222826838959
1712124728749,5242.579339538468
1712124728789,5649.291112286504
1712124728830,5649.291112286504
1712124728871,5649.291112286504
1712124728910,5780.7147245914675
1712124728950,6042.674351014197
1712124728990,6130.044664731715
1712124729030,6178.734064288903
1712124729072,7335.33799105254
1712124729111,7375.893280547345
1712124729151,7567.935162533307
1712124729191,7567.935162533307
1712124729232,7375.893280547345
1712124729272,7335.33799105254
1712124729312,6780.807571871206
1712124729352,6178.734064288903
1712124729392,6130.044664731715
1712124729432,6178.734064288903
1712124729473,6524.96766116377
1712124729513,6733.615753114689
1712124729553,6737.448961694958
1712124729593,6780.807571871206
1712124729633,6903.996761168819
1712124729674,7307.88927598577
1712124729714,7335.33799105254
1712124729754,7567.935162533307
1712124729794,7714.356345128734
1712124729834,7714.356345128734
1712124729875,7714.356345128734
1712124729915,7307.88927598577
1712124729955,6903.996761168819
1712124729995,6780.807571871206
1712124730036,6737.448961694958
1712124730076,6733.615753114689
1712124730116,6733.615753114689
1712124730156,6733.615753114689
1712124730197,6733.615753114689
1712124730237,6733.615753114689
1712124730278,6733.615753114689
1712124730317,6733.615753114689
1712124730359,6697.491736148251
1712124730398,6697.491736148251
1712124730438,6697.491736148251
1712124730479,6697.491736148251
1712124730519,6697.491736148251
1712124730559,6286.840242479462
1712124730599,5764.453019591281
1712124730639,5389.765013484983
1712124730680,5284.644797043875
1712124730720,5083.8465431584045
1712124730760,4915.206602451624
1712124730800,4838.814680958632
1712124730841,4838.814680958632
1712124730882,4838.814680958632
1712124730921,4838.814680958632
1712124730961,4587.0811276184395
1712124731002,3437.145153352758
1712124731042,2581.0965413302183
1712124731083,2581.0965413302183
1712124731123,2581.0965413302183
1712124731163,2581.0965413302183
1712124731203,2581.0965413302183
1712124731243,1278.0252466441598
1712124731284,1240.970454866765
1712124731324,1109.4629559386522
1712124731364,888.3454430610873
1712124731404,817.1642247750424
1712124731444,699.0953949098475
1712124731486,671.4738278044388
1712124731525,503.2549868633505
1712124731565,384.130893292604
1712124731605,253.98641455499455
1712124731646,248.2121858522296
1712124731686,-1458.1633431871887
1712124731726,-1847.616087520495
1712124731768,-1847.616087520495
1712124731808,-1847.616087520495
1712124731849,-1847.616087520495
1712124731889,-2557.0786983396392
1712124731929,-2682.572608235292
1712124731969,-2951.8528691832907
1712124732009,-3569.4520744159818
1712124732049,-3979.6902344864793
1712124732090,-4136.299374721944
1712124732130,-4190.574096243596
1712124732170,-4446.477542748209
1712124732210,-4603.376539409161
1712124732250,-4756.971421664581
1712124732291,-4911.444875681307
1712124732331,-5387.655990792904
1712124732371,-5507.200964387273
1712124732411,-5507.200964387273
1712124732451,-5507.200964387273
1712124732492,-5507.200964387273
1712124732531,-5507.200964387273
1712124732572,-5507.200964387273
1712124732612,-5507.200964387273
1712124732652,-5968.694178937469
1712124732693,-6120.294471618719
1712124732732,-6235.094446749892
1712124732772,-6337.680598031264
1712124732813,-6337.680598031264
1712124732853,-6337.680598031264
1712124732894,-6337.680598031264
1712124732934,-6337.680598031264
1712124732973,-6337.680598031264
1712124733014,-6345.138956179377
1712124733054,-6756.023857230321
1712124733095,-6756.023857230321
1712124733134,-6756.023857230321
1712124733175,-6756.023857230321
1712124733215,-6756.023857230321
1712124733255,-6756.023857230321
1712124733296,-6756.023857230321
1712124733336,-6756.023857230321
1712124733377,-6765.235771168489
1712124733416,-6964.180810896447
1712124733460,-7357.443356166128
1712124733501,-7435.131740390789
1712124733540,-7357.443356166128
1712124733580,-7106.1421019784175
1712124733621,-6964.180810896447
1712124733661,-6964.180810896447
1712124733702,-6815.456704952288
1712124733741,-6785.115459863329
1712124733781,-6781.722935684025
1712124733821,-6756.023857230321
1712124733861,-6263.133675358491
1712124733902,-5977.03949382389
1712124733941,-5201.23169704387
1712124733982,-5201.23169704387
1712124734022,-5201.23169704387
1712124734062,-5201.23169704387
1712124734103,-5792.168004044332
1712124734142,-5977.03949382389
1712124734182,-6425.892869622912
1712124734222,-5977.03949382389
1712124734263,-5792.168004044332
1712124734303,-5446.953411838273
1712124734343,-5201.23169704387
1712124734383,-5067.179512849543
1712124734423,-4610.950401498703
1712124734463,-4461.980058057234
1712124734504,-4156.354975780705
1712124734543,-3945.117973414948
1712124734583,-3777.5112781333737
1712124734624,-3763.498445608886
1712124734663,-3540.880110077327
1712124734704,-3207.080737807555
1712124734744,-3207.080737807555
1712124734784,-3540.880110077327
1712124734824,-3763.498445608886
1712124734864,-4156.354975780705
1712124734905,-4156.354975780705
1712124734945,-4156.354975780705
1712124734985,-4156.354975780705
1712124735025,-4156.354975780705
1712124735065,-4156.354975780705
1712124735106,-4156.354975780705
1712124735145,-4442.936394189484
1712124735185,-4409.396756520495
1712124735225,-4409.396756520495
1712124735265,-4409.396756520495
1712124735306,-4409.396756520495
1712124735346,-4409.396756520495
1712124735386,-4409.396756520495
1712124735426,-4409.396756520495
1712124735466,-4409.396756520495
1712124735507,-4442.936394189484
1712124735546,-4785.392109875567
1712124735586,-5371.4732207302
1712124735626,-5785.13081165636
1712124735667,-5819.297711540479
1712124735707,-5842.960114455782
1712124735747,-5842.960114455782
1712124735787,-5842.960114455782
1712124735827,-5842.960114455782
1712124735867,-5819.297711540479
1712124735908,-5516.631202667952
1712124735947,-5203.663333792239
1712124735987,-5203.663333792239
1712124736027,-5203.663333792239
1712124736068,-5203.663333792239
1712124736108,-5203.663333792239
1712124736148,-5203.663333792239
1712124736188,-5203.663333792239
1712124736228,-5203.663333792239
1712124736268,-5516.631202667952
1712124736309,-5819.297711540479
1712124736348,-5819.297711540479
1712124736390,-5590.747201553546
1712124736429,-5516.631202667952
1712124736469,-5443.236647335347
1712124736509,-5203.663333792239
1712124736549,-5038.5030476883985
1712124736589,-5013.069606889505
1712124736629,-4935.421732192626
1712124736669,-4816.336862463038
1712124736710,-4301.443178766174
1712124736750,-4284.363957842346
1712124736790,-3473.178567614639
1712124736830,-3320.258217474213
1712124736870,-3320.258217474213
1712124736911,-3320.258217474213
1712124736950,-3320.258217474213
1712124736990,-3320.258217474213
1712124737031,-2654.7546227741987
1712124737070,-2434.2772048441693
1712124737111,-2275.146108281333
1712124737151,-2231.482114008162
1712124737191,-2193.734919407405
1712124737231,-1984.9989906742703
1712124737271,-1527.8637076169252
1712124737312,-1261.9559582367074
1712124737351,-778.1843051640317
1712124737391,-712.2007548282854
1712124737431,-560.8398193544708
1712124737471,-399.36201317305677
1712124737512,-43.488641500938684
1712124737551,130.26906373049133
1712124737592,348.0458931894973
1712124737632,798.7541099241935
1712124737672,1303.960033730371
1712124737713,348.0458931894973
1712124737752,348.0458931894973
1712124737792,348.0458931894973
1712124737832,348.0458931894973
1712124737872,348.0458931894973
1712124737913,348.0458931894973
1712124737952,348.0458931894973
1712124737993,348.0458931894973
1712124738033,348.0458931894973
1712124738073,348.0458931894973
1712124738114,434.4231898454018
1712124738153,340.5158568879124
1712124738193,340.5158568879124
1712124738233,340.5158568879124
1712124738273,340.5158568879124
1712124738314,340.5158568879124
1712124738354,340.5158568879124
1712124738393,340.5158568879124
1712124738434,-260.4240523362532
1712124738474,-422.73715420858935
1712124738514,-647.3757679560222
1712124738554,-1178.9275006367825
1712124738594,-1178.9275006367825
1712124738634,-1178.9275006367825
1712124738674,-1178.9275006367825
1712124738715,-1178.9275006367825
1712124738754,-1178.9275006367825
1712124738794,-1178.9275006367825
1712124738835,-1178.9275006367825
1712124738875,-647.3757679560222
1712124738915,-647.3757679560222
1712124738955,-647.3757679560222
1712124738995,-647.3757679560222
1712124739035,-647.3757679560222
1712124739075,-647.3757679560222
1712124739116,-647.3757679560222
1712124739155,-647.3757679560222
1712124739195,-647.3757679560222
1712124739235,-647.3757679560222
1712124739275,-712.4247926073149
1712124739316,-564.7429839568213
1712124739356,-564.7429839568213
1712124739397,-537.32972000679
1712124739436,-394.68304713908583
1712124739476,-394.68304713908583
1712124739517,-246.77335743652657
1712124739556,-246.77335743652657
1712124739596,-227.94054810982198
1712124739636,-56.416235896293074
1712124739676,113.79490739759058
1712124739717,236.91868830798194
1712124739756,622.4840545712505
1712124739797,622.4840545712505
1712124739837,622.4840545712505
1712124739877,622.4840545712505
1712124739918,622.4840545712505
1712124739957,622.4840545712505
1712124739997,622.4840545712505
1712124740037,622.4840545712505
1712124740077,1301.7733400892466
1712124740118,1800.681798859965
1712124740157,1960.1457743644714
1712124740197,1981.286766875768
1712124740238,2603.209314835025
1712124740278,2801.4545200103894
1712124740318,2845.360202793032
1712124740358,2970.6456567768473
1712124740398,3451.159218631219
1712124740438,3453.4836440775543
1712124740478,3555.533484124113
1712124740519,3605.336406282615
1712124740558,3772.9718877072446
1712124740598,3867.6811830475926
1712124740639,3869.262342981994
1712124740679,3869.262342981994
1712124740719,3867.6811830475926
1712124740759,3605.336406282615
1712124740799,3605.336406282615
1712124740839,3605.336406282615
1712124740879,3605.336406282615
1712124740920,3605.336406282615
1712124740959,3605.336406282615
1712124741000,3605.336406282615
1712124741040,3605.336406282615
1712124741080,3605.336406282615
1712124741121,3348.9054761589505
1712124741160,2615.728508917615
1712124741201,2615.728508917615
1712124741241,2615.728508917615
1712124741281,2615.728508917615
1712124741322,2615.728508917615
1712124741362,2615.728508917615
1712124741402,2615.728508917615
1712124741442,2615.728508917615
1712124741484,2560.484342712909
1712124741524,2102.565418448299
1712124741564,1876.7906501973048
1712124741604,1769.555619043298
1712124741644,1769.555619043298
1712124741685,1769.555619043298
1712124741726,1769.555619043298
1712124741765,1769.555619043298
1712124741805,1769.555619043298
1712124741846,1769.555619043298
1712124741886,1769.555619043298
1712124741927,1329.6382429483347
1712124741967,1329.6382429483347
1712124742007,1329.6382429483347
1712124742047,1329.6382429483347
1712124742087,1329.6382429483347
1712124742128,1329.6382429483347
1712124742168,1329.6382429483347
1712124742208,1329.6382429483347
1712124742248,1292.9322846564464
1712124742288,726.7736931282561
1712124742330,694.4743559199851
1712124742369,694.4743559199851
1712124742411,726.7736931282561
1712124742450,886.0283602606505
1712124742490,1292.9322846564464
1712124742531,1292.9322846564464
1712124742571,1292.9322846564464
1712124742611,1354.746838936815
1712124742651,1377.1949407951906
1712124742691,1555.5985735370778
1712124742732,1578.7238351474516
1712124742771,1579.9846885800362
1712124742812,1604.8725808211602
1712124742852,1604.8725808211602
1712124742892,1604.8725808211602
1712124742933,1604.8725808211602
1712124742972,1604.8725808211602
1712124743012,1579.9846885800362
1712124743053,1555.5985735370778
1712124743093,1555.5985735370778
1712124743133,1555.5985735370778
1712124743173,1555.5985735370778
1712124743213,1555.5985735370778
1712124743253,1555.5985735370778
1712124743294,1555.5985735370778
1712124743334,1288.7839160379954
1712124743374,1288.7839160379954
1712124743414,316.3008936480619
1712124743454,-627.9166358285584
1712124743494,-1200.0773075004108
1712124743535,-1754.8324239146896
1712124743575,-1754.8324239146896
1712124743615,-1754.8324239146896
1712124743655,-1754.8324239146896
1712124743695,-1754.8324239146896
1712124743736,-1754.8324239146896
1712124743776,-1778.8621312449686
1712124743816,-1842.9680411622394
1712124743856,-1944.9969311570749
1712124743896,-2106.7950157071464
1712124743937,-2293.098503247369
1712124743977,-2329.7479017041624
1712124744017,-2432.2064689311665
1712124744057,-2437.5515075984877
1712124744097,-2440.9988594963215
1712124744138,-2699.3656041771173
1712124744178,-3434.438341889996
1712124744218,-4874.617761160014
1712124744258,-4874.617761160014
1712124744298,-4874.617761160014
1712124744339,-4874.617761160014
1712124744379,-4874.617761160014
1712124744419,-4874.617761160014
1712124744459,-4874.617761160014
1712124744500,-4874.617761160014
1712124744541,-4874.617761160014
1712124744580,-5111.789886651561
1712124744621,-5200.906023958465
1712124744661,-5558.932669004425
1712124744701,-5594.1278310203925
1712124744742,-5111.789886651561
1712124744781,-4887.704811689444
1712124744822,-4874.617761160014
1712124744862,-4769.428128364496
1712124744902,-4574.9208668535575
1712124744943,-4507.519843220711
1712124744983,-3988.9865033710375
1712124745023,-3982.5984411076643
1712124745063,-3561.555926625617
1712124745104,-3329.0521451281384
1712124745144,-3260.0766039388254
1712124745184,-3260.0766039388254
1712124745224,-3260.0766039388254
1712124745265,-3260.0766039388254
1712124745305,-3260.0766039388254
1712124745346,-3260.0766039388254
1712124745385,-3561.555926625617
1712124745427,-3561.555926625617
1712124745466,-3561.555926625617
1712124745505,-3561.555926625617
1712124745544,-3561.555926625617
1712124745583,-3561.555926625617
1712124745622,-3561.555926625617
1712124745661,-3561.555926625617
1712124745700,-3561.555926625617
1712124745739,-3561.555926625617
1712124745778,-4743.919752805261
1712124745817,-4743.919752805261
1712124745856,-4743.919752805261
1712124745895,-4743.919752805261
1712124745934,-4743.919752805261
1712124745973,-4743.919752805261
1712124746012,-4743.919752805261
1712124746051,-4743.919752805261
1712124746090,-4743.919752805261
1712124746129,-4743.919752805261
1712124746168,-4887.115422710311
1712124746207,-5271.619923111051
1712124746246,-5816.390875737881
1712124746285,-5816.390875737881
1712124746324,-5816.390875737881
1712124746363,-5816.390875737881
1712124746402,-5816.390875737881
1712124746441,-5816.390875737881
1712124746480,-5167.438160283491
1712124746519,-4887.115422710311
1712124746559,-4829.670841296902
1712124746599,-4435.965234204661
1712124746639,-4435.965234204661
1712124746679,-4435.965234204661
1712124746719,-4435.965234204661
1712124746759,-4435.965234204661
1712124746799,-4435.965234204661
1712124746839,-4435.965234204661
1712124746879,-4435.965234204661
1712124746919,-4435.965234204661
1712124746959,-4257.345735539217
1712124746999,-4165.168464466231
1712124747039,-4106.506427417509
1712124747079,-3851.562119667884
1712124747119,-3790.2597852316685
1712124747159,-3790.2597852316685
1712124747199,-3790.2597852316685
1712124747239,-3707.569378528511
1712124747279,-3653.7722127842717
1712124747319,-3446.044376381673
1712124747359,-3164.374629029073
1712124747399,-2938.2768669859506
1712124747439,-2506.891941927839
1712124747479,-2420.855506879743
1712124747519,-2420.855506879743
1712124747559,-2420.855506879743
1712124747599,-2420.855506879743
1712124747639,-2420.855506879743
1712124747679,-2420.855506879743
1712124747719,-2420.855506879743
1712124747759,-2420.855506879743
1712124747799,-2420.855506879743
1712124747839,-2305.6742187975906
1712124747879,-2206.525710707763
1712124747919,-2187.4154289416037
1712124747959,-1873.7432140975725
1712124747999,-1559.2647433588281
1712124748039,-1422.7109609644394
1712124748079,-1406.037178501254
1712124748119,-1237.3238094723783
1712124748159,-1199.1407318040729
1712124748199,-1199.1407318040729
1712124748239,-1199.1407318040729
1712124748279,-1199.1407318040729
1712124748319,-1199.1407318040729
1712124748359,-1199.1407318040729
1712124748399,-1237.3238094723783
1712124748439,-1330.4009441048838
1712124748479,-1330.4009441048838
1712124748519,-1330.4009441048838
1712124748559,-1330.4009441048838
1712124748599,-1330.4009441048838
1712124748639,-1330.4009441048838
1712124748679,-1330.4009441048838
1712124748719,-1330.4009441048838
1712124748759,-1330.4009441048838
1712124748799,-1330.4009441048838
1712124748839,-1663.5212566270493
1712124748879,-1663.5212566270493
1712124748919,-1663.5212566270493
1712124748959,-1663.5212566270493
1712124748999,-1663.5212566270493
1712124749039,-1663.5212566270493
1712124749079,-1663.5212566270493
1712124749119,-1663.5212566270493
1712124749159,-1663.5212566270493
1712124749199,-2631.950527368579
1712124749239,-3071.978183171246
1712124749279,-3071.978183171246
1712124749319,-3071.978183171246
1712124749359,-3071.978183171246
1712124749399,-3071.978183171246
1712124749439,-3071.978183171246
1712124749479,-3071.978183171246
1712124749519,-3071.978183171246
1712124749559,-3071.978183171246
1712124749599,-3071.978183171246
1712124749639,-5238.3137706969865
1712124749679,-6022.806145763723
1712124749719,-6757.080230621621
1712124749759,-7314.095988996793
1712124749799,-7377.923026393633
1712124749839,-8920.951782206073
1712124749879,-9040.512883493211
1712124749919,-9514.833567195805
1712124749959,-10144.765159053262
1712124749999,-10715.171361294575
1712124750039,-11149.294450271875
1712124750079,-11254.535219796468
1712124750119,-11323.729590678588
1712124750159,-11323.729590678588
1712124750199,-11323.729590678588
1712124750239,-11323.729590678588
1712124750279,-11323.729590678588
1712124750319,-11323.729590678588
1712124750359,-11323.729590678588
1712124750399,-11323.729590678588
1712124750439,-11149.294450271875
1712124750479,-10883.93619152042
1712124750519,-10201.95341179939
1712124750559,-9514.833567195805
1712124750599,-9040.512883493211
1712124750639,-9514.833567195805
1712124750679,-10201.95341179939
1712124750719,-10201.95341179939
1712124750759,-10201.95341179939
1712124750799,-10201.95341179939
1712124750839,-10201.95341179939
1712124750879,-8164.355477075791
1712124750919,-6951.768430889584
1712124750959,-6480.287525616586
1712124750999,-5987.875292407814
1712124751039,-4325.618173957337
1712124751079,-3213.011527240509
1712124751119,-1589.301895127399
1712124751159,-1589.301895127399
1712124751199,-1589.301895127399
1712124751239,-2624.136539968429
1712124751279,-3213.011527240509
1712124751319,-6951.768430889584
1712124751359,-8155.474720645696
1712124751399,-12515.705110628624
1712124751439,-12515.705110628624
1712124751479,-8155.474720645696
1712124751519,-6951.768430889584
1712124751559,-6951.768430889584
1712124751599,-6951.768430889584
1712124751639,-6951.768430889584
1712124751679,-6951.768430889584
1712124751719,-5437.789590011351
1712124751759,-5437.789590011351
1712124751799,-5437.789590011351
1712124751839,-5437.789590011351
1712124751879,-5437.789590011351
1712124751919,-5437.789590011351
1712124751959,-5437.789590011351
1712124751999,-5437.789590011351
1712124752039,-2679.895489068702
1712124752079,-2509.29799773125
1712124752119,-2195.819568602834
1712124752159,1506.142375110183
1712124752199,1506.142375110183
1712124752239,1506.142375110183
1712124752279,1506.142375110183
1712124752319,1506.142375110183
1712124752359,1506.142375110183
1712124752399,1506.142375110183
1712124752439,1506.142375110183
1712124752479,1506.142375110183
1712124752519,1506.142375110183
1712124752559,1506.142375110183
1712124752599,-1070.65638222103
1712124752639,-7768.693206295837
1712124752679,-9984.925470255781
1712124752719,-15690.727326443885
1712124752759,-20846.7231678511
1712124752799,-26834.462014504243
1712124752839,-26834.462014504243
1712124752879,-29824.61636774335
1712124752919,-29824.61636774335
1712124752959,-35380.14998443122
1712124752999,-35781.2274105777
1712124753039,-38052.991347919684
1712124753079,-39941.67111833696
1712124753119,-39941.67111833696
1712124753159,-38052.991347919684
1712124753199,-35781.2274105777
1712124753239,-35380.14998443122
1712124753279,-33002.62521190476
1712124753319,-30258.558522447944
1712124753359,-29824.61636774335
1712124753399,-29824.61636774335
1712124753439,-29824.61636774335
1712124753479,-30258.558522447944
1712124753519,-33002.62521190476
1712124753559,-30258.558522447944
1712124753599,-29824.61636774335
1712124753639,-29824.61636774335
1712124753679,-30258.558522447944
1712124753719,-33002.62521190476
1712124753759,-35781.2274105777
1712124753799,-36573.6418898846
1712124753839,-33002.62521190476
1712124753879,-30258.558522447944
1712124753919,-25161.626739600208
1712124753959,-22955.904513062444
1712124753999,-20851.0727879263
1712124754039,-19892.204975911416
1712124754079,-18790.362305725925
1712124754119,-10969.902674788842
1712124754159,-10969.902674788842
1712124754199,-10969.902674788842
1712124754239,-10969.902674788842
1712124754279,-8834.383114558877
1712124754319,-6480.924435895402
1712124754359,-5144.034634295385
1712124754399,-5144.034634295385
1712124754439,-3893.1439794760663
1712124754479,-1968.1871957969852
1712124754519,-1968.1871957969852
1712124754559,-1968.1871957969852
1712124754599,-1968.1871957969852
1712124754639,-1968.1871957969852
1712124754679,-1968.1871957969852
1712124754719,5589.616641876288
1712124754759,6345.613826261368
1712124754799,6527.122925967909
1712124754839,6993.360973686911
1712124754879,7384.24911745335
1712124754919,7384.24911745335
1712124754959,11270.961610329337
1712124754999,11270.961610329337
1712124755039,11270.961610329337
1712124755079,11270.961610329337
1712124755119,7384.24911745335
1712124755159,6993.360973686911
1712124755199,1950.1221354976296
1712124755239,-11417.857310262043
1712124755279,-14108.207196997479
1712124755319,-19690.907600899693
1712124755359,-21579.712420977652
1712124755399,-14108.207196997479
1712124755439,-14108.207196997479
1712124755479,1950.1221354976296
1712124755519,4249.632881350815
1712124755559,1950.1221354976296
1712124755599,-5157.4014522647485
1712124755639,-17409.382323227823
1712124755679,-21284.14274876984
1712124755719,-23056.82484546653
1712124755759,-26193.407030624803
1712124755799,-26193.407030624803
1712124755839,-26193.407030624803
1712124755879,-26193.407030624803
1712124755919,-21284.14274876984
1712124755959,-17409.382323227823
1712124755999,-17409.382323227823
1712124756039,-17409.382323227823
1712124756079,-5157.4014522647485
1712124756119,-4333.850116100628
1712124756159,-1569.479204320116
1712124756199,3217.118183462415
1712124756239,3217.118183462415
1712124756279,3217.118183462415
1712124756319,3217.118183462415
1712124756359,3217.118183462415
1712124756399,3217.118183462415
1712124756439,3217.118183462415
1712124756479,3217.118183462415
1712124756519,3217.118183462415
1712124756559,3217.118183462415
1712124756599,5811.136773455422
1712124756639,5811.136773455422
1712124756679,5811.136773455422
1712124756719,5811.136773455422
1712124756759,5811.136773455422
1712124756799,16655.435447911266
1712124756839,18578.54720109026
1712124756879,20007.272918472067
1712124756919,34110.94111086312
1712124756959,35423.9682437852
1712124756999,35423.9682437852
1712124757039,35423.9682437852
1712124757079,34110.94111086312
1712124757119,16655.435447911266
1712124757159,5811.136773455422
1712124757199,-3659.5248174297158
1712124757239,-3659.5248174297158
1712124757279,-3659.5248174297158
1712124757319,-2724.7366645343136
1712124757359,-1400.4243040960282
1712124757399,-446.4676576512866
1712124757439,-1400.4243040960282
1712124757528,-2711.164448039839
1712124757569,-2711.164448039839
1712124757609,-2711.164448039839
1712124757649,-2711.164448039839
1712124757689,-2711.164448039839
1712124757729,-2711.164448039839
1712124757770,-2711.164448039839
1712124757809,-2711.164448039839
1712124757849,-2711.164448039839
1712124757889,-1400.4243040960282
1712124757929,-781.9260308253579
1712124757970,-446.4676576512866
1712124758010,1882.79710296751
1712124758050,1882.79710296751
1712124758090,1882.79710296751
1712124758130,1882.79710296751
1712124758171,1882.79710296751
1712124758210,1882.79710296751
1712124758250,1882.79710296751
1712124758290,1882.79710296751
1712124758331,3589.6863295915537
1712124758371,4378.34354092693
1712124758411,7351.411820542999
1712124758451,16001.746606646804
1712124758491,24564.239527739584
1712124758531,27462.377797868336
1712124758572,56420.400220609736
1712124758611,56420.400220609736
1712124758651,56420.400220609736
1712124758692,56420.400220609736
1712124758731,80005.063218266
1712124758772,80005.063218266
1712124758812,80005.063218266
1712124758852,80005.063218266
1712124758892,80005.063218266
1712124758932,80005.063218266
1712124758973,80005.063218266
1712124759012,80005.063218266
1712124759053,80005.063218266
1712124759093,80005.063218266
1712124759133,80005.063218266
1712124759174,58792.4371002214
1712124759213,55842.03962945077
1712124759253,54877.916333764326
1712124759293,54500.18066896009
1712124759333,49655.28489150666
1712124759374,49305.72232610732
1712124759414,48860.83997312933
1712124759454,47662.39995540073
1712124759494,43182.97312956839
1712124759534,42931.675968147814
1712124759575,41864.429330709856
1712124759614,38215.07813783805
1712124759654,30563.763169192243
1712124759694,24638.20787037094
1712124759734,19258.204622611403
1712124759775,16630.81848461111
1712124759815,15410.102832757868
1712124759855,15147.05962862866
1712124759895,14048.733981953468
1712124759935,12341.600493015721
1712124759976,10665.060088884551
1712124760015,9372.039721719455
1712124760055,9372.039721719455
1712124760095,9372.039721719455
1712124760136,9372.039721719455
1712124760176,9372.039721719455
1712124760216,9372.039721719455
1712124760256,8996.389191831462
1712124760296,8716.051332183182
1712124760336,7518.816207604716
1712124760377,7518.816207604716
1712124760416,7518.816207604716
1712124760458,7518.816207604716
1712124760497,8227.9205562165
1712124760537,8716.051332183182
1712124760578,8716.051332183182
1712124760617,8716.051332183182
1712124760657,8716.051332183182
1712124760697,8716.051332183182
1712124760738,8716.051332183182
1712124760778,8716.051332183182
1712124760818,8716.051332183182
1712124760858,8716.051332183182
1712124760898,8491.965684016235
1712124760938,8227.9205562165
1712124760979,7492.007461175788
1712124761018,6751.579782515764
1712124761058,4058.241134951357
1712124761098,1053.4600972819608
1712124761138,-1115.0388301471248
1712124761179,-2424.8780536644626
1712124761219,-3816.268557694275
1712124761259,-4369.2114275237545
1712124761299,-4369.2114275237545
1712124761339,-4416.995167603949
1712124761379,-5016.344801394269
1712124761419,-5048.872147828806
1712124761459,-5170.266025544144
1712124761499,-5511.223179761786
1712124761539,-5621.352078672964
1712124761580,-5643.179305769969
1712124761619,-6315.618286962388
1712124761659,-6700.0658485724125
1712124761700,-6709.0395738524385
1712124761740,-7047.1635623411275
1712124761780,-7090.08484950196
1712124761820,-8437.204299403355
1712124761860,-9729.671316242777
1712124761900,-10062.058711740887
1712124761940,-10062.058711740887
1712124761981,-10062.058711740887
1712124762020,-10062.058711740887
1712124762061,-10062.058711740887
1712124762101,-10062.058711740887
1712124762141,-10062.058711740887
1712124762182,-10178.048060381785
1712124762221,-10941.901539464248
1712124762261,-10965.430179592222
1712124762302,-11131.88813993358
1712124762342,-11821.26744163828
1712124762383,-11732.912332918262
1712124762422,-11297.827240796294
1712124762462,-11297.827240796294
1712124762502,-11297.827240796294
1712124762543,-11297.827240796294
1712124762583,-11131.88813993358
1712124762623,-10941.901539464248
1712124762665,-10696.952787342481
1712124762705,-10696.952787342481
1712124762746,-10696.952787342481
1712124762787,-10696.952787342481
1712124762826,-10696.952787342481
1712124762866,-10696.952787342481
1712124762907,-10941.901539464248
1712124762947,-11297.827240796294
1712124762988,-11364.912916423287
1712124763027,-11732.912332918262
1712124763067,-11732.912332918262
1712124763108,-11732.912332918262
1712124763148,-11732.912332918262
1712124763189,-11732.912332918262
1712124763229,-11945.203646489652
1712124763269,-12011.98276940477
1712124763309,-12371.654234458692
1712124763349,-13307.781922796974
1712124763390,-14655.426569739357
1712124763430,-14655.426569739357
1712124763472,-14655.426569739357
1712124763511,-14655.426569739357
1712124763551,-14655.426569739357
1712124763592,-14655.426569739357
1712124763631,-14655.426569739357
1712124763671,-14655.426569739357
1712124763712,-14655.426569739357
1712124763752,-13307.781922796974
1712124763793,-12371.654234458692
1712124763832,-9243.957832869608
1712124763873,3332.6340345181525
1712124763913,7045.481834871462
1712124763953,7404.4869342655875
1712124763994,13230.191775999963
1712124764034,13756.605303526856
1712124764074,13756.605303526856
1712124764114,13756.605303526856
1712124764154,13756.605303526856
1712124764195,13756.605303526856
1712124764235,13756.605303526856
1712124764275,13756.605303526856
1712124764315,15752.607231137808
1712124764356,15752.607231137808
1712124764397,17173.11190304812
1712124764436,17431.426813309547
1712124764477,17431.426813309547
1712124764517,19093.580477550393
1712124764557,20070.697340546176
1712124764598,23433.28399430914
1712124764638,24166.099887021817
1712124764678,26876.964334730525
1712124764718,26876.964334730525
1712124764758,26876.964334730525
1712124764799,26876.964334730525
1712124764839,29708.142212216044
1712124764879,53149.160726127215
1712124764919,53149.160726127215
1712124764959,53149.160726127215
1712124765000,53149.160726127215
1712124765039,53149.160726127215
1712124765080,53149.160726127215
1712124765120,53149.160726127215
1712124765160,53149.160726127215
1712124765201,53149.160726127215
1712124765240,53149.160726127215
1712124765280,53149.160726127215
1712124765321,48917.939671764616
1712124765361,42791.059597831685
1712124765402,42658.477072339505
1712124765441,40781.935475676786
1712124765481,37485.038677650504
1712124765521,37330.02407427202
1712124765562,33387.057999417884
1712124765603,33057.04114073608
1712124765642,30131.898586223368
1712124765685,30131.898586223368
1712124765722,30131.898586223368
1712124765763,30131.898586223368
1712124765804,29185.068999602925
1712124765843,28875.01581491134
1712124765883,28875.01581491134
1712124765924,28875.01581491134
1712124765964,27684.699873007834
1712124766005,26983.532279778738
1712124766044,27684.699873007834
1712124766084,27684.699873007834
1712124766124,28875.01581491134
1712124766165,28875.01581491134
1712124766206,29185.068999602925
1712124766246,30778.524595255032
1712124766286,28875.01581491134
1712124766326,30778.524595255032
1712124766366,31553.215579806827
1712124766408,32356.281306399498
1712124766447,32356.281306399498
1712124766489,32356.281306399498
1712124766528,31553.215579806827
1712124766568,31336.441681877244
1712124766609,30778.524595255032
1712124766648,30778.524595255032
1712124766688,30778.524595255032
1712124766729,28192.031881156377
1712124766769,19135.613271048293
1712124766810,19135.613271048293
1712124766850,12559.385528431274
1712124766890,1463.7125584501773
1712124766930,-2366.2569221556187
1712124766970,-16865.328234330285
1712124767011,-21494.402653858066
1712124767051,-23625.793786540627
1712124767091,-23986.423878348432
1712124767131,-24445.9319763612
1712124767172,-25484.65159936063
1712124767213,-26258.128701694775
1712124767252,-26891.280309805647
1712124767292,-28661.993281152565
1712124767333,-28931.52741367137
1712124767373,-31315.077722323593
1712124767414,-31404.764082926326
1712124767453,-31404.764082926326
1712124767494,-31404.764082926326
1712124767534,-31315.077722323593
1712124767574,-28931.52741367137
1712124767615,-28661.993281152565
1712124767655,-26891.280309805647
1712124767695,-26891.280309805647
1712124767735,-25484.65159936063
1712124767775,-24445.9319763612
1712124767816,-23625.793786540627
1712124767856,-20224.640147112776
1712124767899,-12685.966356271878
1712124767936,-12685.966356271878
1712124767977,-12685.966356271878
1712124768018,-12685.966356271878
1712124768057,-12685.966356271878
1712124768097,-12685.966356271878
1712124768138,-12685.966356271878
1712124768178,-12685.966356271878
1712124768219,-12685.966356271878
1712124768258,-12685.966356271878
1712124768298,-12685.966356271878
1712124768339,-15461.286958834156
1712124768379,-27181.992983400356
1712124768420,-39103.07164409477
1712124768459,-41881.4757675142
1712124768499,-43097.97483185213
1712124768539,-46697.13633625209
1712124768580,-50532.87161489064
1712124768620,-52250.04735485604
1712124768660,-54066.267839455046
1712124768700,-54109.5918324301
1712124768740,-56883.26461327588
1712124768780,-56883.26461327588
1712124768821,-56883.26461327588
1712124768861,-57520.64163908106
1712124768901,-57618.50630997657
1712124768941,-58421.761284165084
1712124768981,-62948.57527290657
1712124769022,-63037.16014205967
1712124769062,-63933.909473187756
1712124769102,-65200.85114212707
1712124769142,-72166.24213576643
1712124769182,-65200.85114212707
1712124769223,-63037.16014205967
1712124769263,-63037.16014205967
1712124769303,-63037.16014205967
1712124769343,-63037.16014205967
1712124769383,-63037.16014205967
1712124769424,-63037.16014205967
1712124769464,-63037.16014205967
1712124769505,-63037.16014205967
1712124769545,-63037.16014205967
1712124769584,-45486.06313361414
1712124769623,-35898.90312020923
1712124769662,-34943.98091105977
1712124769701,-34943.98091105977
1712124769740,-34943.98091105977
1712124769779,-34765.259189595
1712124769818,-34095.01520781848
1712124769857,-33854.771834183484
1712124769896,-33569.4331208705
1712124769935,-32531.219730227487
1712124769974,-31544.010815981776
1712124770013,-30241.58443512302
1712124770052,-30241.58443512302
1712124770091,-30241.58443512302
1712124770130,-30241.58443512302
1712124770169,-29886.5898395204
1712124770208,-29886.5898395204
1712124770247,-29886.5898395204
1712124770286,-29886.5898395204
1712124770325,-28795.82700490835
1712124770364,-27628.220227758866
1712124770404,-25494.735028225696
1712124770444,-24165.621631692164
1712124770484,-24004.97354227188
1712124770524,-23795.158759202808
1712124770564,-23725.975087773055
1712124770604,-22895.570838036016
1712124770644,-22862.250911094714
1712124770684,-22074.407521132613
1712124770724,-21716.134514934383
1712124770764,-21663.913068013964
1712124770804,-20058.455409141257
1712124770844,-19779.38968451973
1712124770884,-19672.665391976945
1712124770924,-18936.447686050553
1712124770964,-17435.250420490745
1712124771004,-14486.16624144651
1712124771044,-12542.085527335526
1712124771084,-11106.828584778588
1712124771124,-9229.345834469656
1712124771164,-8861.49960681959
1712124771204,-8655.401876240037
1712124771244,-8647.586357922759
1712124771284,-8070.667964781169
1712124771324,-7232.8659924031235
1712124771364,-7103.8724479964
1712124771404,-6384.355482592247
1712124771444,-6362.78490461316
1712124771484,-5479.593402316095
1712124771524,-5328.281183649786
1712124771564,-4959.96298276633
1712124771604,-3963.6933269659057
1712124771644,-3529.4364712894894
1712124771684,-3529.4364712894894
1712124771724,-1789.8166192332283
1712124771764,-228.16816588747315
1712124771804,813.0361894322559
1712124771844,2070.2314871319104
1712124771884,2519.541051191278
1712124771924,2586.1225405421574
1712124771964,2777.2277463728096
1712124772004,3603.397708108183
1712124772044,4082.580471087247
1712124772084,4995.220840487629
1712124772124,5197.2377602451015
1712124772164,5517.380144339986
1712124772204,6039.895384893054
1712124772244,6053.912405272946
1712124772284,6484.934430461377
1712124772324,7231.079326612875
1712124772364,7285.6050819349475
1712124772404,7285.6050819349475
1712124772444,7285.6050819349475
1712124772484,8680.543286659755
1712124772524,9150.957604178693
1712124772564,12305.895575358067
1712124772604,12305.895575358067
1712124772644,12305.895575358067
1712124772684,12305.895575358067
1712124772724,12305.895575358067
1712124772764,12305.895575358067
1712124772804,12305.895575358067
1712124772844,12305.895575358067
1712124772884,12305.895575358067
1712124772924,12305.895575358067
1712124772964,12305.895575358067
1712124773004,12061.555828601355
1712124773044,12061.555828601355
1712124773084,12061.555828601355
1712124773124,12061.555828601355
1712124773164,12061.555828601355
1712124773204,12061.555828601355
1712124773244,12061.555828601355
1712124773284,11687.340222550323
1712124773324,11543.699625023874
1712124773364,11543.699625023874
1712124773404,11543.699625023874
1712124773444,11543.699625023874
1712124773484,11687.340222550323
1712124773524,12173.640623305924
1712124773564,12343.524991594255
1712124773604,12593.840295291506
1712124773644,13038.774222985143
1712124773684,14056.6078998351
1712124773724,14207.419616890606
1712124773764,14329.16493428615
1712124773804,14344.062499107793
1712124773844,14414.043572852388
1712124773884,14722.894570643315
1712124773924,15236.358247785829
1712124773964,15762.538276355248
1712124774004,16191.31270528934
1712124774044,16191.31270528934
1712124774084,16191.31270528934
1712124774124,16191.31270528934
1712124774164,16191.31270528934
1712124774204,16191.31270528934
1712124774244,16191.31270528934
1712124774284,16191.31270528934
1712124774324,16191.31270528934
1712124774364,16191.31270528934
1712124774404,16191.31270528934
1712124774444,14789.191654813709
1712124774484,14789.191654813709
1712124774524,14789.191654813709
1712124774564,14789.191654813709
1712124774604,14789.191654813709
1712124774644,14789.191654813709
1712124774684,14789.191654813709
1712124774724,14789.191654813709
1712124774764,14588.344155487139
1712124774804,14571.978451392613
1712124774844,14401.167734206654
1712124774884,14136.649213667959
1712124774924,14113.796295435168
1712124774964,13905.860092543531
1712124775004,13746.951939184684
1712124775044,13678.071802705294
1712124775084,13678.071802705294
1712124775124,13678.071802705294
1712124775164,13678.071802705294
1712124775204,12197.179358105175
1712124775244,12197.179358105175
1712124775284,12197.179358105175
1712124775324,12197.179358105175
1712124775364,12197.179358105175
1712124775404,12197.179358105175
1712124775444,12197.179358105175
1712124775484,12197.179358105175
1712124775524,12197.179358105175
1712124775564,12197.179358105175
1712124775604,12073.152595191263
1712124775644,11640.767207523808
1712124775684,11640.767207523808
1712124775724,11640.767207523808
1712124775764,11640.767207523808
1712124775804,11640.767207523808
1712124775844,11640.767207523808
1712124775884,11640.767207523808
1712124775924,11640.767207523808
1712124775964,11880.694183056476
1712124776004,12197.179358105175
1712124776044,12353.469725052826
1712124776084,12353.469725052826
1712124776124,12353.469725052826
1712124776164,12353.469725052826
1712124776204,12353.469725052826
1712124776244,12353.469725052826
1712124776284,12353.469725052826
1712124776324,12353.469725052826
1712124776364,12353.469725052826
1712124776404,11880.694183056476
1712124776444,11880.694183056476
1712124776484,11880.694183056476
1712124776524,11880.694183056476
1712124776564,11880.694183056476
1712124776604,11880.694183056476
1712124776644,11880.694183056476
1712124776684,11880.694183056476
1712124776724,11880.694183056476
1712124776764,11880.694183056476
1712124776804,10457.734922377625
1712124776844,9596.141110633966
1712124776884,9350.665626675822
1712124776924,9350.665626675822
1712124776964,9350.665626675822
1712124777004,9350.665626675822
1712124777044,9350.665626675822
1712124777084,9350.665626675822
1712124777124,9350.665626675822
1712124777164,9306.124000104377
1712124777204,9223.093392519513
1712124777244,9024.498740043025
1712124777284,8949.747907358222
1712124777324,8857.397906952538
1712124777364,8811.143813108094
1712124777404,8805.928581713466
1712124777444,8679.046024281997
1712124777484,8452.755816296907
1712124777524,8452.755816296907
1712124777564,8452.755816296907
1712124777604,6686.528262541862
1712124777644,6495.514653339982
1712124777684,6495.514653339982
1712124777724,6495.514653339982
1712124777764,6495.514653339982
1712124777804,6495.514653339982
1712124777844,6495.514653339982
1712124777884,6495.514653339982
1712124777924,6495.514653339982
1712124777964,6036.461744516389
1712124778004,6006.879359259736
1712124778044,5699.146365402266
1712124778084,5699.146365402266
1712124778124,6006.879359259736
1712124778164,6006.879359259736
1712124778204,5926.076901626075
1712124778244,5699.146365402266
1712124778284,5699.146365402266
1712124778324,5926.076901626075
1712124778364,6073.760491807945
1712124778404,6717.726748459972
1712124778444,6735.256779162213
1712124778484,6921.941615246469
1712124778524,6986.330340696033
1712124778564,7064.255861915881
1712124778604,7064.255861915881
1712124778644,7064.255861915881
1712124778684,6986.330340696033
1712124778724,6717.726748459972
1712124778764,6361.823709412944
1712124778804,6361.823709412944
1712124778844,6361.823709412944
1712124778884,6361.823709412944
1712124778924,6361.823709412944
1712124778964,6073.760491807945
1712124779004,5926.076901626075
1712124779044,5421.261293707881
1712124779084,5342.7627794067375
1712124779124,4554.795318285003
1712124779164,4258.883624274982
1712124779204,4255.457907289267
1712124779244,4255.457907289267
1712124779284,4255.457907289267
1712124779324,4255.457907289267
1712124779364,4255.457907289267
1712124779404,4189.961345381569
1712124779444,3962.6459916415624
1712124779484,3654.5257322588004
1712124779524,3630.1211789934896
1712124779564,3627.138619914418
1712124779604,3526.1788947070017
1712124779644,2887.532711849548
1712124779684,2841.96524638799
1712124779724,2737.640763777541
1712124779764,2519.328441912774
1712124779804,2330.111417947104
1712124779844,236.5609558946453
1712124779884,-1574.5595516874455
1712124779924,-1574.5595516874455
1712124779964,-1574.5595516874455
1712124780004,-1574.5595516874455
1712124780044,-1574.5595516874455
1712124780084,-1574.5595516874455
1712124780124,-1574.5595516874455
1712124780164,-1574.5595516874455
1712124780204,-1574.5595516874455
1712124780244,-1719.9151859022677
1712124780284,-2766.297152743209
1712124780324,-2816.5522890938446
1712124780364,-2816.5522890938446
1712124780404,-2816.5522890938446
1712124780444,-2816.5522890938446
1712124780484,-2816.5522890938446
1712124780524,-3456.8811511266977
1712124780564,-3276.2449568768498
1712124780604,-2844.7720900797285
1712124780644,-2816.5522890938446
1712124780684,-1924.7998292944394
1712124780724,-1924.7998292944394
1712124780764,-1924.7998292944394
1712124780804,-1924.7998292944394
1712124780844,-1924.7998292944394
1712124780884,-1924.7998292944394
1712124780924,-1924.7998292944394
1712124780964,-1924.7998292944394
1712124781004,-1924.7998292944394
1712124781044,-2844.7720900797285
1712124781084,-2844.7720900797285
1712124781124,-2844.7720900797285
1712124781164,-2844.7720900797285
1712124781204,-2569.9846487953328
1712124781244,-2569.9846487953328
1712124781284,-2569.9846487953328
1712124781324,-2569.9846487953328
1712124781364,-2569.9846487953328
1712124781404,-2213.5728097413667
1712124781444,-1924.7998292944394
1712124781484,-1924.7998292944394
1712124781524,-1662.236268253997
1712124781573,-1662.236268253997
1712124781613,-1662.236268253997
1712124781653,-1662.236268253997
1712124781693,-1662.236268253997
1712124781733,-1662.236268253997
1712124781773,-1662.236268253997
1712124781814,-1662.236268253997
1712124781853,-1662.236268253997
1712124781894,-1662.236268253997
1712124781933,-1389.462372855749
1712124781974,-1342.9794626603834
1712124782015,-1329.2846375820227
1712124782054,-599.6029623218346
1712124782094,-289.3830497406889
1712124782134,-107.46907651890069
1712124782174,-10.800756023265421
1712124782215,99.6660358516965
1712124782254,534.8314519980922
1712124782294,1174.8677748783957
1712124782334,1187.0016660154797
1712124782375,1457.5917755290866
1712124782415,1479.7635888892692
1712124782455,1753.1054490115494
1712124782495,2230.093958904268
1712124782535,2259.927871857537
1712124782575,2291.744013356045
1712124782616,3257.6283492031507
1712124782655,3302.7499537181575
1712124782695,3302.7499537181575
1712124782736,3700.0923491760623
1712124782776,3700.0923491760623
1712124782816,3967.039435461862
1712124782856,4235.878747976385
1712124782896,4401.522778978106
1712124782936,4570.6273274624255
1712124782976,4851.626886291429
1712124783017,4903.795649121515
1712124783056,4992.979616015917
1712124783097,5014.169645983959
1712124783137,5116.278388298117
1712124783177,5857.545994055457
1712124783218,5898.737946917303
1712124783257,6131.139159854967
1712124783297,6131.139159854967
1712124783337,6131.139159854967
1712124783377,6131.139159854967
1712124783418,6131.139159854967
1712124783457,6131.139159854967
1712124783497,6131.139159854967
1712124783537,6131.139159854967
1712124783578,6131.139159854967
1712124783618,6131.139159854967
1712124783658,6131.139159854967
1712124783698,6131.139159854967
1712124783738,6131.139159854967
1712124783778,6131.139159854967
1712124783819,6131.139159854967
1712124783858,6131.139159854967
1712124783898,6208.526232939679
1712124783939,6208.526232939679
1712124783979,6208.526232939679
1712124784019,6208.526232939679
1712124784059,6208.526232939679
1712124784099,6208.526232939679
1712124784139,6208.526232939679
1712124784179,6208.526232939679
1712124784220,6208.526232939679
1712124784259,6208.526232939679
1712124784300,6100.965258445591
1712124784340,6148.9537631375715
1712124784380,6379.973212161567
1712124784421,6922.949698850978
1712124784460,7340.653536559083
1712124784501,7367.711683921516
1712124784540,7367.711683921516
1712124784580,7492.746763651492
1712124784621,7641.686064165086
1712124784660,7711.350467721932
1712124784700,7816.805366144283
1712124784741,8028.6980119715445
1712124784781,8202.92095300369
1712124784821,8202.92095300369
1712124784861,8616.663426369661
1712124784901,8616.663426369661
1712124784941,8616.663426369661
1712124784981,8616.663426369661
1712124785022,8616.663426369661
1712124785062,8527.351509559434
1712124785102,8527.351509559434
1712124785142,8527.351509559434
1712124785182,8527.351509559434
1712124785223,8527.351509559434
1712124785262,8527.351509559434
1712124785302,8527.351509559434
1712124785342,8527.351509559434
1712124785383,8527.351509559434
1712124785423,8527.351509559434
1712124785463,8527.351509559434
1712124785503,7573.1059161317535
1712124785543,7503.572661349084
1712124785583,7503.572661349084
1712124785624,7503.572661349084
1712124785663,7503.572661349084
1712124785703,7503.572661349084
1712124785744,7503.572661349084
1712124785784,7503.572661349084
1712124785824,7503.572661349084
1712124785864,7486.084944209084
1712124785904,7361.030274875928
1712124785944,7282.228720148094
1712124785984,7282.228720148094
1712124786025,7107.928592949873
1712124786065,7107.928592949873
1712124786105,7097.707175320713
1712124786145,7097.707175320713
1712124786185,7097.707175320713
1712124786226,7097.707175320713
1712124786265,6107.382194638252
1712124786305,5297.191127497936
1712124786346,4624.752838740824
1712124786386,4492.16927761049
1712124786426,4277.447138411924
1712124786466,4277.447138411924
1712124786506,4277.447138411924
1712124786546,4277.447138411924
1712124786586,4277.447138411924
1712124786627,4277.447138411924
1712124786667,4273.322527565062
1712124786707,4051.942523548845
1712124786747,4048.1318183806725
1712124786787,3963.019316642545
1712124786828,3963.019316642545
1712124786867,3807.7661665566266
1712124786907,3511.2553608203307
1712124786948,3446.8371376243886
1712124786988,3446.8371376243886
1712124787029,3446.8371376243886
1712124787068,3372.184788702987
1712124787108,1624.2454648537096
1712124787148,1243.8741467501968
1712124787189,1209.4862836101092
1712124787229,1182.348823275417
1712124787269,1182.348823275417
1712124787309,1182.348823275417
1712124787349,1182.348823275417
1712124787389,1182.348823275417
1712124787430,1182.348823275417
1712124787469,1157.325522907311
1712124787511,1103.1679116976447
1712124787550,1103.1679116976447
1712124787590,1103.1679116976447
1712124787631,1000.5824205919635
1712124787670,1000.5824205919635
1712124787710,879.1568643383216
1712124787750,717.479518066626
1712124787790,627.3179008029401
1712124787831,681.2644688384607
1712124787870,681.2644688384607
1712124787910,879.1568643383216
1712124787950,879.1568643383216
1712124787990,879.1568643383216
1712124788031,879.1568643383216
1712124788071,1753.0336987474002
1712124788111,1753.0336987474002
1712124788151,1753.0336987474002
1712124788191,1753.0336987474002
1712124788232,1753.0336987474002
1712124788271,681.2644688384607
1712124788311,681.2644688384607
1712124788351,681.2644688384607
1712124788391,681.2644688384607
1712124788432,681.2644688384607
1712124788471,681.2644688384607
1712124788512,681.2644688384607
1712124788552,681.2644688384607
1712124788592,681.2644688384607
1712124788633,926.2447360160295
1712124788672,1506.2396055830177
1712124788712,1506.2396055830177
1712124788752,1506.2396055830177
1712124788792,1506.2396055830177
1712124788833,1506.2396055830177
1712124788873,1506.2396055830177
1712124788913,1506.2396055830177
1712124788953,1506.2396055830177
1712124788993,1506.2396055830177
1712124789034,1506.2396055830177
1712124789073,926.2447360160295
1712124789113,926.2447360160295
1712124789153,926.2447360160295
1712124789193,926.2447360160295
1712124789234,926.2447360160295
1712124789274,926.2447360160295
1712124789314,926.2447360160295
1712124789354,926.2447360160295
1712124789394,926.2447360160295
1712124789435,926.2447360160295
1712124789474,-998.1886811731383
1712124789514,-1619.7926108795218
1712124789554,-1619.7926108795218
1712124789595,-1619.7926108795218
1712124789635,-1619.7926108795218
1712124789674,-1619.7926108795218
1712124789715,-1619.7926108795218
1712124789755,-1619.7926108795218
1712124789795,-1619.7926108795218
1712124789836,-1619.7926108795218
1712124789875,-1945.926996477414
1712124789915,-2427.803971530404
1712124789955,-2676.6288858470507
1712124789995,-2812.2153921630234
1712124790036,-3397.297313468065
1712124790076,-3397.297313468065
1712124790116,-3397.297313468065
1712124790156,-3397.297313468065
1712124790196,-3397.297313468065
1712124790236,-3397.297313468065
1712124790276,-3640.1893573021516
1712124790316,-5067.17837965535
1712124790356,-5067.17837965535
1712124790396,-5067.17837965535
1712124790437,-5067.17837965535
1712124790476,-5067.17837965535
1712124790518,-5067.17837965535
1712124790557,-5067.17837965535
1712124790597,-5067.17837965535
1712124790638,-5067.17837965535
1712124790677,-5067.17837965535
1712124790717,-5067.17837965535
1712124790757,-5147.099055100698
1712124790797,-5147.099055100698
1712124790838,-5072.845800983487
1712124790877,-4782.069178756326
1712124790918,-4639.67327246163
1712124790958,-4639.67327246163
1712124790998,-4639.67327246163
1712124791038,-4400.3827179889195
1712124791078,-4216.87092824094
1712124791118,-3974.4781554630026
1712124791158,-3459.775816523237
1712124791198,-3278.5012555262074
1712124791239,-2993.652872210834
1712124791279,-2883.5046380886342
1712124791318,-2883.5046380886342
1712124791358,-2883.5046380886342
1712124791399,-2883.5046380886342
1712124791439,-2883.5046380886342
1712124791479,-2883.5046380886342
1712124791519,-2883.5046380886342
1712124791559,-2883.5046380886342
1712124791599,-2883.5046380886342
1712124791640,-2797.7827641572803
1712124791679,-2797.7827641572803
1712124791719,-2301.860406518681
1712124791760,-2301.860406518681
1712124791800,-2301.860406518681
1712124791840,-2301.860406518681
1712124791880,-2301.860406518681
1712124791920,-2240.475070902612
1712124791960,-2138.73460974684
1712124792000,-1637.0388899075333
1712124792041,-1637.0388899075333
1712124792080,-1637.0388899075333
1712124792121,-1637.0388899075333
1712124792161,-1637.0388899075333
1712124792201,-1637.0388899075333
1712124792242,-1637.0388899075333
1712124792281,-1637.0388899075333
1712124792321,-1637.0388899075333
1712124792362,-1637.0388899075333
1712124792402,-386.8052915695589
1712124792443,-155.96745010698214
1712124792482,328.72063049441203
1712124792522,409.34150050068274
1712124792562,753.6480937162414
1712124792603,916.4589523831382
1712124792643,1716.5547296477016
1712124792683,1774.8356741531752
1712124792723,1826.0246913677547
1712124792763,2431.2775411121547
1712124792803,2640.05898627406
1712124792844,2766.5250670756213
1712124792883,2903.4132046794984
1712124792923,3130.8795396874193
1712124792964,3310.6219738612417
1712124793004,3422.2121814349666
1712124793045,3422.2121814349666
1712124793084,4152.012992640259
1712124793124,4221.864600175759
1712124793164,4221.864600175759
1712124793204,4287.842958266381
1712124793245,4755.403354019858
1712124793285,4755.403354019858
1712124793325,4755.403354019858
1712124793365,4755.403354019858
1712124793405,4755.403354019858
1712124793446,4842.3064028145745
1712124793485,4891.3149200771
1712124793527,4944.288595047081
1712124793566,4944.288595047081
1712124793648,4944.288595047081
1712124793689,4944.288595047081
1712124793729,4944.288595047081
1712124793769,4944.288595047081
1712124793809,4891.3149200771
1712124793849,4842.3064028145745
1712124793890,4708.870748874964
1712124793929,4493.515945616178
1712124793970,4493.515945616178
1712124794010,4493.515945616178
1712124794050,4493.515945616178
1712124794091,4493.515945616178
1712124794130,4195.365318031516
1712124794170,3986.6023112428375
1712124794210,3602.589358722791
1712124794250,1976.4172333425377
1712124794291,748.5485399216413
1712124794331,748.5485399216413
1712124794370,748.5485399216413
1712124794411,748.5485399216413
1712124794451,748.5485399216413
1712124794492,748.5485399216413
1712124794531,748.5485399216413
1712124794571,748.5485399216413
1712124794611,352.65948198828846
1712124794651,277.83747070794925
1712124794692,230.46915742428973
1712124794732,205.0229481770657
1712124794772,205.0229481770657
1712124794812,181.70779435476288
1712124794852,181.70779435476288
1712124794893,181.70779435476288
1712124794932,94.86069735325873
1712124794972,-289.40643504587933
1712124795012,-930.0533837932162
1712124795052,-930.0533837932162
1712124795093,-930.0533837932162
1712124795133,-930.0533837932162
1712124795173,-930.0533837932162
1712124795213,-930.0533837932162
1712124795253,-930.0533837932162
1712124795294,-930.0533837932162
1712124795333,-930.0533837932162
1712124795373,-930.0533837932162
1712124795413,-930.0533837932162
1712124795453,-1035.7778983300086
1712124795494,-1035.7778983300086
1712124795534,-1035.7778983300086
1712124795574,-1035.7778983300086
1712124795614,-1035.7778983300086
1712124795654,-1035.7778983300086
1712124795695,-1035.7778983300086
1712124795734,-1035.7778983300086
1712124795774,-1035.7778983300086
1712124795814,-1035.7778983300086
1712124795854,-1955.7151814796962
1712124795895,-1955.7151814796962
1712124795934,-1955.7151814796962
1712124795974,-1955.7151814796962
1712124796015,-1955.7151814796962
1712124796055,-1955.7151814796962
