Timestamp,Cleaned PPG
1711437340286,0.0
1711437340327,0.0
1711437340369,0.0
1711437340408,0.0
1711437340447,0.0
1711437340487,0.0
1711437340527,0.0
1711437340567,0.0
1711437340608,0.0
1711437340648,0.0
1711437340688,0.0
1711437340728,0.0
1711437340768,0.0
1711437340809,0.0
1711437340848,0.0
1711437340889,0.0
1711437340929,0.0
1711437340969,0.0
1711437341010,0.0
1711437341049,0.0
1711437341089,0.0
1711437341130,0.0
1711437341170,0.0
1711437341211,0.0
1711437341250,0.0
1711437341290,0.0
1711437341330,0.0
1711437341370,0.0
1711437341411,0.0
1711437341451,0.0
1711437341491,0.0
1711437341531,0.0
1711437341571,1111887.4459553487
1711437341612,1111887.4459553487
1711437341651,1111887.4459553487
1711437341691,1111887.4459553487
1711437341731,1111887.4459553487
1711437341771,1111887.4459553487
1711437341812,1111887.4459553487
1711437341852,1111887.4459553487
1711437341892,1111887.4459553487
1711437341932,1111887.4459553487
1711437341972,1111887.4459553487
1711437342013,1043147.6933841095
1711437342052,977697.2956094332
1711437342092,917442.7681663586
1711437342132,860117.1712808423
1711437342172,806937.1118953158
1711437342214,756167.9223918419
1711437342253,709094.7335222093
1711437342293,664556.0900355573
1711437342333,621673.7173263943
1711437342373,579485.0985841155
1711437342414,543016.3001005964
1711437342453,506841.7155085618
1711437342493,476475.53034572117
1711437342533,445834.65095869824
1711437342576,414927.1093078735
1711437342615,395088.1908717286
1711437342654,374583.4700841219
1711437342694,349015.5468530359
1711437342734,321997.8898912696
1711437342774,281199.4673252036
1711437342815,252812.55689244182
1711437342854,228945.91168830544
1711437342894,217778.96836284362
1711437342935,209448.19823888643
1711437342974,201814.15302566648
1711437343016,189543.30368514266
1711437343055,178833.35519820475
1711437343095,169683.6175400694
1711437343135,159028.07373075048
1711437343175,158084.8866400472
1711437343216,151990.0573552302
1711437343255,142786.79018961382
1711437343296,133924.4825561992
1711437343336,125039.59425290301
1711437343376,117062.94889380923
1711437343417,116451.82574635069
1711437343456,106771.66689644894
1711437343496,96313.39567800099
1711437343536,94815.63684911677
1711437343576,91620.55320251454
1711437343617,88786.21615033294
1711437343656,86666.33497103583
1711437343697,81768.17339063482
1711437343737,80687.2233328782
1711437343777,79617.35050409287
1711437343818,75343.60231060674
1711437343857,67696.021449978
1711437343897,66375.15683630388
1711437343937,64731.20707816584
1711437343977,60232.65125871217
1711437344018,58766.815404939465
1711437344058,56165.97485261108
1711437344098,54676.38038058556
1711437344138,52305.89472966362
1711437344178,48650.635700616986
1711437344219,48379.70611607004
1711437344258,46131.88446427323
1711437344298,41432.80250466429
1711437344338,39966.2703178036
1711437344379,32906.955229441635
1711437344419,32085.38928945083
1711437344459,24785.447990598623
1711437344499,23843.5643105458
1711437344539,22491.878112330567
1711437344579,20529.21436257707
1711437344620,17699.53071249649
1711437344659,15545.040202165488
1711437344699,14270.434675771743
1711437344740,13700.76656545396
1711437344782,13514.419604529627
1711437344820,7424.973290938884
1711437344860,6263.495255910326
1711437344900,1880.4751462643035
1711437344940,-144.63967644097283
1711437344980,-3254.5597543586046
1711437345021,-3550.6714050387964
1711437345060,-5922.387770510279
1711437345101,-6319.834007189609
1711437345141,-7170.552828405984
1711437345181,-7440.683545490727
1711437345222,-7701.013882435393
1711437345261,-10580.363272555172
1711437345301,-11107.046968332492
1711437345341,-12140.008869870566
1711437345381,-12664.282907095738
1711437345422,-12822.618088270538
1711437345462,-12822.618088270538
1711437345502,-12822.618088270538
1711437345542,-12822.618088270538
1711437345582,-12822.618088270538
1711437345623,-12664.282907095738
1711437345662,-12664.282907095738
1711437345703,-12664.282907095738
1711437345743,-12664.282907095738
1711437345783,-12664.282907095738
1711437345824,-12664.282907095738
1711437345863,-12634.22199398093
1711437345903,-12153.31201679632
1711437345943,-9501.347772625973
1711437345983,-9383.996164315147
1711437346024,-9383.996164315147
1711437346064,-8346.40168392472
1711437346104,-8346.40168392472
1711437346144,-8346.40168392472
1711437346184,-8079.3912993771955
1711437346225,-8046.966503521195
1711437346264,-7012.32458997122
1711437346305,-6871.444871193729
1711437346345,-6068.461196324322
1711437346385,-5731.499337943504
1711437346426,-5731.499337943504
1711437346465,-5436.931383048184
1711437346505,-4435.862404447049
1711437346545,-4186.288224143907
1711437346585,-4037.2615880060475
1711437346626,-3938.867231874494
1711437346666,-2657.623479929287
1711437346706,-1149.2055095024407
1711437346746,-1149.2055095024407
1711437346786,-1149.2055095024407
1711437346827,-820.4096125010401
1711437346866,2453.4970557487104
1711437346907,3359.2706180280074
1711437346947,5497.495120553998
1711437346987,6096.251001775265
1711437347028,8004.552834537113
1711437347067,8267.131938890088
1711437347107,8267.131938890088
1711437347148,8267.131938890088
1711437347188,8267.131938890088
1711437347229,8267.131938890088
1711437347268,8267.131938890088
1711437347308,8534.348411158659
1711437347349,8267.131938890088
1711437347389,8004.552834537113
1711437347430,7455.146734105423
1711437347469,6773.240539787104
1711437347510,6096.251001775265
1711437347550,5497.495120553998
1711437347590,4148.785545127932
1711437347632,4148.785545127932
1711437347671,2165.4401337602176
1711437347711,2033.0434526521713
1711437347752,965.8811069638468
1711437347792,-4482.98688288196
1711437347833,-8050.579482153524
1711437347873,-10523.690200633835
1711437347913,-20042.363100381102
1711437347953,-20482.82788732415
1711437347993,-28626.41707105725
1711437348034,-32159.153795626014
1711437348074,-32383.307702086167
1711437348114,-36322.950334580615
1711437348154,-40563.202901893295
1711437348194,-92190.52427537413
1711437348235,-126283.07151826564
1711437348275,-162857.83857175778
1711437348315,-163952.30366332317
1711437348355,-167743.85585948825
1711437348395,-167743.85585948825
1711437348436,-167743.85585948825
1711437348476,-167743.85585948825
1711437348516,-167743.85585948825
1711437348556,-167743.85585948825
1711437348597,-167743.85585948825
1711437348637,-167743.85585948825
1711437348677,-167743.85585948825
1711437348717,-167743.85585948825
1711437348757,-167743.85585948825
1711437348797,-163263.6645958987
1711437348838,-153686.50906080194
1711437348878,-139919.09042341867
1711437348918,-138519.11602455354
1711437348958,-138519.11602455354
1711437348999,-138519.11602455354
1711437349040,-138519.11602455354
1711437349079,-135916.45989421755
1711437349119,-135907.6279347795
1711437349160,-135588.81749706622
1711437349200,-133887.07713032723
1711437349241,-133674.80022166297
1711437349280,-131883.2344450839
1711437349321,-131491.67082984094
1711437349361,-127784.63498099078
1711437349401,-127784.63498099078
1711437349442,-124963.3134891619
1711437349482,-116591.68004039489
1711437349522,-116160.80579160736
1711437349562,-115893.91098011844
1711437349602,-114699.33194835251
1711437349643,-113968.11173000047
1711437349683,-113106.79162928369
1711437349723,-107116.17176209344
1711437349763,-105117.37830767338
1711437349804,-100729.97025716957
1711437349845,-99311.18948179018
1711437349884,-97969.63253025035
1711437349925,-97138.7146309698
1711437349965,-96046.32549822424
1711437350005,-94742.70829955302
1711437350046,-91040.9489247175
1711437350085,-88813.60269582807
1711437350126,-87443.42359618051
1711437350166,-87443.42359618051
1711437350206,-86386.6275737409
1711437350247,-85876.50830115448
1711437350287,-85320.28037558356
1711437350327,-84250.16252795444
1711437350368,-83146.94593228912
1711437350408,-83146.94593228912
1711437350449,-83146.94593228912
1711437350488,-84250.16252795444
1711437350529,-85320.28037558356
1711437350569,-86386.6275737409
1711437350609,-86386.6275737409
1711437350650,-88813.60269582807
1711437350689,-88813.60269582807
1711437350730,-88813.60269582807
1711437350770,-90863.96678187558
1711437350810,-90863.96678187558
1711437350851,-90863.96678187558
1711437350891,-90863.96678187558
1711437350931,-90863.96678187558
1711437350971,-90863.96678187558
1711437351011,-85453.85318604624
1711437351052,-85453.85318604624
1711437351092,-85453.85318604624
1711437351132,-85453.85318604624
1711437351172,-85453.85318604624
1711437351212,-85453.85318604624
1711437351253,-71627.72941139573
1711437351292,-71254.34457881656
1711437351333,-71198.90601740545
1711437351373,-54252.03283012984
1711437351413,-36786.59190170537
1711437351454,-16653.25414287066
1711437351494,-743.1360591391567
1711437351533,10338.883049706928
1711437351574,12156.115604180377
1711437351614,12240.948178567458
1711437351655,14189.63399672648
1711437351694,14967.169759273762
1711437351734,15530.930921144085
1711437351774,22807.422347995453
1711437351814,25095.534037054982
1711437351856,26832.264903371222
1711437351895,34539.73543915665
1711437351935,37875.93758115964
1711437351975,41311.97945577465
1711437352015,41695.10125461919
1711437352056,41695.10125461919
1711437352095,41695.10125461919
1711437352135,41695.10125461919
1711437352176,41695.10125461919
1711437352216,41695.10125461919
1711437352257,41695.10125461919
1711437352296,41695.10125461919
1711437352333,41695.10125461919
1711437352373,37875.93758115964
1711437352413,34539.73543915665
1711437352455,32577.59255664656
1711437352494,26162.89887332241
1711437352534,25905.050281867385
1711437352574,25122.485223984346
1711437352614,18536.475519496715
1711437352655,18536.475519496715
1711437352695,18536.475519496715
1711437352734,18536.475519496715
1711437352775,18536.475519496715
1711437352815,18536.475519496715
1711437352856,18163.87155186804
1711437352895,18163.87155186804
1711437352935,18536.475519496715
1711437352975,18536.475519496715
1711437353015,18536.475519496715
1711437353057,18536.475519496715
1711437353096,18536.475519496715
1711437353136,18536.475519496715
1711437353176,18536.475519496715
1711437353216,18536.475519496715
1711437353257,18536.475519496715
1711437353296,18935.417737374548
1711437353336,20007.202463533264
1711437353377,20791.81790653756
1711437353417,20972.589051990304
1711437353458,20972.589051990304
1711437353497,20984.719817977864
1711437353537,20984.719817977864
1711437353577,20984.719817977864
1711437353617,21453.959061399102
1711437353659,24280.384762792382
1711437353698,24382.33773591509
1711437353738,25951.440553636756
1711437353778,25951.440553636756
1711437353818,25951.440553636756
1711437353859,25951.440553636756
1711437353899,25951.440553636756
1711437353939,28977.85408742167
1711437353979,29099.434281197144
1711437354019,30105.446662481176
1711437354060,30842.615283708554
1711437354099,32452.76590831997
1711437354139,33018.0698915706
1711437354179,33018.0698915706
1711437354219,33396.69776493264
1711437354261,33396.69776493264
1711437354300,34506.66333892476
1711437354340,34721.557192990556
1711437354380,34725.656209261855
1711437354420,35300.370309147984
1711437354461,35760.23671322968
1711437354501,36035.93926077755
1711437354541,36509.96415067604
1711437354581,38111.69015559275
1711437354621,38681.48144927132
1711437354662,39872.06773720076
1711437354701,40281.6788513402
1711437354741,40532.230510096066
1711437354781,41350.976063680835
1711437354822,41481.569055651315
1711437354863,41481.569055651315
1711437354902,41481.569055651315
1711437354942,41481.569055651315
1711437354982,41481.569055651315
1711437355022,41481.569055651315
1711437355063,41481.569055651315
1711437355103,41481.569055651315
1711437355143,41481.569055651315
1711437355183,41481.569055651315
1711437355223,41392.10900842352
1711437355264,41350.976063680835
1711437355303,38240.87973926612
1711437355344,36373.71690864256
1711437355384,33346.55269825179
1711437355424,33254.80000358308
1711437355465,32869.51805667672
1711437355504,32548.429982742527
1711437355544,31687.902498923708
1711437355585,31602.486288133077
1711437355625,30189.735141751124
1711437355666,23408.366163046565
1711437355705,22338.695731171407
1711437355745,22338.695731171407
1711437355785,22338.695731171407
1711437355826,22338.695731171407
1711437355867,22338.695731171407
1711437355906,22338.695731171407
1711437355946,22338.695731171407
1711437355986,22338.695731171407
1711437356026,22338.695731171407
1711437356067,21697.237274657004
1711437356107,21661.90340295108
1711437356147,21661.90340295108
1711437356187,21661.90340295108
1711437356227,21661.90340295108
1711437356268,21697.237274657004
1711437356307,22338.695731171407
1711437356347,22518.642072735587
1711437356387,23040.625485779485
1711437356427,23233.85799722094
1711437356468,23771.510973553406
1711437356507,24680.61336715985
1711437356548,24872.61885946081
1711437356588,24971.46065022191
1711437356628,25808.974868137855
1711437356669,25808.974868137855
1711437356708,25808.974868137855
1711437356748,25744.994451303734
1711437356788,25744.994451303734
1711437356828,25744.994451303734
1711437356869,25744.994451303734
1711437356908,25744.994451303734
1711437356948,25744.994451303734
1711437356989,25744.994451303734
1711437357029,25744.994451303734
1711437357070,25744.994451303734
1711437357109,25744.994451303734
1711437357149,25866.363590513123
1711437357189,25935.023353553843
1711437357229,25935.213261618745
1711437357270,25935.213261618745
1711437357310,25935.213261618745
1711437357350,25935.213261618745
1711437357390,25935.213261618745
1711437357430,25935.213261618745
1711437357471,26142.778279492166
1711437357510,26323.59334368538
1711437357550,26323.80114986468
1711437357590,26494.797224748414
1711437357630,26323.80114986468
1711437357671,26323.80114986468
1711437357710,26593.77145118406
1711437357751,26593.77145118406
1711437357791,26593.77145118406
1711437357831,26593.77145118406
1711437357872,26593.77145118406
1711437357911,26593.77145118406
1711437357951,26593.77145118406
1711437357991,26593.77145118406
1711437358031,26593.77145118406
1711437358072,26323.59334368538
1711437358112,26204.423934514634
1711437358152,26204.423934514634
1711437358192,26204.423934514634
1711437358232,26204.423934514634
1711437358273,26204.423934514634
1711437358312,26204.423934514634
1711437358352,26204.423934514634
1711437358392,26204.423934514634
1711437358432,26204.423934514634
1711437358474,26204.423934514634
1711437358513,25581.709484497085
1711437358553,25538.843444026075
1711437358593,25538.843444026075
1711437358633,25538.843444026075
1711437358674,25581.709484497085
1711437358713,26204.423934514634
1711437358753,26204.423934514634
1711437358793,26204.423934514634
1711437358834,26204.423934514634
1711437358874,26204.423934514634
1711437358914,26204.423934514634
1711437358954,25581.709484497085
1711437358994,24104.317133904202
1711437359034,23452.03800852946
1711437359075,22656.7152070764
1711437359114,21393.723399834475
1711437359154,20979.028007796733
1711437359195,18630.522558002733
1711437359235,17221.24746935442
1711437359276,16214.191550787073
1711437359315,15558.599863368552
1711437359355,9864.707034521736
1711437359395,4633.626504575834
1711437359435,-1343.9529508785345
1711437359476,-4265.850950460648
1711437359515,-6181.173427036032
1711437359556,-11106.380578896496
1711437359596,-21833.311620207503
1711437359636,-28860.882203627843
1711437359677,-28860.882203627843
1711437359716,-28860.882203627843
1711437359756,-28860.882203627843
1711437359796,-28860.882203627843
1711437359836,-28860.882203627843
1711437359878,-28860.882203627843
1711437359917,-28860.882203627843
1711437359957,-28860.882203627843
1711437359997,-28860.882203627843
1711437360037,-28860.882203627843
1711437360078,-29053.630971458973
1711437360117,-29053.630971458973
1711437360158,-29053.630971458973
1711437360198,-29053.630971458973
1711437360238,-28638.936799466144
1711437360279,-28638.936799466144
1711437360318,-28638.936799466144
1711437360358,-28638.936799466144
1711437360399,-28638.936799466144
1711437360439,-28638.936799466144
1711437360479,-28638.936799466144
1711437360519,-30687.157494453946
1711437360559,-30687.157494453946
1711437360599,-30687.157494453946
1711437360639,-30687.157494453946
1711437360680,-30687.157494453946
1711437360720,-30687.157494453946
1711437360760,-30687.157494453946
1711437360800,-30687.157494453946
1711437360840,-30687.157494453946
1711437360881,-31664.61657122639
1711437360920,-33252.33261850197
1711437360960,-33252.33261850197
1711437361001,-33252.33261850197
1711437361041,-33252.33261850197
1711437361081,-34620.75104325055
1711437361121,-39164.57374794525
1711437361161,-39164.57374794525
1711437361201,-39164.57374794525
1711437361241,-39164.57374794525
1711437361282,-43426.0914799734
1711437361321,-43426.0914799734
1711437361362,-43426.0914799734
1711437361402,-43426.0914799734
1711437361442,-43426.0914799734
1711437361483,-43426.0914799734
1711437361522,-43426.0914799734
1711437361562,-43426.0914799734
1711437361603,-43426.0914799734
1711437361643,-43426.0914799734
1711437361683,-43426.0914799734
1711437361723,-40303.28225565585
1711437361763,-28789.407740586204
1711437361803,-17661.868814560818
1711437361843,-12203.314873321448
1711437361884,-8325.97829666268
1711437361923,-7796.469339213567
1711437361964,-124.92857382143848
1711437362004,1346.8462989721447
1711437362044,13262.266752259573
1711437362085,26207.400868238416
1711437362124,41671.32995731733
1711437362164,47903.904761350714
1711437362205,57646.786229457706
1711437362245,59211.00235252362
1711437362286,59211.00235252362
1711437362325,59211.00235252362
1711437362365,59211.00235252362
1711437362405,59211.00235252362
1711437362446,59211.00235252362
1711437362486,59211.00235252362
1711437362526,59211.00235252362
1711437362566,59211.00235252362
1711437362606,59211.00235252362
1711437362646,59211.00235252362
1711437362687,58408.31087613758
1711437362726,58300.53846734925
1711437362766,57396.38252972113
1711437362807,56723.12371034222
1711437362847,55852.00648271339
1711437362887,52396.510973318014
1711437362927,48281.24270037818
1711437362967,46588.86657469394
1711437363007,44780.21985536674
1711437363047,43127.78872647742
1711437363088,42462.32081644377
1711437363127,41892.00148636871
1711437363167,41114.98783471016
1711437363207,39872.03087206371
1711437363247,38537.704949989915
1711437363288,38470.87038324098
1711437363328,37808.72981734318
1711437363368,34663.72700793436
1711437363408,16100.575145635288
1711437363448,41.76193724316545
1711437363489,-19451.793056607712
1711437363528,-19799.057619800325
1711437363568,-20651.796482585138
1711437363608,-25492.61453545466
1711437363649,-26438.92482503201
1711437363689,-27512.33121108217
1711437363729,-31762.274047352606
1711437363769,-32972.877145064296
1711437363809,-34808.479126202874
1711437363849,-36043.05925009865
1711437363890,-37675.31143832393
1711437363929,-40475.41786914226
1711437363969,-40728.925044727046
1711437364010,-41182.013616110664
1711437364050,-41835.729953900445
1711437364090,-42158.57751079253
1711437364130,-43111.80218107905
1711437364170,-44011.10607993882
1711437364210,-44055.44044086151
1711437364250,-46276.29102557246
1711437364291,-46276.29102557246
1711437364330,-46276.29102557246
1711437364368,-46276.29102557246
1711437364408,-46276.29102557246
1711437364448,-44055.44044086151
1711437364489,-44011.10607993882
1711437364528,-42180.23787679733
1711437364568,-42158.57751079253
1711437364608,-41835.729953900445
1711437364648,-40728.925044727046
1711437364689,-40728.925044727046
1711437364729,-33636.82563821925
1711437364769,-33480.85112101631
1711437364809,-33480.85112101631
1711437364849,-33480.85112101631
1711437364890,-33480.85112101631
1711437364929,-33480.85112101631
1711437364969,-33480.85112101631
1711437365009,-33090.265247739386
1711437365050,-32783.26397310058
1711437365090,-32673.301580621628
1711437365130,-30050.477056708187
1711437365170,-29535.72503070254
1711437365210,-29001.12683452014
1711437365250,-27943.05754977744
1711437365291,-26531.114887843374
1711437365330,-24850.851354197133
1711437365370,-23787.356350397924
1711437365411,-23656.266955788247
1711437365451,-22871.52117004106
1711437365492,-22291.82913155714
1711437365531,-22291.82913155714
1711437365571,-21043.799148805905
1711437365611,-20491.273670559982
1711437365651,-20009.25475012837
1711437365692,-19692.86612985283
1711437365732,-19235.69661672879
1711437365772,-18778.532751642633
1711437365812,-17047.890336987097
1711437365852,-16490.95143896574
1711437365893,-15255.732602261705
1711437365932,-14439.060657583876
1711437365972,-11195.467573477188
1711437366013,-10695.184632743709
1711437366053,-10677.280799443834
1711437366094,-9063.754950175295
1711437366133,-7369.826066081878
1711437366173,-5946.83028908493
1711437366213,-5946.83028908493
1711437366253,-5946.83028908493
1711437366294,-5946.83028908493
1711437366334,-5946.83028908493
1711437366374,-5946.83028908493
1711437366414,-5946.83028908493
1711437366454,-5946.83028908493
1711437366495,-5946.83028908493
1711437366534,-4381.742613116978
1711437366574,-4244.968723029364
1711437366614,-2031.4990040999837
1711437366655,-2031.4990040999837
1711437366695,-2031.4990040999837
1711437366735,-2031.4990040999837
1711437366775,-2031.4990040999837
1711437366815,-2031.4990040999837
1711437366855,-2031.4990040999837
1711437366896,-4244.968723029364
1711437366935,-4381.742613116978
1711437366975,-7145.05285346508
1711437367016,-7577.530735126231
1711437367056,-7361.3713133058045
1711437367096,-7145.05285346508
1711437367136,-5487.298572246451
1711437367176,-4381.742613116978
1711437367216,-3303.6300799413584
1711437367257,-2473.2039107154123
1711437367297,-2031.4990040999837
1711437367337,-1884.4804000011645
1711437367377,-384.4168726648204
1711437367417,-329.61940576834604
1711437367457,1939.3505600825883
1711437367498,2148.1359572201036
1711437367537,2148.1359572201036
1711437367577,2148.1359572201036
1711437367618,2148.1359572201036
1711437367658,2148.1359572201036
1711437367698,3575.406539261341
1711437367738,5661.334451013012
1711437367778,8291.002844250761
1711437367818,12394.099161006976
1711437367858,14990.043629343156
1711437367899,17814.654501682147
1711437367939,21458.311390799936
1711437367979,22161.297458126443
1711437368019,24743.694659354165
1711437368059,24933.53783211019
1711437368100,25466.2221942069
1711437368139,25794.06995232124
1711437368179,26393.93546047341
1711437368220,26393.93546047341
1711437368260,26458.03283810662
1711437368300,26458.03283810662
1711437368340,26458.03283810662
1711437368380,26649.950270266738
1711437368420,26649.950270266738
1711437368460,26649.950270266738
1711437368501,26649.950270266738
1711437368541,26649.950270266738
1711437368581,26649.950270266738
1711437368621,26649.950270266738
1711437368661,26649.950270266738
1711437368702,26393.93546047341
1711437368741,25794.06995232124
1711437368781,25674.11126895761
1711437368822,25466.2221942069
1711437368862,24898.26787544461
1711437368902,24576.318584998604
1711437368942,18855.987410623347
1711437368982,15844.067820386961
1711437369022,13086.448892549146
1711437369062,12460.501072071726
1711437369103,11504.506961693522
1711437369142,7793.753133104416
1711437369182,1076.4310267847031
1711437369222,1076.4310267847031
1711437369262,1076.4310267847031
1711437369303,1076.4310267847031
1711437369343,648.382115660701
1711437369383,648.382115660701
1711437369423,348.03919799346477
1711437369463,348.03919799346477
1711437369504,348.03919799346477
1711437369543,348.03919799346477
1711437369583,348.03919799346477
1711437369623,-866.986727377167
1711437369663,-1046.8381969169714
1711437369704,-2564.8985356532503
1711437369743,-3806.7118170948233
1711437369784,-3762.5557562531903
1711437369824,-3762.5557562531903
1711437369864,-2564.8985356532503
1711437369905,-1046.8381969169714
1711437369944,-866.986727377167
1711437369984,348.03919799346477
1711437370024,348.03919799346477
1711437370064,348.03919799346477
1711437370105,348.03919799346477
1711437370145,348.03919799346477
1711437370186,4431.5082541117445
1711437370226,4804.247238999698
1711437370266,16550.619124520803
1711437370307,29832.2193707563
1711437370346,29832.2193707563
1711437370386,29832.2193707563
1711437370426,29832.2193707563
1711437370466,29832.2193707563
1711437370507,29832.2193707563
1711437370546,29832.2193707563
1711437370587,29832.2193707563
1711437370627,29832.2193707563
1711437370667,29832.2193707563
1711437370708,29832.2193707563
1711437370747,19685.48094484117
1711437370787,19685.48094484117
1711437370827,19685.48094484117
1711437370868,19685.48094484117
1711437370908,19685.48094484117
1711437370948,19685.48094484117
1711437370988,19685.48094484117
1711437371028,19685.48094484117
1711437371068,19685.48094484117
1711437371109,19685.48094484117
1711437371148,19685.48094484117
1711437371188,23212.58276605094
1711437371229,23594.92332834704
1711437371269,25053.24918231368
1711437371310,25481.24587071594
1711437371349,25836.8726735292
1711437371389,26974.327898363117
1711437371429,28731.857619802933
1711437371469,29155.307122773258
1711437371510,29707.771448850166
1711437371549,30378.15924475016
1711437371590,30378.15924475016
1711437371630,30378.15924475016
1711437371670,29707.771448850166
1711437371711,29155.307122773258
1711437371750,29155.307122773258
1711437371790,28731.857619802933
1711437371831,27048.432944517117
1711437371870,26974.327898363117
1711437371911,27048.432944517117
1711437371951,26241.387264299672
1711437371991,25481.24587071594
1711437372031,25481.24587071594
1711437372071,25053.24918231368
1711437372112,23313.30160737969
1711437372151,21664.48049784382
1711437372192,20202.184879956534
1711437372232,18278.489931348246
1711437372272,16012.211684166454
1711437372313,14439.105408340693
1711437372352,11252.470500293188
1711437372392,10668.01165354671
1711437372432,9841.910396003164
1711437372472,3247.6982959676534
1711437372514,3247.6982959676534
1711437372553,5081.097804589197
1711437372593,6533.521935663186
1711437372633,6533.521935663186
1711437372673,6533.521935663186
1711437372714,5081.097804589197
1711437372753,5081.097804589197
1711437372794,5081.097804589197
1711437372834,5081.097804589197
1711437372874,5081.097804589197
1711437372915,5081.097804589197
1711437372954,5081.097804589197
1711437372994,5081.097804589197
1711437373035,5081.097804589197
1711437373075,6533.521935663186
1711437373116,10194.94026759849
1711437373155,10194.94026759849
1711437373195,10194.94026759849
1711437373235,10194.94026759849
1711437373275,10194.94026759849
1711437373316,10194.94026759849
1711437373355,10946.421422039159
1711437373396,10946.421422039159
1711437373436,10946.421422039159
1711437373476,12072.456669363426
1711437373517,12439.655769278528
1711437373556,14007.865859621204
1711437373596,14285.149526250083
1711437373637,14285.149526250083
1711437373677,16134.872741451953
1711437373718,17658.523792500608
1711437373757,20661.87310954416
1711437373797,20927.448060681578
1711437373837,20927.448060681578
1711437373878,20927.448060681578
1711437373919,20927.448060681578
1711437373958,20927.448060681578
1711437373998,31356.77833044296
1711437374038,41688.87407320365
1711437374078,43076.12390713813
1711437374120,44309.04517211695
1711437374159,47299.11951674847
1711437374199,48162.97687951359
1711437374239,48524.04796988075
1711437374279,48524.04796988075
1711437374320,48755.51511757262
1711437374360,48755.51511757262
1711437374400,48755.51511757262
1711437374440,48755.51511757262
1711437374480,48755.51511757262
1711437374521,48755.51511757262
1711437374560,48524.04796988075
1711437374601,48222.317886590725
1711437374641,48222.317886590725
1711437374681,48222.317886590725
1711437374722,48222.317886590725
1711437374761,48125.468018176034
1711437374801,47178.46836340241
1711437374841,45125.40941846138
1711437374881,44626.255490395706
1711437374922,42146.925625589676
1711437374962,40855.85275873542
1711437375002,38838.346919326345
1711437375042,35213.7322606002
1711437375082,32916.306496631354
1711437375123,31801.123268295778
1711437375162,31661.766852543224
1711437375202,31580.133455563337
1711437375242,30850.402350928634
1711437375282,26632.434055690188
1711437375324,25542.439626678824
1711437375363,23044.19051076146
1711437375403,21808.169972130796
1711437375443,21320.501643173397
1711437375483,21097.95513091795
1711437375524,20655.00234374497
1711437375563,19363.412858902942
1711437375603,17609.6698740134
1711437375643,16662.894273662474
1711437375684,15074.233784994809
1711437375725,14864.07118018018
1711437375764,13754.985610961914
1711437375804,12925.339966692962
1711437375844,12678.988200606778
1711437375884,12420.558246010449
1711437375925,11724.710778292734
1711437375964,10304.80152723589
1711437376004,7221.028233127901
1711437376045,4301.945952345617
1711437376085,3766.4554831064306
1711437376126,3446.4730384992436
1711437376165,3018.291294458322
1711437376205,2775.6868030854966
1711437376245,2649.978585529607
1711437376285,2649.978585529607
1711437376326,2644.0386061999016
1711437376365,2614.297514469363
1711437376458,2614.297514469363
1711437376498,2595.004600696964
1711437376538,2548.552581036929
1711437376579,2096.2136419925373
1711437376618,2096.2136419925373
1711437376658,2053.0223208535463
1711437376698,2053.0223208535463
1711437376738,2053.0223208535463
1711437376779,1976.3749217211735
1711437376819,1710.3336856705137
1711437376858,1678.395370024722
1711437376899,-762.9048144759145
1711437376939,-762.9048144759145
1711437376980,-762.9048144759145
1711437377019,-762.9048144759145
1711437377059,-762.9048144759145
1711437377099,-762.9048144759145
1711437377139,-762.9048144759145
1711437377181,-762.9048144759145
1711437377220,-762.9048144759145
1711437377260,-762.9048144759145
1711437377300,-762.9048144759145
1711437377340,-744.9741148471367
1711437377381,25.517093890346587
1711437377420,149.7292818671558
1711437377460,334.4470054106787
1711437377500,399.9948832090013
1711437377541,441.9586710727308
1711437377582,670.9837788441218
1711437377621,1093.8434319635853
1711437377661,1151.1285370837431
1711437377701,1758.272874073824
1711437377741,1877.5832997309044
1711437377782,2075.770647085039
1711437377821,2241.4837719486095
1711437377861,2494.7041475954466
1711437377902,2691.277691870462
1711437377942,3406.132355970796
1711437377983,3474.750457318267
1711437378022,3539.747839659918
1711437378062,3990.9239697493613
1711437378102,3990.9239697493613
1711437378142,3990.9239697493613
1711437378183,4102.120448707603
1711437378223,4134.741108560702
1711437378263,4476.770433050115
1711437378303,4807.246982219163
1711437378343,5099.9734456276055
1711437378384,5208.267315145349
1711437378423,5324.4885666971095
1711437378463,5657.804753573611
1711437378504,5864.261273054639
1711437378544,6127.410360351438
1711437378585,6212.277241032571
1711437378624,6604.917220674455
1711437378664,6814.820555940736
1711437378704,9195.450104407966
1711437378744,10357.316965703852
1711437378785,10482.326870445628
1711437378824,10482.326870445628
1711437378865,10482.326870445628
1711437378905,10482.326870445628
1711437378945,10482.326870445628
1711437378986,10482.326870445628
1711437379025,10482.326870445628
1711437379065,10482.326870445628
1711437379105,10482.326870445628
1711437379145,10482.326870445628
1711437379186,10482.326870445628
1711437379226,10323.59058486973
1711437379266,10169.867166223936
1711437379306,9702.615376554197
1711437379346,9409.42511514714
1711437379387,9185.443243762944
1711437379426,8925.401452923426
1711437379467,8707.579029497225
1711437379507,8648.832828915445
1711437379547,8550.519483180251
1711437379588,8487.463260637596
1711437379627,8390.581530656666
1711437379667,8316.337936638854
1711437379707,7760.338052737527
1711437379747,7667.346001462312
1711437379788,6878.597997333389
1711437379828,6755.189783222973
1711437379868,6453.1306022047065
1711437379908,6091.649933588225
1711437379948,5923.530832887627
1711437379989,5871.755183658097
1711437380028,5837.392681670608
1711437380069,5260.640306744026
1711437380109,5243.856802507769
1711437380149,5153.62493397668
1711437380190,5142.4813211523
1711437380229,5138.456407137681
1711437380269,5053.879692185903
1711437380310,5024.2790779965
1711437380350,4916.3104436490685
1711437380390,4871.919842303265
1711437380430,4871.919842303265
1711437380470,4804.553661897313
1711437380510,4769.958088772604
1711437380551,4736.3964083245955
1711437380591,4708.130564618157
1711437380631,4574.648092434043
1711437380671,4524.831968396436
1711437380711,4494.7667007946875
1711437380751,4439.770932975458
1711437380792,4396.171176167671
1711437380831,4203.772918763338
1711437380872,4014.1639365842566
1711437380912,3980.7043150528334
1711437380952,3943.8653584872372
1711437380993,3851.1888121126685
1711437381032,3573.166303676786
1711437381072,3429.186752848793
1711437381113,2964.223673172295
1711437381153,2701.2267127381638
1711437381193,1802.9318989189342
1711437381233,1707.8356270096265
1711437381273,1672.9965259826276
1711437381313,167.09957317751832
1711437381353,-580.316356589552
1711437381394,-1807.8690177476965
1711437381433,-2801.637668266194
1711437381473,-3513.02834894415
1711437381514,-3942.4052190114744
1711437381554,-3978.079736778047
1711437381594,-4575.248887677677
1711437381634,-4651.024493148783
1711437381674,-4651.024493148783
1711437381714,-4806.300026276382
1711437381754,-4920.548329671845
1711437381795,-4964.495096623898
1711437381834,-4964.495096623898
1711437381875,-4964.495096623898
1711437381915,-4964.495096623898
1711437381955,-4964.495096623898
1711437381996,-4964.495096623898
1711437382035,-4920.548329671845
1711437382075,-4920.548329671845
1711437382115,-4920.548329671845
1711437382155,-4920.548329671845
1711437382196,-4618.744058194105
1711437382236,-4483.418589441106
1711437382276,-4309.835883275606
1711437382316,-4046.7327844388783
1711437382356,-3781.3602834437042
1711437382397,-3748.1453697048128
1711437382436,-3684.285059814574
1711437382476,-3158.8531421576627
1711437382516,-2699.2384556685574
1711437382556,-2661.481572576333
1711437382597,-2313.0430916063488
1711437382637,-1938.4693098454736
1711437382677,-1903.2587734453846
1711437382717,-1876.4155102637596
1711437382757,-1579.0407981586177
1711437382798,-1395.0901226191781
1711437382837,-1178.080819054041
1711437382877,-1107.6524467489216
1711437382917,-1101.4883943330497
1711437382957,-1083.1404260746203
1711437382998,-997.962153960485
1711437383037,-927.0546856070869
1711437383078,-915.6612908670213
1711437383118,-460.92234453978017
1711437383158,-380.32210503914393
1711437383199,-364.92481715139
1711437383238,-351.88964926148765
1711437383278,-310.7855367534794
1711437383318,-162.7666576472111
1711437383358,13.776167283765972
1711437383399,13.776167283765972
1711437383439,82.1441270117648
1711437383479,218.75616323621944
1711437383519,252.65867248736322
1711437383559,255.26314029283822
1711437383600,294.0820015652571
1711437383639,358.1320997166913
1711437383679,400.75884947087616
1711437383719,676.7862159265205
1711437383759,809.5766027302016
1711437383800,845.0605739045423
1711437383840,878.5237819559406
1711437383880,886.4427125058137
1711437383920,960.7822926444933
1711437383960,971.546199764125
1711437384001,1114.4110267038923
1711437384040,1153.8023803727701
1711437384080,1153.8023803727701
1711437384120,1153.8023803727701
1711437384161,1153.8023803727701
1711437384201,1732.4939296497032
1711437384241,2406.806411281228
1711437384281,2467.6293102197815
1711437384321,2477.4310901365243
1711437384361,2482.859278312186
1711437384402,2482.859278312186
1711437384441,2482.859278312186
1711437384482,2482.859278312186
1711437384522,2482.859278312186
1711437384562,2482.859278312186
1711437384603,2482.859278312186
1711437384642,2482.859278312186
1711437384682,2482.859278312186
1711437384722,2467.6293102197815
1711437384763,2406.806411281228
1711437384803,2219.933832062874
1711437384843,1999.9691673684865
1711437384883,1999.9691673684865
1711437384923,1999.9691673684865
1711437384963,1999.9691673684865
1711437385004,1945.9652457279153
1711437385043,1945.9652457279153
1711437385083,1879.6520229484886
1711437385123,1557.283319181297
1711437385163,1508.038059115177
1711437385204,1258.3086215355434
1711437385244,1247.4236593646929
1711437385284,1166.9730916039553
1711437385324,1166.9730916039553
1711437385364,1166.9730916039553
1711437385405,1166.9730916039553
1711437385444,1166.9730916039553
1711437385485,1166.9730916039553
1711437385525,587.2476124989334
1711437385565,581.8441455638967
1711437385606,581.8441455638967
1711437385645,581.8441455638967
1711437385685,573.1893446350005
1711437385725,573.1893446350005
1711437385765,573.1893446350005
1711437385806,573.1893446350005
1711437385846,573.1893446350005
1711437385886,573.1893446350005
1711437385926,573.1893446350005
1711437385966,573.1893446350005
1711437386007,581.8441455638967
1711437386046,581.8441455638967
1711437386087,715.6555042071268
1711437386127,715.6555042071268
1711437386167,715.6555042071268
1711437386208,715.6555042071268
1711437386247,715.6555042071268
1711437386287,715.6555042071268
1711437386327,715.6555042071268
1711437386367,715.6555042071268
1711437386408,715.6555042071268
1711437386448,573.1893446350005
1711437386488,295.26378618273884
1711437386528,107.75070727942511
1711437386568,-906.0377202902455
1711437386609,-1006.045118493028
1711437386648,-1075.9130711448379
1711437386688,-1157.9501170692965
1711437386728,-1226.3981603179127
1711437386769,-1391.0092526238877
1711437386810,-1489.8048236100003
1711437386849,-1520.386863938067
1711437386889,-1884.0200546719134
1711437386929,-1897.8015912291594
1711437386969,-2065.2117594480515
1711437387010,-2113.335904214997
1711437387050,-2126.5113208172843
1711437387090,-2327.7878544952255
1711437387130,-2432.7732570052613
1711437387170,-2840.466171090724
1711437387211,-3097.2068531378172
1711437387251,-3137.0461241705343
1711437387291,-3836.264557621442
1711437387331,-3954.4633814133704
1711437387371,-4044.6863262315746
1711437387412,-6367.18982537766
1711437387451,-6367.18982537766
1711437387492,-6367.18982537766
1711437387532,-6367.18982537766
1711437387572,-6367.18982537766
1711437387613,-6367.18982537766
1711437387652,-6367.18982537766
1711437387692,-6367.18982537766
1711437387733,-6367.18982537766
1711437387773,-6367.18982537766
1711437387814,-6367.18982537766
1711437387853,-6159.247026753146
1711437387894,-5373.843899269588
1711437387934,-4606.645403638482
1711437387974,-4216.460061901249
1711437388015,-3983.7269492752384
1711437388054,-3518.3753373033833
1711437388094,-3492.043358495459
1711437388135,-3272.1360095473938
1711437388174,-3008.8005532971583
1711437388215,-1661.5145992916077
1711437388255,-1261.0830891490914
1711437388295,-1177.1633293353952
1711437388335,-1044.3825927563012
1711437388376,-919.5069103466813
1711437388416,-761.383301384747
1711437388456,-598.2522813105024
1711437388495,-521.9665131967049
1711437388534,-366.29158658115193
1711437388573,-366.29158658115193
1711437388612,-366.29158658115193
1711437388651,-366.29158658115193
1711437388690,1856.8962033875287
1711437388729,2119.6130668274127
1711437388768,2119.6130668274127
1711437388807,2119.6130668274127
1711437388846,2119.6130668274127
1711437388885,2119.6130668274127
1711437388924,2119.6130668274127
1711437388963,2119.6130668274127
1711437389002,2119.6130668274127
1711437389041,2119.6130668274127
1711437389080,2119.6130668274127
1711437389119,2119.6130668274127
1711437389158,74.3602698140312
1711437389198,74.3602698140312
1711437389238,74.3602698140312
1711437389278,74.3602698140312
1711437389318,74.3602698140312
1711437389358,74.3602698140312
1711437389398,74.3602698140312
1711437389438,74.3602698140312
1711437389478,74.3602698140312
1711437389518,74.3602698140312
1711437389558,74.3602698140312
1711437389598,330.10984056652524
1711437389638,1225.3701560935006
1711437389678,1959.0382771200966
1711437389718,1959.0382771200966
1711437389758,1959.0382771200966
1711437389798,1959.0382771200966
1711437389838,1959.0382771200966
1711437389878,1959.0382771200966
1711437389918,1959.0382771200966
1711437389958,1959.0382771200966
1711437389998,1959.0382771200966
1711437390038,1959.0382771200966
1711437390078,2333.6386993410997
1711437390118,2416.3015595576726
1711437390158,2416.3015595576726
1711437390198,2416.3015595576726
1711437390238,2416.3015595576726
1711437390278,2416.3015595576726
1711437390318,2416.3015595576726
1711437390358,2416.3015595576726
1711437390398,2416.3015595576726
1711437390438,2416.3015595576726
1711437390478,2416.3015595576726
1711437390518,2452.8273455346934
1711437390558,2452.8273455346934
1711437390598,2452.8273455346934
1711437390638,2452.8273455346934
1711437390678,2452.8273455346934
1711437390718,2452.8273455346934
1711437390758,2452.8273455346934
1711437390798,2452.8273455346934
1711437390838,2452.8273455346934
1711437390878,2452.8273455346934
1711437390918,2452.8273455346934
1711437390958,1372.985132869333
1711437390998,1372.985132869333
1711437391038,1372.985132869333
1711437391078,1372.985132869333
1711437391118,1372.985132869333
1711437391158,1372.985132869333
1711437391198,1372.985132869333
1711437391238,1372.985132869333
1711437391278,1372.985132869333
1711437391318,1372.985132869333
1711437391358,1372.985132869333
1711437391398,2487.558807939058
1711437391438,2487.558807939058
1711437391478,2487.558807939058
1711437391518,2487.558807939058
1711437391558,2487.558807939058
1711437391598,2516.60231644311
1711437391638,2530.090735239908
1711437391678,2740.1675850586034
1711437391718,2775.250259516295
1711437391758,3300.9107286862563
1711437391798,3300.9107286862563
1711437391838,3491.5592067257967
1711437391878,3580.7882943698205
1711437391918,3644.5958352866583
1711437391958,3644.5958352866583
1711437391998,3644.5958352866583
1711437392038,3644.5958352866583
1711437392078,3644.5958352866583
1711437392118,3644.5958352866583
1711437392158,3644.5958352866583
1711437392198,3644.5958352866583
1711437392238,3817.8627807819284
1711437392278,3979.444684949005
1711437392318,4354.557422604645
1711437392358,4354.557422604645
1711437392398,4354.557422604645
1711437392438,4354.557422604645
1711437392478,4354.557422604645
1711437392518,4354.557422604645
1711437392558,4354.557422604645
1711437392598,4354.557422604645
1711437392638,4354.557422604645
1711437392678,4608.237208652077
1711437392718,4608.237208652077
1711437392758,4833.08391696238
1711437392798,5241.177290922031
1711437392838,5429.092517596902
1711437392878,5429.092517596902
1711437392918,5429.092517596902
1711437392958,5429.092517596902
1711437392998,5429.092517596902
1711437393038,5429.092517596902
1711437393078,5429.092517596902
1711437393118,5429.092517596902
1711437393158,5429.092517596902
1711437393198,5429.092517596902
1711437393238,5429.092517596902
1711437393278,5429.092517596902
1711437393318,5429.092517596902
1711437393358,5429.092517596902
1711437393398,5429.092517596902
1711437393438,5429.092517596902
1711437393478,5429.092517596902
1711437393518,5429.092517596902
1711437393558,5315.679637867957
1711437393598,4752.112236392684
1711437393638,3835.060304207029
1711437393678,3709.0993290736806
1711437393718,3551.5476854247972
1711437393758,3507.756357090315
1711437393798,3437.71447757422
1711437393838,3385.1844976784196
1711437393878,3375.901674152119
1711437393918,3339.8339798743837
1711437393958,2919.4625921747647
1711437393998,2816.750959092984
1711437394038,2732.7664448968135
1711437394078,2690.8628754764795
1711437394118,2452.2842350180726
1711437394158,2394.290861034533
1711437394198,2193.9618192256894
1711437394238,2169.387605058262
1711437394278,1636.2595474950504
1711437394318,1625.8074051495641
1711437394358,1625.8074051495641
1711437394398,1204.2713308287784
1711437394438,798.8249749566894
1711437394478,759.6019652856048
1711437394518,736.7671946664341
1711437394558,675.80267790379
1711437394598,649.4849956813268
1711437394638,620.8656961300876
1711437394678,562.0193960655015
1711437394718,530.1291625753511
1711437394758,498.74690197361633
1711437394798,245.4135927525349
1711437394838,224.91003145417199
1711437394878,-386.31979421549477
1711437394918,-904.7037275508046
1711437394958,-1707.7095969519578
1711437394998,-2386.992430334445
1711437395038,-7272.973098648246
1711437395078,-9354.78376751626
1711437395118,-15567.24341964908
1711437395158,-18441.474592232145
1711437395198,-20178.305782518815
1711437395238,-24909.63346767123
1711437395278,-36392.899356704205
1711437395318,-43495.46903063869
1711437395358,-46859.27782079042
1711437395398,-52046.26746348548
1711437395438,-54247.66483914154
1711437395478,-62228.5853920565
1711437395518,-67372.16143460432
1711437395558,-71468.42234829208
1711437395598,-72613.33837774233
1711437395638,-72613.33837774233
1711437395678,-72613.33837774233
1711437395718,-72626.634141088
1711437395758,-72927.39897589013
1711437395798,-74095.32119635865
1711437395838,-76830.1893574011
1711437395878,-76840.90057616495
1711437395918,-79232.83952043019
1711437395958,-83767.66384799639
1711437395998,-83767.66384799639
1711437396038,-83086.36144908192
1711437396078,-79232.83952043019
1711437396118,-76830.1893574011
1711437396158,-74095.32119635865
1711437396198,-72927.39897589013
1711437396238,-72626.634141088
1711437396278,-72613.33837774233
1711437396318,-71468.42234829208
1711437396358,-71381.5814115936
1711437396398,-71053.01994467014
1711437396438,-69142.53147838358
1711437396478,-49354.13346367981
1711437396518,-41088.9800007795
1711437396558,-32519.01236657193
1711437396598,-27449.173683949746
1711437396638,-21616.397933032596
1711437396678,-12979.549723624717
1711437396718,-11347.372105411487
1711437396758,-7516.695212985622
1711437396798,-2484.823810354341
1711437396838,2361.4688756351825
1711437396878,4396.531926456373
1711437396918,6015.474073598627
1711437396958,6054.865195931867
1711437396998,7413.433847458102
1711437397038,8999.026350092841
1711437397078,11023.103692399105
1711437397118,11185.879101987462
1711437397158,13672.871707119746
1711437397198,13672.871707119746
1711437397238,14252.418843704741
1711437397278,15050.918229291216
1711437397318,16884.72350494424
1711437397358,17947.71304779756
1711437397398,17947.71304779756
1711437397438,17947.71304779756
1711437397478,17947.71304779756
1711437397518,17947.71304779756
1711437397558,17947.71304779756
1711437397598,17989.687657907838
1711437397638,17989.687657907838
1711437397678,17989.687657907838
1711437397718,17947.71304779756
1711437397758,17601.43540586438
1711437397798,17409.972544132965
1711437397838,17409.972544132965
1711437397878,17409.972544132965
1711437397918,17409.972544132965
1711437397958,17074.802305394784
1711437397998,17409.972544132965
1711437398038,17409.972544132965
1711437398078,17074.802305394784
1711437398118,17030.995403932407
1711437398158,16769.747866205405
1711437398198,16411.707698314916
1711437398238,16411.707698314916
1711437398278,16411.707698314916
1711437398318,16301.952169089112
1711437398358,16083.039597638883
1711437398398,16017.262714507524
1711437398438,15380.26786052459
1711437398478,14575.5477646566
1711437398518,13504.624879815383
1711437398558,7367.60881508328
1711437398598,3126.877660804894
1711437398638,-1749.1075975336134
1711437398678,-2588.7024965791497
1711437398718,-3395.6181455436163
1711437398758,-3395.6181455436163
1711437398798,-3395.6181455436163
1711437398838,-3395.6181455436163
1711437398878,-3529.760781014804
1711437398918,-4613.152158174664
1711437398958,-4837.104815743398
1711437398998,-8406.525362811983
1711437399038,-8512.446295624832
1711437399078,-10053.93090455141
1711437399118,-10200.26726532681
1711437399158,-10924.97453163634
1711437399198,-11171.030635491246
1711437399238,-12712.858687721891
1711437399278,-16273.13910673093
1711437399318,-26496.527484777384
1711437399358,-28833.37588600628
1711437399398,-28833.37588600628
1711437399438,-28833.37588600628
1711437399478,-28833.37588600628
1711437399518,-28833.37588600628
1711437399558,-28833.37588600628
1711437399598,-28833.37588600628
1711437399638,-28833.37588600628
1711437399678,-28833.37588600628
1711437399718,-28833.37588600628
1711437399758,-28833.37588600628
1711437399798,-26570.126297608484
1711437399838,-25025.41782427882
1711437399878,-24291.862693216186
1711437399918,-21519.602805959526
1711437399958,-20299.802369090263
1711437399998,-18596.914743237197
1711437400038,-16527.79837419046
1711437400078,-15462.76798002934
1711437400118,-12402.02162557561
1711437400158,-7674.309479105286
1711437400198,-6050.772318029311
1711437400238,-2231.838233683724
1711437400278,413.08123888191767
1711437400318,985.2598505839705
1711437400358,1094.985815779306
1711437400398,2754.9984805898275
1711437400438,5330.458853583783
1711437400479,5330.458853583783
1711437400519,5338.016905814409
1711437400559,7012.614159191027
1711437400600,7164.043482206296
1711437400639,8537.863855957985
1711437400679,9507.244131100131
1711437400719,9757.913717519958
1711437400759,10598.637931364588
1711437400800,10789.714186284225
1711437400840,10812.788692215458
1711437400880,11372.612324339803
1711437400920,12263.288830236532
1711437400960,10812.788692215458
1711437401001,9757.913717519958
1711437401040,8537.863855957985
1711437401080,8537.863855957985
1711437401120,8537.863855957985
1711437401160,8537.863855957985
1711437401201,8537.863855957985
1711437401241,8537.863855957985
1711437401281,8537.863855957985
1711437401321,8537.863855957985
1711437401361,8833.352359784301
1711437401402,8833.352359784301
1711437401441,8833.352359784301
1711437401481,8833.352359784301
1711437401521,8833.352359784301
1711437401562,8833.352359784301
1711437401602,8833.352359784301
1711437401642,7843.638101559132
1711437401682,7131.916950124782
1711437401722,7127.510507135885
1711437401762,6034.691276778467
1711437401803,5907.749494848773
1711437401842,5907.749494848773
1711437401882,6034.691276778467
1711437401923,7127.510507135885
1711437401963,7131.916950124782
1711437402003,7391.463726355229
1711437402043,8833.352359784301
1711437402083,9530.74927252112
1711437402123,10232.612125055399
1711437402163,11079.747745993547
1711437402204,11691.731308849994
1711437402243,12640.381210554624
1711437402284,13544.091224448755
1711437402324,13544.091224448755
1711437402364,13544.091224448755
1711437402405,12393.703807107173
1711437402444,11691.731308849994
1711437402484,11691.731308849994
1711437402524,11691.731308849994
1711437402564,11691.731308849994
1711437402605,11691.731308849994
1711437402645,11691.731308849994
1711437402685,11691.731308849994
1711437402725,11691.731308849994
1711437402765,11691.731308849994
1711437402806,11691.731308849994
1711437402845,9382.068678343669
1711437402886,9184.491712275194
1711437402926,8543.682872227393
1711437402966,8198.359393046238
1711437403007,7758.210331317503
1711437403046,6747.055202113697
1711437403086,6747.055202113697
1711437403126,6747.055202113697
1711437403166,6747.055202113697
1711437403207,6532.075792734977
1711437403247,5265.7288260466885
1711437403287,5089.717782961205
1711437403327,5009.329142457107
1711437403367,321.29288631142117
1711437403408,-236.36193039850332
1711437403447,-15043.828806072706
1711437403487,-23668.51433887845
1711437403527,-30905.741303069284
1711437403567,-40865.08860024484
1711437403608,-45246.962217782624
1711437403648,-74799.51539956057
1711437403688,-74799.51539956057
1711437403728,-74799.51539956057
1711437403768,-74799.51539956057
1711437403809,-74799.51539956057
1711437403849,-74799.51539956057
1711437403889,-74799.51539956057
1711437403929,-74799.51539956057
1711437403969,-74799.51539956057
1711437404010,-74799.51539956057
1711437404049,-74799.51539956057
1711437404090,-61392.79778945143
1711437404130,-44617.895959675545
1711437404170,-22356.753524667118
1711437404211,-21942.47228986118
1711437404250,-21883.325959635433
1711437404290,-21634.295749527402
1711437404331,-21634.295749527402
1711437404371,-21634.295749527402
1711437404411,-21634.295749527402
1711437404451,-21634.295749527402
1711437404491,-13493.464859111933
1711437404531,-10201.436136779841
1711437404571,-6811.386692442233
1711437404612,-5825.098534388468
1711437404652,1330.9209607234225
1711437404692,4294.555518175708
1711437404732,8601.968366394285
1711437404772,8975.447315703146
1711437404813,8975.447315703146
1711437404852,17091.079826295143
1711437404893,18054.7063634512
1711437404933,34214.99941543001
1711437404973,34348.79508959339
1711437405014,53954.3170773827
1711437405053,53954.3170773827
1711437405093,53954.3170773827
1711437405133,53954.3170773827
1711437405174,53954.3170773827
1711437405214,53954.3170773827
1711437405254,53954.3170773827
1711437405294,53954.3170773827
1711437405334,63779.67473350512
1711437405374,65006.5164197078
1711437405415,65006.5164197078
1711437405455,65006.5164197078
1711437405495,63779.67473350512
1711437405535,63779.67473350512
1711437405575,63779.67473350512
1711437405616,63779.67473350512
1711437405656,63779.67473350512
1711437405695,63779.67473350512
1711437405736,63779.67473350512
1711437405776,63779.67473350512
1711437405817,60406.388002908556
1711437405856,60406.388002908556
1711437405896,62529.06634226628
1711437405936,63500.17092773202
1711437405977,63500.17092773202
1711437406017,63500.17092773202
1711437406057,63500.17092773202
1711437406097,63500.17092773202
1711437406137,65006.5164197078
1711437406177,65263.894116157666
1711437406218,64654.497380782384
1711437406257,64654.497380782384
1711437406297,64654.497380782384
1711437406337,65263.894116157666
1711437406377,65263.894116157666
1711437406418,65263.894116157666
1711437406458,64654.497380782384
1711437406498,63851.88742758799
1711437406538,63500.17092773202
1711437406578,62898.171365869464
1711437406619,62529.06634226628
1711437406658,62529.06634226628
1711437406698,60936.473131058505
1711437406738,57011.41639338387
1711437406778,54361.820365408435
1711437406819,54361.820365408435
1711437406859,54361.820365408435
1711437406899,54361.820365408435
1711437406939,53969.45834576059
1711437406979,48362.23004190833
1711437407020,48362.23004190833
1711437407059,35361.512775195064
1711437407099,33970.01549021108
1711437407139,27063.247032370884
1711437407179,23744.603034615517
1711437407220,18422.366854027146
1711437407260,18317.402019686066
1711437407300,18317.402019686066
1711437407340,18317.402019686066
1711437407380,13607.244465131313
1711437407421,9979.18442366179
1711437407460,7225.731170782819
1711437407500,7225.731170782819
1711437407540,7225.731170782819
1711437407581,7225.731170782819
1711437407621,4851.094334732741
1711437407661,1162.4374176058918
1711437407701,1162.4374176058918
1711437407741,7225.731170782819
1711437407781,10508.671699688304
1711437407822,10508.671699688304
1711437407861,10508.671699688304
1711437407901,10508.671699688304
1711437407941,10508.671699688304
1711437407981,10508.671699688304
1711437408022,10508.671699688304
1711437408062,10508.671699688304
1711437408102,10508.671699688304
1711437408142,7225.731170782819
1711437408182,-182.15965202753432
1711437408223,-1739.4359675322194
1711437408262,-4739.741804878926
1711437408302,-8461.488441166002
1711437408342,-8461.488441166002
1711437408382,-8461.488441166002
1711437408423,-8461.488441166002
1711437408463,-8461.488441166002
1711437408503,-8461.488441166002
1711437408543,-8461.488441166002
1711437408583,-16111.001288727624
1711437408624,-19123.279460860882
1711437408663,-19163.146651762305
1711437408703,-26964.08250209596
1711437408743,-26964.08250209596
1711437408784,-26964.08250209596
1711437408824,-27042.07361740037
1711437408864,-29656.024356904905
1711437408904,-27042.07361740037
1711437408944,-27042.07361740037
1711437408984,-27042.07361740037
1711437409025,-28825.08696156554
1711437409064,-28825.08696156554
1711437409105,-28825.08696156554
1711437409145,-27042.07361740037
1711437409185,-27042.07361740037
1711437409226,-27042.07361740037
1711437409265,-27042.07361740037
1711437409305,-27042.07361740037
1711437409345,-27042.07361740037
1711437409385,-27042.07361740037
1711437409426,-27042.07361740037
1711437409466,-25978.566784637747
1711437409506,-25978.566784637747
1711437409546,-17670.072848434327
1711437409586,11634.092990913428
1711437409627,17067.485676938435
1711437409666,17067.485676938435
1711437409706,17067.485676938435
1711437409747,17067.485676938435
1711437409786,17067.485676938435
1711437409827,17067.485676938435
1711437409867,17067.485676938435
1711437409907,17067.485676938435
1711437409947,17067.485676938435
1711437409987,17067.485676938435
1711437410028,16415.565720848273
1711437410067,14511.808481499087
1711437410108,13632.97049207054
1711437410148,13632.97049207054
1711437410188,11192.417886606418
1711437410229,11045.025998238474
1711437410268,10274.38074488379
1711437410308,9293.397487550508
1711437410348,9236.696963660186
1711437410388,8216.357795921154
1711437410429,8056.2696560644545
1711437410469,5736.454915219452
1711437410509,4888.792265360244
1711437410549,-508.68788454215974
1711437410589,-1672.6889782059006
1711437410630,-1890.8360114907846
1711437410669,-2001.2616464477032
1711437410710,-3329.737226386089
1711437410750,-4357.256081400439
1711437410790,-4820.5817817291245
1711437410831,-6663.296486424049
1711437410870,-7752.447452196153
1711437410910,-10404.25789360865
1711437410951,-10404.25789360865
1711437410991,-10404.25789360865
1711437411031,-12575.054298073053
1711437411071,-13079.099006098462
1711437411111,-13868.721269599628
1711437411151,-15805.876683373936
1711437411191,-15805.876683373936
1711437411232,-15805.876683373936
1711437411271,-15805.876683373936
1711437411312,-15805.876683373936
1711437411352,-13868.721269599628
1711437411392,-13079.099006098462
1711437411433,-12575.054298073053
1711437411472,-12575.054298073053
1711437411512,-7162.541919415118
1711437411552,-7066.094225693494
1711437411592,3366.285442335764
1711437411633,25645.62877261243
1711437411673,31009.94053565478
1711437411713,38843.61586169386
1711437411753,40542.77368738502
1711437411793,41304.256125369575
1711437411834,44221.78937369771
1711437411873,44489.28211101354
1711437411914,48106.69657117594
1711437411954,49025.22894866951
1711437411994,51898.46276372671
1711437412035,57789.65132554807
1711437412074,61075.83571517235
1711437412114,61075.83571517235
1711437412155,61075.83571517235
1711437412195,61075.83571517235
1711437412236,61075.83571517235
1711437412275,61075.83571517235
1711437412315,61075.83571517235
1711437412355,57789.65132554807
1711437412396,49025.22894866951
1711437412436,44221.78937369771
1711437412476,43067.400957104284
1711437412514,41304.256125369575
1711437412554,27237.817388153635
1711437412594,21744.3940444584
1711437412635,18885.446076948196
1711437412674,12327.816284373403
1711437412714,9775.564689971972
1711437412755,2276.8995553252753
1711437412794,-116.97382406448014
1711437412835,-1410.9149826294743
1711437412875,-3261.7198837520555
1711437412915,-8038.833581262734
1711437412955,-8038.833581262734
1711437412995,-8038.833581262734
1711437413036,-12598.7658982547
1711437413075,-13782.411112163914
1711437413115,-13782.411112163914
1711437413155,-16358.701400910271
1711437413195,-17611.83988243621
1711437413236,-18064.452715796884
1711437413276,-24405.443939733086
1711437413316,-26103.304201262305
1711437413356,-26103.304201262305
1711437413396,-26103.304201262305
1711437413437,-26103.304201262305
1711437413476,-24405.443939733086
1711437413516,-19134.386462520808
1711437413556,-19134.386462520808
1711437413597,-26103.304201262305
1711437413637,-26103.304201262305
1711437413677,-26103.304201262305
1711437413717,-26103.304201262305
1711437413757,-26874.474030329846
1711437413797,-28791.06140330108
1711437413838,-29803.511500712717
1711437413877,-31510.919590637553
1711437413917,-31510.919590637553
1711437413958,-31510.919590637553
1711437413998,-29803.511500712717
1711437414038,-28791.06140330108
1711437414078,-26874.474030329846
1711437414118,-28791.06140330108
1711437414158,-28801.74850895442
1711437414198,-31510.919590637553
1711437414239,-31510.919590637553
1711437414278,-31510.919590637553
1711437414319,-31510.919590637553
1711437414359,-31510.919590637553
1711437414399,-31792.432306881063
1711437414440,-29534.893256436335
1711437414479,-28801.74850895442
1711437414519,-25631.236992209684
1711437414559,-23268.024852209724
1711437414599,-23012.84680310823
1711437414640,-22874.560170261655
1711437414680,-22874.560170261655
1711437414720,-22874.560170261655
1711437414760,-23012.84680310823
1711437414800,-23268.024852209724
1711437414841,-25631.236992209684
1711437414880,-28801.74850895442
1711437414920,-29534.893256436335
1711437414960,-31792.432306881063
1711437415000,-31792.432306881063
1711437415041,-30009.41297569871
1711437415081,-30009.41297569871
1711437415121,-30009.41297569871
1711437415161,-30009.41297569871
1711437415201,-30009.41297569871
1711437415242,-26999.601830388885
1711437415281,-26999.601830388885
1711437415321,-30009.41297569871
1711437415361,-32823.984021199634
1711437415402,-33038.456409253646
1711437415442,-34347.14219749207
1711437415482,-34598.57398822857
1711437415522,-34886.00580785191
1711437415562,-34886.00580785191
1711437415602,-34886.00580785191
1711437415643,-34886.00580785191
1711437415682,-34886.00580785191
1711437415722,-34886.00580785191
1711437415763,-34886.00580785191
1711437415803,-34886.00580785191
1711437415844,-34886.00580785191
1711437415883,-34886.00580785191
1711437415923,-34886.00580785191
1711437415963,-35762.08439726848
1711437416004,-37291.214483560994
1711437416044,-37782.038083317224
1711437416084,-39122.619976513786
1711437416124,-39156.496245795395
1711437416164,-40302.46415017033
1711437416204,-40302.46415017033
1711437416245,-39156.496245795395
1711437416284,-39122.619976513786
1711437416324,-39122.619976513786
1711437416365,-39122.619976513786
1711437416405,-38712.21128493687
1711437416445,-37247.91348181572
1711437416485,-35762.08439726848
1711437416525,-35191.183852971066
1711437416565,-33419.927251709625
1711437416605,-33395.067668899894
1711437416646,-32549.49642239907
1711437416685,-32529.46507329913
1711437416726,-32549.49642239907
1711437416766,-32797.24765912816
1711437416806,-32797.24765912816
1711437416847,-32549.49642239907
1711437416886,-32529.46507329913
1711437416926,-30712.174057222437
1711437416966,-30630.711407615803
1711437417006,-30188.287846674677
1711437417047,-28014.482195043936
1711437417087,-27065.26623037411
1711437417127,-26757.728273207787
1711437417167,-24990.689368152525
1711437417207,-23901.477596545592
1711437417248,-23518.5025073071
1711437417287,-23518.5025073071
1711437417328,-24990.689368152525
1711437417368,-26757.728273207787
1711437417408,-28014.482195043936
1711437417449,-30188.287846674677
1711437417488,-30188.287846674677
1711437417528,-30630.711407615803
1711437417568,-30630.711407615803
1711437417608,-30630.711407615803
1711437417649,-30630.711407615803
1711437417689,-31613.79418719746
1711437417729,-45686.3847863148
1711437417769,-46287.41346049728
1711437417809,-46287.41346049728
1711437417850,-46287.41346049728
1711437417890,-46287.41346049728
1711437417930,-46287.41346049728
1711437417970,-46287.41346049728
1711437418010,-46287.41346049728
1711437418051,-46287.41346049728
1711437418090,-46287.41346049728
1711437418131,-46287.41346049728
1711437418171,-46287.41346049728
1711437418211,-44644.94615066331
1711437418252,-44644.94615066331
1711437418291,-44644.94615066331
1711437418331,-44644.94615066331
1711437418371,-44644.94615066331
1711437418412,-44644.94615066331
1711437418452,-44644.94615066331
1711437418492,-44644.94615066331
1711437418532,-44644.94615066331
1711437418572,-43832.26784872147
1711437418612,-42170.57324148994
1711437418654,-43832.26784872147
1711437418693,-44644.94615066331
1711437418733,-48983.7761998612
1711437418773,-51974.97513218736
1711437418813,-53466.895918781636
1711437418854,-54048.716739985626
1711437418893,-54332.117508138064
1711437418933,-54427.62718782597
1711437418973,-56629.64949909295
1711437419014,-56801.50804011896
1711437419054,-56953.95152799063
1711437419094,-59695.35681214463
1711437419134,-60681.19675178197
1711437419174,-63588.44227243983
1711437419214,-64047.58093501348
1711437419255,-65376.78982260637
1711437419294,-73442.54092563922
1711437419334,-82175.04531912226
1711437419375,-88398.94139085896
1711437419414,-90247.40411677957
1711437419455,-96534.11041403795
1711437419495,-96534.11041403795
1711437419535,-96534.11041403795
1711437419575,-96534.11041403795
1711437419615,-96534.11041403795
1711437419656,-96534.11041403795
1711437419695,-96534.11041403795
1711437419735,-96534.11041403795
1711437419775,-96534.11041403795
1711437419816,-96534.11041403795
1711437419856,-90134.1468299639
1711437419896,-88398.94139085896
1711437419936,-77210.07526054699
1711437419976,-77062.11044802144
1711437420016,-75195.20108831953
1711437420057,-69411.32298903097
1711437420096,-63077.18272991036
1711437420136,-62084.03974693781
1711437420176,-61850.1516695912
1711437420217,-54981.167214823654
1711437420257,-31831.751665074145
1711437420297,6321.584803961683
1711437420337,18366.406069007935
1711437420377,23284.542040362023
1711437420417,33731.737191315275
1711437420458,39391.31416665926
1711437420497,44665.96121980762
1711437420537,49947.252655905904
1711437420578,54766.65524659539
1711437420618,55948.07625313988
1711437420659,55948.07625313988
1711437420698,55948.07625313988
1711437420738,55948.07625313988
1711437420778,55948.07625313988
1711437420818,55948.07625313988
1711437420859,55948.07625313988
1711437420899,55948.07625313988
1711437420939,55948.07625313988
1711437420979,55948.07625313988
1711437421019,55948.07625313988
1711437421060,50980.07442126935
1711437421099,50980.07442126935
1711437421139,41799.77932240954
1711437421180,40366.62810384552
1711437421220,37836.90837358916
1711437421260,35301.39691428095
1711437421300,31406.404706939822
1711437421340,31406.404706939822
1711437421380,31406.404706939822
1711437421420,31406.404706939822
1711437421461,31406.404706939822
1711437421501,31406.404706939822
1711437421541,31406.404706939822
1711437421581,30652.71931593353
1711437421621,30652.71931593353
1711437421662,30652.71931593353
1711437421701,30652.71931593353
1711437421741,30652.71931593353
1711437421781,30652.71931593353
1711437421821,30652.71931593353
1711437421862,30652.71931593353
1711437421902,26819.42787507875
1711437421942,24761.289598766714
1711437421982,22880.09618851915
1711437422022,18006.123873791657
1711437422063,18006.123873791657
1711437422102,18006.123873791657
1711437422142,18006.123873791657
1711437422183,18006.123873791657
1711437422223,18006.123873791657
1711437422264,18006.123873791657
1711437422303,18006.123873791657
1711437422343,16838.190715107135
1711437422383,16794.822042580694
1711437422423,16083.455124449683
1711437422464,16083.455124449683
1711437422504,16083.455124449683
1711437422544,16083.455124449683
1711437422584,16083.455124449683
1711437422624,16083.455124449683
1711437422665,16083.455124449683
1711437422704,15321.474997753045
1711437422744,15321.474997753045
1711437422784,11731.70286852261
1711437422825,11731.70286852261
1711437422866,11731.70286852261
1711437422905,11731.70286852261
1711437422945,11731.70286852261
1711437422985,11731.70286852261
1711437423025,11731.70286852261
1711437423066,9926.807223784272
1711437423106,9408.603860649047
1711437423146,9089.098755216226
1711437423186,8644.076578739798
1711437423226,8644.076578739798
1711437423267,8644.076578739798
1711437423306,8644.076578739798
1711437423347,8644.076578739798
1711437423387,8644.076578739798
1711437423427,8422.661839080043
1711437423468,8422.661839080043
1711437423507,9089.098755216226
1711437423547,9926.807223784272
1711437423587,10256.904050258687
1711437423627,10256.904050258687
1711437423668,10256.904050258687
1711437423708,10256.904050258687
1711437423748,10256.904050258687
1711437423788,9926.807223784272
1711437423828,8307.00672939932
1711437423869,8162.167495947564
1711437423908,8142.261101762531
1711437423949,8142.261101762531
1711437423989,8142.261101762531
1711437424029,8142.261101762531
1711437424070,8142.261101762531
1711437424109,8142.261101762531
1711437424149,7775.014589596773
1711437424190,2830.3367370872293
1711437424229,-95.49996118759736
1711437424270,-95.49996118759736
1711437424310,-95.49996118759736
1711437424350,-95.49996118759736
1711437424390,-95.49996118759736
1711437424430,-95.49996118759736
1711437424471,-95.49996118759736
1711437424510,-95.49996118759736
1711437424553,-1020.9465532170143
1711437424593,-1158.353704563342
1711437424633,-2123.2770650298335
1711437424674,-2123.2770650298335
1711437424713,-2123.2770650298335
1711437424753,-2123.2770650298335
1711437424794,-2123.2770650298335
1711437424834,-2654.4145648241974
1711437424874,-3449.9028862579726
1711437424914,-3603.3272741618566
1711437424954,-5028.948233857285
1711437424994,-5028.948233857285
1711437425034,-5028.948233857285
1711437425075,-5028.948233857285
1711437425114,-5028.948233857285
1711437425155,-5028.948233857285
1711437425194,-5028.948233857285
1711437425235,-5028.948233857285
1711437425275,-7394.409467772115
1711437425315,-9503.68545615836
1711437425355,-9877.188132327283
1711437425395,-9877.188132327283
1711437425435,-9877.188132327283
1711437425476,-9877.188132327283
1711437425515,-9877.188132327283
1711437425555,-10189.785409217933
1711437425595,-10648.176842155866
1711437425636,-10739.441281236708
1711437425676,-10569.751528781606
1711437425716,-10569.751528781606
1711437425756,-10569.751528781606
1711437425796,-10569.751528781606
1711437425836,-10569.751528781606
1711437425877,-10569.751528781606
1711437425916,-10569.751528781606
1711437425956,-10569.751528781606
1711437425997,-10569.751528781606
1711437426036,-10569.751528781606
1711437426077,-10998.984478225932
1711437426117,-12870.809503309894
1711437426157,-12870.809503309894
1711437426197,-12870.809503309894
1711437426237,-12870.809503309894
1711437426278,-12870.809503309894
1711437426317,-12870.809503309894
1711437426357,-12870.809503309894
1711437426397,-12870.809503309894
1711437426437,-12870.809503309894
1711437426478,-16658.907317353645
1711437426518,-16658.907317353645
1711437426558,-16658.907317353645
1711437426598,-16658.907317353645
1711437426638,-16658.907317353645
1711437426679,-16658.907317353645
1711437426718,-16658.907317353645
1711437426758,-16658.907317353645
1711437426798,-16920.130841784645
1711437426839,-17160.575580954086
1711437426879,-17500.052150721196
1711437426919,-18530.34506708989
1711437426959,-18530.34506708989
1711437426999,-18530.34506708989
1711437427039,-18530.34506708989
1711437427080,-18782.12400599569
1711437427119,-20371.345757149626
1711437427159,-20456.78685499588
1711437427200,-20645.511513896286
1711437427240,-20645.511513896286
1711437427281,-20645.511513896286
1711437427320,-20645.511513896286
1711437427360,-20645.511513896286
1711437427400,-20645.511513896286
1711437427441,-20645.511513896286
1711437427481,-22281.653260063846
1711437427521,-22541.32874225173
1711437427561,-24041.954786849674
1711437427601,-24041.954786849674
1711437427641,-24041.954786849674
1711437427682,-22567.416652954882
1711437427721,-22541.32874225173
1711437427761,-20645.511513896286
1711437427802,-18502.708550837822
1711437427842,-17405.087222305592
1711437427882,-15631.257715926971
1711437427922,-15296.167454082053
1711437427962,-15258.501030271407
1711437428002,-13997.951505730161
1711437428042,-13168.820945320185
1711437428083,-11219.756725742947
1711437428122,-11048.494517714484
1711437428163,-11219.756725742947
1711437428203,-12150.932170751505
1711437428243,-13997.951505730161
1711437428284,-15258.501030271407
1711437428323,-15258.501030271407
1711437428363,-15258.501030271407
1711437428403,-15258.501030271407
1711437428443,-15258.501030271407
1711437428484,-15258.501030271407
1711437428524,-15258.501030271407
1711437428564,-15631.257715926971
1711437428604,-13997.951505730161
1711437428644,-13634.85885180463
1711437428685,-13634.85885180463
1711437428724,-13634.85885180463
1711437428764,-13634.85885180463
1711437428804,-13634.85885180463
1711437428845,-13634.85885180463
1711437428886,-13634.85885180463
1711437428925,-13634.85885180463
1711437428965,-17111.751457716804
1711437429005,-19590.073691928526
1711437429045,-19590.073691928526
1711437429086,-19590.073691928526
1711437429126,-19590.073691928526
1711437429166,-19590.073691928526
1711437429206,-19590.073691928526
1711437429246,-19590.073691928526
1711437429287,-19590.073691928526
1711437429326,-17191.353717566235
1711437429366,-17111.751457716804
1711437429406,-14019.991189036984
1711437429446,-14019.991189036984
1711437429488,-14019.991189036984
1711437429527,-14019.991189036984
1711437429567,-14019.991189036984
1711437429607,-14019.991189036984
1711437429647,-14019.991189036984
1711437429688,-14019.991189036984
1711437429727,-14019.991189036984
1711437429768,-14019.991189036984
1711437429808,-13331.2194121324
1711437429848,-13331.2194121324
1711437429888,-13331.2194121324
1711437429928,-10176.413871846627
1711437429968,-9733.796569918748
1711437430008,-8313.93900500238
1711437430048,-8313.93900500238
1711437430089,-7984.603589175735
1711437430128,-7389.978153055999
1711437430169,-5594.646439715987
1711437430209,-5346.625553433783
1711437430249,-5275.661370491143
1711437430290,-2233.29186418443
1711437430329,-2233.29186418443
1711437430369,-2233.29186418443
1711437430409,-2233.29186418443
1711437430450,-2233.29186418443
1711437430490,-2233.29186418443
1711437430530,-2233.29186418443
1711437430570,-2233.29186418443
1711437430610,1531.9836030192673
1711437430650,1531.9836030192673
1711437430691,1531.9836030192673
1711437430730,1531.9836030192673
1711437430771,1531.9836030192673
1711437430811,1531.9836030192673
1711437430851,1531.9836030192673
1711437430892,1531.9836030192673
1711437430931,1531.9836030192673
1711437430971,1531.9836030192673
1711437431012,2687.246608532965
1711437431052,4232.020025343634
1711437431092,4232.020025343634
1711437431132,4232.020025343634
1711437431172,4232.020025343634
1711437431212,4232.020025343634
1711437431252,4232.020025343634
1711437431293,4232.020025343634
1711437431332,4232.020025343634
1711437431373,4232.020025343634
1711437431413,2687.246608532965
1711437431453,2354.4746315623634
1711437431494,2354.4746315623634
1711437431533,2354.4746315623634
1711437431573,2354.4746315623634
1711437431613,2354.4746315623634
1711437431653,2354.4746315623634
1711437431694,2354.4746315623634
1711437431733,2354.4746315623634
1711437431774,2354.4746315623634
1711437431814,2687.246608532965
1711437431854,3781.3084290234838
1711437431895,3781.3084290234838
1711437431934,3781.3084290234838
1711437431974,3781.3084290234838
1711437432014,3781.3084290234838
1711437432054,3781.3084290234838
1711437432095,3781.3084290234838
1711437432134,2354.4746315623634
1711437432174,2054.076725496445
1711437432214,1036.589523748029
1711437432255,720.6689195469953
1711437432295,1036.589523748029
1711437432335,2054.076725496445
1711437432375,3781.3084290234838
1711437432415,4901.780366875464
1711437432455,7230.406528487802
1711437432496,7494.320185182616
1711437432535,7682.744268393377
1711437432575,8127.309467994608
1711437432616,8314.743305461481
1711437432656,9048.81958780624
1711437432696,9590.669686833862
1711437432736,12418.036338336067
1711437432776,12418.036338336067
1711437432816,12418.036338336067
1711437432856,9048.81958780624
1711437432897,8314.743305461481
1711437432936,8127.309467994608
1711437432976,8127.309467994608
1711437433016,8314.743305461481
1711437433056,8590.161307260394
1711437433097,8590.161307260394
1711437433137,8590.161307260394
1711437433177,9048.81958780624
1711437433217,9249.665163341444
1711437433257,9597.249676973093
1711437433298,11962.800781077007
1711437433337,12418.036338336067
1711437433377,14340.989047724754
1711437433417,14340.989047724754
1711437433458,14340.989047724754
1711437433498,14340.989047724754
1711437433538,14340.989047724754
1711437433578,11962.800781077007
1711437433618,9597.249676973093
1711437433658,9249.665163341444
1711437433699,9249.665163341444
1711437433738,9249.665163341444
1711437433778,9249.665163341444
1711437433818,9249.665163341444
1711437433858,9249.665163341444
1711437433899,8271.829339306802
1711437433939,7345.776070191292
1711437433979,4504.142822301714
1711437434019,4504.142822301714
1711437434059,4504.142822301714
1711437434100,4504.142822301714
1711437434139,4504.142822301714
1711437434179,4504.142822301714
1711437434219,4504.142822301714
1711437434259,4504.142822301714
1711437434300,4504.142822301714
1711437434340,4504.142822301714
1711437434380,4450.023383428343
1711437434420,3693.5258817540016
1711437434460,3693.5258817540016
1711437434501,3693.5258817540016
1711437434540,3693.5258817540016
1711437434580,3693.5258817540016
1711437434620,3693.5258817540016
1711437434661,3693.5258817540016
1711437434701,3693.5258817540016
1711437434741,3693.5258817540016
1711437434781,-5302.627278978936
1711437434821,-5302.627278978936
1711437434861,-5302.627278978936
1711437434902,-5302.627278978936
1711437434941,-5302.627278978936
1711437434981,-5302.627278978936
1711437435022,-5302.627278978936
1711437435061,-5302.627278978936
1711437435102,-5302.627278978936
1711437435142,-5302.627278978936
1711437435182,-7503.451975127915
1711437435222,-9129.458605267107
1711437435262,-9129.458605267107
1711437435303,-9129.458605267107
1711437435342,-9129.458605267107
1711437435382,-9129.458605267107
1711437435422,-9230.25553499069
1711437435463,-9230.25553499069
1711437435503,-9230.25553499069
1711437435543,-9230.25553499069
1711437435583,-9400.531329957768
1711437435623,-9400.531329957768
1711437435663,-9400.531329957768
1711437435704,-9400.531329957768
1711437435743,-9400.531329957768
1711437435783,-9400.531329957768
1711437435823,-9400.531329957768
1711437435864,-9400.531329957768
1711437435904,-9637.513947543222
1711437435944,-11956.864440345205
1711437435984,-12248.457844884135
1711437436024,-12513.294811504427
1711437436064,-12248.457844884135
1711437436105,-11956.864440345205
1711437436144,-11177.184295032406
1711437436185,-9637.513947543222
1711437436225,-8744.800663733156
1711437436265,-8497.410798301687
1711437436306,-8211.359961200505
1711437436345,-8175.972913455451
1711437436385,-7111.423120573163
1711437436425,-5876.614656523336
1711437436466,-3868.839666651096
1711437436506,-3296.5366318905726
1711437436546,-3296.5366318905726
1711437436586,-5798.5245056082495
1711437436626,-5876.614656523336
1711437436666,-8175.972913455451
1711437436707,-8211.359961200505
1711437436746,-8175.972913455451
1711437436787,-6446.452462130459
1711437436827,-5876.614656523336
1711437436867,-5798.5245056082495
1711437436908,-4392.410071117803
1711437436947,-3362.6141091373283
1711437436987,-3220.1026949749794
1711437437027,-2987.8364127958193
1711437437068,-2457.7930649025366
1711437437108,-730.7376208351925
1711437437148,-33.147087172139436
1711437437188,2196.3167744292878
1711437437228,2196.3167744292878
1711437437268,2196.3167744292878
1711437437309,-730.7376208351925
1711437437348,-1220.4389736275189
1711437437388,-2457.7930649025366
1711437437429,-2457.7930649025366
1711437437469,-2457.7930649025366
1711437437510,-2457.7930649025366
1711437437549,-2457.7930649025366
1711437437589,-2457.7930649025366
1711437437629,-2457.7930649025366
1711437437669,-2457.7930649025366
1711437437710,-2457.7930649025366
1711437437750,-1220.4389736275189
1711437437790,-1220.4389736275189
1711437437830,-1220.4389736275189
1711437437870,-1220.4389736275189
1711437437911,-1220.4389736275189
1711437437950,-1220.4389736275189
1711437437990,-1220.4389736275189
1711437438031,-1220.4389736275189
1711437438071,-1220.4389736275189
1711437438111,-2614.5749040895607
1711437438151,-3986.1565395011567
1711437438191,-3986.1565395011567
1711437438231,-3986.1565395011567
1711437438271,-3986.1565395011567
1711437438312,-3986.1565395011567
1711437438351,-3986.1565395011567
1711437438392,-3986.1565395011567
1711437438432,-3058.972584349336
1711437438472,-2614.5749040895607
1711437438513,-907.7233235361055
1711437438552,-336.85699857142754
1711437438592,1501.2647966891527
1711437438632,1501.2647966891527
1711437438672,1501.2647966891527
1711437438713,1501.2647966891527
1711437438753,1501.2647966891527
1711437438793,1501.2647966891527
1711437438833,1501.2647966891527
1711437438873,1501.2647966891527
1711437438914,-907.7233235361055
1711437438953,-907.7233235361055
1711437438993,-907.7233235361055
1711437439033,-907.7233235361055
1711437439073,-7.690156024880707
1711437439114,1246.8032654100098
1711437439153,1246.8032654100098
1711437439193,1246.8032654100098
1711437439234,1246.8032654100098
1711437439274,1501.2647966891527
1711437439314,2270.3668376589194
1711437439354,3989.3634059596807
1711437439394,4260.84168130951
1711437439434,4260.84168130951
1711437439474,4260.84168130951
1711437439515,4260.84168130951
1711437439554,4260.84168130951
1711437439594,4260.84168130951
1711437439634,4260.84168130951
1711437439674,4260.84168130951
1711437439715,4260.84168130951
1711437439755,4396.635468999855
1711437439795,4396.635468999855
1711437439835,4396.635468999855
1711437439875,4396.635468999855
1711437439916,4883.193024815293
1711437439955,5935.116169787478
1711437439995,5935.116169787478
1711437440035,5935.116169787478
1711437440075,5935.116169787478
1711437440116,5935.116169787478
1711437440155,6491.876554560848
1711437440196,6491.876554560848
1711437440236,6491.876554560848
1711437440276,6491.876554560848
1711437440317,6491.876554560848
1711437440356,6491.876554560848
1711437440396,6491.876554560848
1711437440436,6491.876554560848
1711437440476,6491.876554560848
1711437440517,6491.876554560848
1711437440556,6491.876554560848
1711437440596,6491.876554560848
1711437440636,6491.876554560848
1711437440677,6491.876554560848
1711437440717,6491.876554560848
1711437440757,6491.876554560848
1711437440797,7616.574421535246
1711437440837,7616.574421535246
1711437440877,7616.574421535246
1711437440918,7616.574421535246
1711437440957,7962.242421687115
1711437440997,8101.49464106909
1711437441037,9280.179147631163
1711437441077,9280.179147631163
1711437441118,9280.179147631163
1711437441158,9280.179147631163
1711437441198,9280.179147631163
1711437441238,9280.179147631163
1711437441278,9280.179147631163
1711437441319,9280.179147631163
1711437441358,8101.49464106909
1711437441398,7616.574421535246
1711437441438,7616.574421535246
1711437441478,7616.574421535246
1711437441519,8101.49464106909
1711437441559,9280.179147631163
1711437441599,9297.951856588246
1711437441639,9766.550209553447
1711437441679,9959.25584429293
1711437441720,10336.42319078627
1711437441759,10656.050631224178
1711437441799,11289.716513819993
1711437441839,11708.181617748924
1711437441880,12179.9407751502
1711437441920,12179.9407751502
1711437441960,12179.9407751502
1711437442000,12179.9407751502
1711437442040,12179.9407751502
1711437442080,11708.181617748924
1711437442121,10656.050631224178
1711437442160,10336.42319078627
1711437442200,10336.42319078627
1711437442240,10336.42319078627
1711437442280,10336.42319078627
1711437442321,10336.42319078627
1711437442361,10336.42319078627
1711437442401,9959.25584429293
1711437442441,9766.550209553447
1711437442481,8813.572815129999
1711437442522,4908.525737137999
1711437442561,4908.525737137999
1711437442601,4908.525737137999
1711437442641,4908.525737137999
1711437442681,4908.525737137999
1711437442722,4908.525737137999
1711437442762,4908.525737137999
1711437442802,4908.525737137999
1711437442842,4908.525737137999
1711437442882,3739.9561844677664
1711437442923,3731.3704679184593
1711437442962,3731.3704679184593
1711437443002,3731.3704679184593
1711437443042,3731.3704679184593
1711437443083,3731.3704679184593
1711437443123,3639.9582396699116
1711437443163,3035.694355980959
1711437443203,2874.501115491148
1711437443243,2874.501115491148
1711437443283,-2120.7553040925413
1711437443324,-2120.7553040925413
1711437443363,-2120.7553040925413
1711437443403,-2120.7553040925413
1711437443444,-2120.7553040925413
1711437443484,-2120.7553040925413
1711437443524,-2120.7553040925413
1711437443564,-2120.7553040925413
1711437443604,-2120.7553040925413
1711437443644,-2120.7553040925413
1711437443684,-3180.745738620637
1711437443725,-3829.383339569904
1711437443765,-3829.383339569904
1711437443805,-3829.383339569904
1711437443845,-3829.383339569904
1711437443885,-3829.383339569904
1711437443926,-4091.6319309363607
1711437443965,-4647.944266051054
1711437444005,-4647.944266051054
1711437444046,-4647.944266051054
1711437444085,-4945.699870467652
1711437444126,-4945.699870467652
1711437444166,-4945.699870467652
1711437444206,-4945.699870467652
1711437444246,-4945.699870467652
1711437444286,-4945.699870467652
1711437444327,-4945.699870467652
1711437444366,-4945.699870467652
1711437444407,-4945.699870467652
1711437444447,-4945.699870467652
1711437444487,-4945.699870467652
1711437444528,-4945.699870467652
1711437444567,-4945.699870467652
1711437444607,-4945.699870467652
1711437444648,-4945.699870467652
1711437444687,-4945.699870467652
1711437444728,-4945.699870467652
1711437444768,-4945.699870467652
1711437444808,-4945.699870467652
1711437444848,-4945.699870467652
1711437444888,-4945.699870467652
1711437444929,-6606.228981026448
1711437444968,-6606.228981026448
1711437445009,-6606.228981026448
1711437445049,-6606.228981026448
1711437445089,-6606.228981026448
1711437445130,-6606.228981026448
1711437445169,-6606.228981026448
1711437445209,-6606.228981026448
1711437445249,-6606.228981026448
1711437445289,-6606.228981026448
1711437445330,-8287.097146314103
1711437445370,-8287.097146314103
1711437445410,-8287.097146314103
1711437445450,-8287.097146314103
1711437445490,-8287.097146314103
1711437445531,-8562.132556555793
1711437445570,-8677.757607736858
1711437445610,-8677.757607736858
1711437445651,-8677.757607736858
1711437445691,-8677.757607736858
1711437445732,-11566.377588651376
1711437445771,-11566.377588651376
1711437445811,-11566.377588651376
1711437445851,-11566.377588651376
1711437445891,-11566.377588651376
1711437445932,-11566.377588651376
1711437445972,-11566.377588651376
1711437446011,-11566.377588651376
1711437446052,-11566.377588651376
1711437446092,-11566.377588651376
1711437446132,-13618.926564868074
1711437446172,-13618.926564868074
1711437446212,-13618.926564868074
1711437446252,-13618.926564868074
1711437446292,-13618.926564868074
1711437446333,-13618.926564868074
1711437446372,-13618.926564868074
1711437446412,-13618.926564868074
1711437446452,-13618.926564868074
1711437446492,-13618.926564868074
1711437446533,-13955.86515753204
1711437446573,-13955.86515753204
1711437446613,-13955.86515753204
1711437446653,-13955.86515753204
1711437446693,-13955.86515753204
1711437446734,-13955.86515753204
1711437446773,-13955.86515753204
1711437446813,-13955.86515753204
1711437446853,-13955.86515753204
1711437446893,-14246.65627581207
1711437446934,-14666.359574307688
1711437446974,-15443.431515340693
1711437447014,-15443.431515340693
1711437447054,-15443.431515340693
1711437447094,-15443.431515340693
1711437447135,-15443.431515340693
1711437447174,-15509.275304520968
1711437447214,-15953.132803959772
1711437447254,-15953.132803959772
1711437447294,-15509.275304520968
1711437447335,-15168.249725509202
1711437447374,-15168.249725509202
1711437447415,-15168.249725509202
1711437447455,-15168.249725509202
1711437447495,-15168.249725509202
1711437447536,-15168.249725509202
1711437447575,-15168.249725509202
1711437447615,-15509.275304520968
1711437447655,-16477.94890105282
1711437447695,-17018.83112804359
1711437447736,-17031.38018358266
1711437447776,-17018.83112804359
1711437447816,-16477.94890105282
1711437447856,-15168.249725509202
1711437447896,-14384.923263539094
1711437447937,-13989.677749658935
1711437447976,-13924.784106126754
1711437448016,-13312.668472394347
1711437448056,-13049.14660645253
1711437448096,-12676.10925784777
1711437448137,-12035.52968366351
1711437448177,-9280.215641199145
1711437448217,-9280.215641199145
1711437448257,-9280.215641199145
1711437448297,-9280.215641199145
1711437448338,-12035.52968366351
1711437448377,-13049.14660645253
1711437448417,-13312.668472394347
1711437448457,-13312.668472394347
1711437448498,-13312.668472394347
1711437448538,-13312.668472394347
1711437448578,-13312.668472394347
1711437448618,-13312.668472394347
1711437448658,-13924.784106126754
1711437448698,-13989.677749658935
1711437448739,-13924.784106126754
1711437448778,-12182.398906962713
1711437448818,-12182.398906962713
1711437448859,-12182.398906962713
1711437448899,-12182.398906962713
1711437448939,-12182.398906962713
1711437448979,-12182.398906962713
1711437449019,-12182.398906962713
1711437449059,-12182.398906962713
1711437449099,-12182.398906962713
1711437449140,-14715.591464619618
1711437449180,-14715.591464619618
1711437449220,-14715.591464619618
1711437449260,-13511.768542318605
1711437449300,-12182.398906962713
1711437449341,-12182.398906962713
1711437449380,-12182.398906962713
1711437449420,-12182.398906962713
1711437449461,-12159.69429732021
1711437449500,-10751.51230727043
1711437449541,-10148.822178178001
1711437449581,-8917.460965654114
1711437449621,-8683.416825177148
1711437449661,-8683.416825177148
1711437449701,-8683.416825177148
1711437449742,-8683.416825177148
1711437449781,-8683.416825177148
1711437449821,-8683.416825177148
1711437449862,-8683.416825177148
1711437449902,-8683.416825177148
1711437449943,-5368.554277680814
1711437449982,-5368.554277680814
1711437450022,-5368.554277680814
1711437450062,-4375.527778710704
1711437450102,-4267.559006608324
1711437450143,-2436.407799187349
1711437450183,-2319.8267766684294
1711437450223,-1913.5476654965896
1711437450263,-1885.0909396721981
1711437450303,-1784.53535945341
1711437450344,-544.5530768116005
1711437450383,860.7224652948789
1711437450423,1875.862357599428
1711437450463,3828.2614344493486
1711437450503,3828.2614344493486
1711437450544,3828.2614344493486
1711437450584,3828.2614344493486
1711437450624,3828.2614344493486
1711437450664,3828.2614344493486
1711437450704,3828.2614344493486
1711437450745,4160.979807561263
1711437450784,7098.4810917221475
1711437450824,7098.4810917221475
1711437450864,7098.4810917221475
1711437450905,7098.4810917221475
1711437450945,8433.908892418724
1711437450985,9101.503334467532
1711437451025,9203.727295145858
1711437451065,9203.727295145858
1711437451105,9203.727295145858
1711437451146,9664.990190956742
1711437451185,9926.12193506863
1711437451226,10237.65036747884
1711437451266,11366.923734622542
1711437451306,11366.923734622542
1711437451347,11366.923734622542
1711437451386,11366.923734622542
1711437451426,11366.923734622542
1711437451466,11366.923734622542
1711437451507,11366.923734622542
1711437451547,11366.923734622542
1711437451587,11366.923734622542
1711437451627,11387.631580813322
1711437451667,11387.631580813322
1711437451707,11387.631580813322
1711437451748,11387.631580813322
1711437451787,11387.631580813322
1711437451828,12311.111023594625
1711437451868,12311.111023594625
1711437451908,12311.111023594625
1711437451949,12311.111023594625
1711437451988,12311.111023594625
1711437452028,13412.9599110235
1711437452068,13492.159987007268
1711437452108,13492.159987007268
1711437452149,13492.159987007268
1711437452189,13492.159987007268
1711437452229,13492.159987007268
1711437452269,13492.159987007268
1711437452309,13492.159987007268
1711437452350,12311.111023594625
1711437452389,12291.015771201346
1711437452429,11890.581193064805
1711437452470,11890.581193064805
1711437452510,12291.015771201346
1711437452551,12311.111023594625
1711437452590,12526.085136851296
1711437452630,13087.367147043813
1711437452670,13087.367147043813
1711437452711,13492.159987007268
1711437452751,13553.544198788702
1711437452790,13791.516888958868
1711437452831,13935.328096145764
1711437452871,15113.873590700794
1711437452911,15113.873590700794
1711437452952,15113.873590700794
1711437452991,15113.873590700794
1711437453031,15113.873590700794
1711437453071,14286.046518171206
1711437453111,13935.328096145764
1711437453152,13791.516888958868
1711437453192,13791.516888958868
1711437453231,13791.516888958868
1711437453272,13791.516888958868
1711437453312,13791.516888958868
1711437453352,13791.516888958868
1711437453392,13553.544198788702
1711437453432,13087.367147043813
1711437453472,12686.244591757655
1711437453512,6885.880245323991
1711437453553,6885.880245323991
1711437453592,6885.880245323991
1711437453633,6885.880245323991
1711437453673,6885.880245323991
1711437453713,6885.880245323991
1711437453753,6885.880245323991
1711437453793,6885.880245323991
1711437453833,6885.880245323991
1711437453873,6472.759710360551
1711437453913,6217.67533741612
1711437453954,6217.67533741612
1711437453993,6217.67533741612
1711437454034,6217.67533741612
1711437454074,6217.67533741612
1711437454114,6217.67533741612
1711437454155,5564.1457780392375
1711437454194,5482.168807687471
1711437454234,5482.168807687471
1711437454274,1898.6814181122463
1711437454314,-895.665665553417
1711437454355,-895.665665553417
1711437454395,-895.665665553417
1711437454434,-895.665665553417
1711437454475,-895.665665553417
1711437454515,-895.665665553417
1711437454555,-895.665665553417
1711437454595,-895.665665553417
1711437454635,-895.665665553417
1711437454675,-895.665665553417
1711437454715,-2926.754553362727
1711437454756,-2926.754553362727
1711437454795,-2926.754553362727
1711437454835,-2926.754553362727
1711437454876,-2926.754553362727
1711437454916,-3107.044855846092
1711437454956,-3312.869470708538
1711437454996,-3312.869470708538
1711437455036,-3312.869470708538
1711437455076,-3312.869470708538
1711437455116,-8724.382923681755
1711437455157,-9577.985046125483
1711437455196,-9577.985046125483
1711437455237,-9577.985046125483
1711437455277,-9577.985046125483
1711437455317,-9577.985046125483
1711437455358,-9577.985046125483
1711437455397,-9577.985046125483
1711437455437,-9577.985046125483
1711437455477,-9577.985046125483
1711437455517,-9778.367537339684
1711437455558,-10269.413779500872
1711437455598,-10269.413779500872
1711437455638,-10269.413779500872
1711437455678,-10269.413779500872
1711437455721,-10510.474923790433
1711437455759,-11435.591733435402
1711437455798,-11716.553738051094
1711437455838,-11716.553738051094
1711437455878,-11716.553738051094
1711437455919,-15396.125399760902
1711437455960,-20608.295996637084
1711437455999,-20608.295996637084
1711437456039,-20608.295996637084
1711437456079,-20608.295996637084
1711437456119,-20608.295996637084
1711437456160,-20608.295996637084
1711437456199,-20608.295996637084
1711437456239,-20608.295996637084
1711437456280,-20608.295996637084
1711437456320,-20608.295996637084
1711437456360,-20608.295996637084
1711437456400,-20217.60575681599
1711437456440,-19073.052933188155
1711437456480,-18587.453235975467
1711437456520,-18092.519819898764
1711437456561,-16379.96357321553
1711437456600,-16315.237055121455
1711437456640,-13575.718713072827
1711437456681,-11954.617387040518
1711437456721,-11512.30751264887
1711437456761,-10635.271703597857
1711437456801,-8844.678552884376
1711437456841,-8830.880732720252
1711437456881,-8210.609860016964
1711437456921,-8110.528217475396
1711437456962,-7699.303693892434
1711437457001,-6754.687194416532
1711437457042,-6754.687194416532
1711437457082,-6754.687194416532
1711437457122,-6754.687194416532
1711437457163,-5207.487957801903
1711437457202,-5207.487957801903
1711437457242,-5207.487957801903
1711437457283,-5207.487957801903
1711437457323,-3403.8512444868684
1711437457363,-3049.12245608191
1711437457403,-2774.4967968058772
1711437457443,-1667.001595231006
1711437457483,-1667.001595231006
1711437457523,-1667.001595231006
1711437457564,-1430.0735159292817
1711437457603,-1378.6155481371097
1711437457644,-624.2865128496196
1711437457684,-624.2865128496196
1711437457724,-624.2865128496196
1711437457765,-624.2865128496196
1711437457804,-624.2865128496196
1711437457844,-624.2865128496196
1711437457884,-624.2865128496196
1711437457927,-1378.6155481371097
1711437457965,-1430.0735159292817
1711437458005,-1430.0735159292817
1711437458045,-1430.0735159292817
1711437458085,-1378.6155481371097
1711437458125,-649.1029279055074
1711437458166,-624.2865128496196
1711437458205,360.4782653246075
1711437458246,360.4782653246075
1711437458286,749.3166316126008
1711437458326,1283.6384110096842
1711437458367,1357.4486653273925
1711437458406,1555.3684976962395
1711437458446,2697.5774648063816
1711437458486,2697.5774648063816
1711437458526,2697.5774648063816
1711437458567,2697.5774648063816
1711437458607,2697.5774648063816
1711437458647,1357.4486653273925
1711437458687,1283.6384110096842
1711437458727,749.3166316126008
1711437458768,749.3166316126008
1711437458807,749.3166316126008
1711437458848,749.3166316126008
1711437458888,749.3166316126008
1711437458928,749.3166316126008
1711437458969,360.4782653246075
1711437459008,-467.1369623481296
1711437459048,-467.1369623481296
1711437459089,1283.6384110096842
1711437459129,1792.2664473559707
1711437459169,1792.2664473559707
1711437459209,1792.2664473559707
1711437459249,1792.2664473559707
1711437459289,1792.2664473559707
1711437459329,1792.2664473559707
1711437459370,1792.2664473559707
1711437459409,-467.1369623481296
1711437459450,-576.3659953917377
1711437459490,-576.3659953917377
1711437459530,-576.3659953917377
1711437459571,-576.3659953917377
1711437459610,-576.3659953917377
1711437459650,-576.3659953917377
1711437459690,-800.7527063421439
1711437459730,-983.3377677572425
1711437459771,-1472.3428599415347
1711437459810,-1403.554554356495
1711437459850,-1403.554554356495
1711437459891,-1403.554554356495
1711437459931,-1403.554554356495
1711437459971,-1403.554554356495
1711437460011,-1403.554554356495
1711437460051,-1403.554554356495
1711437460091,-1403.554554356495
1711437460134,-1403.554554356495
1711437460172,-3198.0794188866857
1711437460211,-3381.392287154682
1711437460251,-3381.392287154682
1711437460292,-3381.392287154682
1711437460331,-3381.392287154682
1711437460372,-3198.0794188866857
1711437460412,-1483.1007127445191
1711437460452,-1476.0858220434748
1711437460492,-1476.0858220434748
1711437460532,-1403.554554356495
1711437460573,-433.6224308521487
1711437460612,-202.15392944938503
1711437460652,1226.5754446769133
1711437460692,1314.7112529766746
1711437460733,1314.7112529766746
1711437460773,1314.7112529766746
1711437460813,1314.7112529766746
1711437460853,1314.7112529766746
1711437460893,1314.7112529766746
1711437460933,1314.7112529766746
1711437460974,1087.2031221932266
1711437461013,1087.2031221932266
1711437461053,1087.2031221932266
1711437461093,1087.2031221932266
1711437461134,1314.7112529766746
1711437461174,2316.0531837842427
1711437461214,3388.1126303253695
1711437461254,3388.1126303253695
1711437461294,3388.1126303253695
1711437461334,3388.1126303253695
1711437461375,3420.3995036941487
1711437461414,4127.885444788495
1711437461454,4237.797131031752
1711437461495,4237.797131031752
1711437461535,4237.797131031752
1711437461575,4237.797131031752
1711437461615,4237.797131031752
1711437461655,4237.797131031752
1711437461695,4127.885444788495
1711437461735,4042.462331342045
1711437461776,3388.1126303253695
1711437461815,3388.1126303253695
1711437461856,3388.1126303253695
1711437461896,3388.1126303253695
1711437461936,3388.1126303253695
1711437461977,3388.1126303253695
1711437462016,3376.057462018449
1711437462056,3289.6605630987324
1711437462096,3289.6605630987324
1711437462136,3376.057462018449
1711437462177,4042.462331342045
1711437462216,4042.462331342045
1711437462256,4042.462331342045
1711437462297,4042.462331342045
1711437462337,4042.462331342045
1711437462377,4042.462331342045
1711437462417,3376.057462018449
1711437462457,3289.6605630987324
1711437462497,3118.0439546257257
1711437462537,2465.9521863767877
1711437462578,2465.9521863767877
1711437462617,2465.9521863767877
1711437462657,2465.9521863767877
1711437462698,2465.9521863767877
1711437462738,1700.2159318618942
1711437462779,1672.9341028770432
1711437462818,1672.9341028770432
1711437462858,1672.9341028770432
1711437462898,1726.5049197790213
1711437462938,1726.5049197790213
1711437462979,1726.5049197790213
1711437463018,1726.5049197790213
1711437463059,1726.5049197790213
1711437463099,1726.5049197790213
1711437463139,30.209701453102753
1711437463180,-431.99417083570734
1711437463219,-478.12363385409117
1711437463259,-478.12363385409117
1711437463299,-478.12363385409117
1711437463339,-478.12363385409117
1711437463380,-478.12363385409117
1711437463420,-478.12363385409117
1711437463460,-779.2514809677377
1711437463500,-1178.5158505791333
1711437463540,-2205.096302852966
1711437463581,-2205.096302852966
1711437463620,-2205.096302852966
1711437463660,-2205.096302852966
1711437463700,-2205.096302852966
1711437463741,-2205.096302852966
1711437463782,-2205.096302852966
1711437463821,-2205.096302852966
1711437463861,-2205.096302852966
1711437463901,-3112.2326785637997
1711437463941,-3342.3456226000562
1711437463982,-3342.3456226000562
1711437464022,-3342.3456226000562
1711437464062,-3342.3456226000562
1711437464102,-3342.3456226000562
1711437464142,-3342.3456226000562
1711437464183,-3945.811294934014
1711437464222,-4198.483136141207
1711437464262,-5082.769863263238
1711437464302,-10346.176574815065
1711437464342,-10346.176574815065
1711437464383,-10346.176574815065
1711437464423,-10346.176574815065
1711437464463,-10346.176574815065
1711437464503,-10346.176574815065
1711437464543,-10346.176574815065
1711437464584,-10346.176574815065
1711437464623,-10346.176574815065
1711437464663,-10346.176574815065
1711437464704,-10781.353807291016
1711437464744,-10781.353807291016
1711437464785,-10781.353807291016
1711437464824,-10781.353807291016
1711437464864,-10781.353807291016
1711437464904,-10781.353807291016
1711437464944,-11219.593499404611
1711437464985,-11219.593499404611
1711437465025,-11219.593499404611
1711437465065,-10606.359649334103
1711437465105,-10346.176574815065
1711437465145,-8560.978360938374
1711437465186,-8560.978360938374
1711437465225,-8560.978360938374
1711437465265,-8560.978360938374
1711437465305,-8560.978360938374
1711437465346,-8560.978360938374
1711437465386,-8560.978360938374
1711437465426,-8560.978360938374
1711437465466,-8560.978360938374
1711437465506,-8560.978360938374
1711437465546,-8560.978360938374
1711437465587,-8560.978360938374
1711437465626,-8264.2512463585
1711437465666,-6457.639881319366
1711437465707,-5813.068012756761
1711437465747,-5545.420189913362
1711437465788,-5485.08624816034
1711437465827,-5485.08624816034
1711437465867,-4789.906515499577
1711437465907,-3982.422431204468
1711437465948,-3696.6914367601275
1711437465988,-2902.148600475164
1711437466028,-1126.2066785281058
1711437466068,-1126.2066785281058
1711437466108,-1126.2066785281058
1711437466148,-1126.2066785281058
1711437466189,-1126.2066785281058
1711437466228,-1126.2066785281058
1711437466268,-3696.6914367601275
1711437466309,-3962.60874756868
1711437466349,-3962.60874756868
1711437466389,-3962.60874756868
1711437466429,-3696.6914367601275
1711437466469,-1750.95653016679
1711437466509,-1126.2066785281058
1711437466549,-759.5422807591967
1711437466590,-759.5422807591967
1711437466629,-604.7839731075801
1711437466670,227.34540285123512
1711437466710,398.29385195323266
1711437466750,901.9451794419438
1711437466791,901.9451794419438
1711437466830,901.9451794419438
1711437466870,901.9451794419438
1711437466910,901.9451794419438
1711437466950,901.9451794419438
1711437466991,901.9451794419438
1711437467030,398.29385195323266
1711437467070,227.34540285123512
1711437467110,227.34540285123512
1711437467151,398.29385195323266
1711437467191,901.9451794419438
1711437467231,1167.5227143631782
1711437467271,2438.956829963252
1711437467311,2438.956829963252
1711437467351,2539.5902857012115
1711437467392,3291.2511174194515
1711437467431,3687.748835182283
1711437467471,4023.692089825636
1711437467512,4378.516538368072
1711437467552,4853.333854340017
1711437467592,4853.333854340017
1711437467632,4853.333854340017
1711437467672,4853.333854340017
1711437467712,4378.516538368072
1711437467752,4023.692089825636
1711437467793,3291.2511174194515
1711437467832,3291.2511174194515
1711437467873,3291.2511174194515
1711437467913,3291.2511174194515
1711437467953,3291.2511174194515
1711437467994,3291.2511174194515
1711437468033,2539.5902857012115
1711437468073,2288.5754230262246
1711437468113,2021.828977491241
1711437468153,2021.828977491241
1711437468194,2021.828977491241
1711437468234,2021.828977491241
1711437468274,2021.828977491241
1711437468314,2021.828977491241
1711437468354,2021.828977491241
1711437468395,2021.828977491241
1711437468434,2021.828977491241
1711437468474,1178.7015536539257
1711437468514,955.4767582756467
1711437468554,647.9238429390825
1711437468595,647.9238429390825
1711437468634,647.9238429390825
1711437468675,647.9238429390825
1711437468715,647.9238429390825
1711437468755,647.9238429390825
1711437468796,610.6338643345516
1711437468835,610.6338643345516
1711437468875,1013.6144700238947
1711437468915,1178.7015536539257
1711437468955,2639.328423072817
1711437468996,2639.328423072817
1711437469036,2639.328423072817
1711437469076,2639.328423072817
1711437469116,2639.328423072817
1711437469156,2639.328423072817
1711437469197,2639.328423072817
1711437469236,2639.328423072817
1711437469276,1013.6144700238947
1711437469316,1013.6144700238947
1711437469356,1013.6144700238947
1711437469397,1013.6144700238947
1711437469437,2107.6194344502874
1711437469477,2290.3448448120616
1711437469517,2290.3448448120616
1711437469557,2290.3448448120616
1711437469598,2290.3448448120616
1711437469637,2290.3448448120616
1711437469677,2437.073152028024
1711437469717,2437.073152028024
1711437469757,2437.073152028024
1711437469798,2437.073152028024
1711437469837,2437.073152028024
1711437469878,2437.073152028024
1711437469918,2437.073152028024
1711437469958,2437.073152028024
1711437469999,2437.073152028024
1711437470038,2290.3448448120616
1711437470078,2107.6194344502874
1711437470118,2107.6194344502874
1711437470158,2107.6194344502874
1711437470199,2107.6194344502874
1711437470238,2107.6194344502874
1711437470279,1747.7806825642474
1711437470319,1225.0989390043542
1711437470359,1101.077983992407
1711437470400,546.3178138202056
1711437470439,-4237.178302449873
1711437470479,-4237.178302449873
1711437470519,-4237.178302449873
1711437470559,-4237.178302449873
1711437470600,-4237.178302449873
1711437470640,-4237.178302449873
1711437470680,-4237.178302449873
1711437470720,-4237.178302449873
1711437470760,-4237.178302449873
1711437470801,-5827.0483538522385
1711437470840,-6374.859940715134
1711437470880,-6374.859940715134
1711437470920,-6374.859940715134
1711437470960,-5827.0483538522385
1711437471001,-4981.693833243102
1711437471041,-4237.178302449873
1711437471081,-4237.178302449873
1711437471121,-4237.178302449873
1711437471161,-2965.785348283127
1711437471202,-2927.8201063824818
1711437471241,-2604.8004496293142
1711437471281,-2455.202078339178
1711437471321,-1595.7066952437162
1711437471362,-1595.7066952437162
1711437471402,-1595.7066952437162
1711437471442,-1595.7066952437162
1711437471482,-1595.7066952437162
1711437471522,-2604.8004496293142
1711437471562,-2927.8201063824818
1711437471603,-2965.785348283127
1711437471642,-2965.785348283127
1711437471682,-2965.785348283127
1711437471723,-2965.785348283127
1711437471763,-2965.785348283127
1711437471804,-2965.785348283127
1711437471843,-4353.33056501532
1711437471883,-4589.250619126018
1711437471923,-4353.33056501532
1711437471964,-4081.237771606073
1711437472004,-4081.237771606073
1711437472044,-4081.237771606073
1711437472084,-4081.237771606073
1711437472124,-4081.237771606073
1711437472164,-4081.237771606073
1711437472205,-4081.237771606073
1711437472244,-6575.392991743516
1711437472284,-6974.706890241709
1711437472324,-7130.543512511533
1711437472364,-7130.543512511533
1711437472405,-7130.543512511533
1711437472445,-7130.543512511533
1711437472485,-7130.543512511533
1711437472525,-7130.543512511533
1711437472565,-7196.307149376953
1711437472606,-7232.197020838736
1711437472645,-7196.307149376953
1711437472684,-6575.392991743516
1711437472724,-5598.580329607008
1711437472764,-5598.580329607008
1711437472805,-5598.580329607008
1711437472845,-5598.580329607008
1711437472885,-5598.580329607008
1711437472925,-5598.580329607008
1711437472965,-5598.580329607008
1711437473006,-7232.197020838736
1711437473046,-7459.2494014222175
1711437473086,-7459.2494014222175
1711437473126,-7459.2494014222175
1711437473166,-7459.2494014222175
1711437473207,-7459.2494014222175
1711437473246,-7459.2494014222175
1711437473286,-7459.2494014222175
1711437473326,-8128.977994357236
1711437473366,-8289.004297221778
1711437473407,-7459.2494014222175
1711437473446,-7377.415642621927
1711437473487,-7377.415642621927
1711437473527,-7377.415642621927
1711437473567,-7377.415642621927
1711437473607,-7377.415642621927
1711437473647,-7377.415642621927
1711437473687,-7377.415642621927
1711437473727,-7377.415642621927
1711437473767,-7377.415642621927
1711437473808,-7377.415642621927
1711437473847,-7377.415642621927
1711437473888,-7377.415642621927
1711437473928,-7377.415642621927
1711437473968,-5557.609353129752
1711437474009,-5380.535788518842
1711437474048,-3250.6325269127265
1711437474088,-2907.282000860898
1711437474128,-2750.8923172939103
1711437474168,-2702.8160681757145
1711437474209,-2686.1621024440974
1711437474248,-2576.3283112309873
1711437474288,-2032.0635673962533
1711437474329,-932.5249378008302
1711437474369,-932.5249378008302
1711437474409,-932.5249378008302
1711437474449,-932.5249378008302
1711437474489,-932.5249378008302
1711437474529,-932.5249378008302
1711437474569,-932.5249378008302
1711437474610,-932.5249378008302
1711437474649,729.1561666231137
1711437474689,729.1561666231137
1711437474729,729.1561666231137
1711437474769,1352.8694542404264
1711437474810,1604.626249217894
1711437474850,3958.2610773365013
1711437474890,4091.206507258583
1711437474930,4914.344821994193
1711437474970,4914.344821994193
1711437475011,4982.871758447494
1711437475050,5103.5541171729565
1711437475090,5512.900266253622
1711437475130,5977.118823480792
1711437475170,7165.134929561289
1711437475211,7165.134929561289
1711437475251,7165.134929561289
1711437475291,7165.134929561289
1711437475331,7165.134929561289
1711437475371,7165.134929561289
1711437475412,7165.134929561289
1711437475451,7440.535710010212
1711437475491,7440.535710010212
1711437475531,7440.535710010212
1711437475572,7440.535710010212
1711437475612,8235.503596193623
1711437475652,9494.380736806663
1711437475692,9632.41980953468
1711437475732,10513.679867289029
1711437475772,10513.679867289029
1711437475813,10513.679867289029
1711437475852,11173.196379770292
1711437475892,11242.473325056024
1711437475932,11396.952691262588
1711437475972,11396.952691262588
1711437476013,11396.952691262588
1711437476053,11396.952691262588
1711437476092,11396.952691262588
1711437476133,11396.952691262588
1711437476173,11242.473325056024
1711437476213,11173.196379770292
1711437476253,10513.679867289029
1711437476293,10513.679867289029
1711437476333,10513.679867289029
1711437476373,10513.679867289029
1711437476414,10513.679867289029
1711437476453,10513.679867289029
1711437476493,9608.427718833322
1711437476534,9353.592566652922
1711437476574,9323.6124185347
1711437476614,9323.6124185347
1711437476654,9323.6124185347
1711437476694,9323.6124185347
1711437476734,9323.6124185347
1711437476774,9323.6124185347
1711437476815,9323.6124185347
1711437476854,9259.015665429644
1711437476895,9118.872416611295
1711437476935,8724.73977392912
1711437476975,8671.446150581818
1711437477016,8671.446150581818
1711437477055,8671.446150581818
1711437477095,8671.446150581818
1711437477135,8671.446150581818
1711437477175,8671.446150581818
1711437477216,8118.762408552226
1711437477255,4201.4335358524695
1711437477295,4201.4335358524695
1711437477335,4201.4335358524695
1711437477376,4201.4335358524695
1711437477416,4201.4335358524695
1711437477456,4201.4335358524695
1711437477496,4201.4335358524695
1711437477536,3779.0518850572407
1711437477576,3014.337840457447
1711437477617,2698.460134455934
1711437477656,2118.4526327229105
1711437477696,2056.261767322896
1711437477737,2056.261767322896
1711437477777,2056.261767322896
1711437477817,2056.261767322896
1711437477857,2056.261767322896
1711437477897,1781.7645508632995
1711437477937,-2931.5877404964995
1711437477977,-2931.5877404964995
1711437478018,-2931.5877404964995
1711437478057,-2931.5877404964995
1711437478098,-2931.5877404964995
1711437478137,-2931.5877404964995
1711437478178,-2931.5877404964995
1711437478219,-2931.5877404964995
1711437478258,-4828.34559547808
1711437478298,-4947.009356438415
1711437478338,-5518.25305799651
1711437478378,-5749.27959316154
1711437478419,-5749.27959316154
1711437478459,-5749.27959316154
1711437478498,-5749.27959316154
1711437478539,-5749.27959316154
1711437478579,-6301.218273257837
1711437478620,-6684.754196862923
1711437478659,-7064.738444372313
1711437478699,-9222.09165800875
1711437478739,-9222.09165800875
1711437478779,-9222.09165800875
1711437478820,-9222.09165800875
1711437478860,-9222.09165800875
1711437478900,-9222.09165800875
1711437478940,-9222.09165800875
1711437478980,-9222.09165800875
1711437479021,-9222.09165800875
1711437479060,-10765.145748663694
1711437479100,-10807.96628265665
1711437479140,-10807.96628265665
1711437479181,-10807.96628265665
1711437479221,-10807.96628265665
1711437479261,-10765.145748663694
1711437479301,-10065.642691067187
1711437479341,-10065.642691067187
1711437479381,-10065.642691067187
1711437479422,-9757.914360433351
1711437479461,-9732.03188471985
1711437479502,-9222.09165800875
1711437479542,-8142.421357206069
1711437479582,-8142.421357206069
1711437479623,-8142.421357206069
1711437479662,-8142.421357206069
1711437479702,-8142.421357206069
1711437479742,-8142.421357206069
1711437479783,-8142.421357206069
1711437479823,-8142.421357206069
1711437479863,-9732.03188471985
1711437479903,-9732.03188471985
1711437479943,-9699.83365121577
1711437479983,-8142.421357206069
1711437480024,-7527.112257986795
1711437480063,-6580.229575122474
1711437480104,-5324.273106134264
1711437480144,-4886.642814772204
1711437480184,-4833.206767169293
1711437480225,-4403.382567434106
1711437480264,-4055.218884464819
1711437480304,-3692.508597434964
1711437480344,-2794.5449072383344
1711437480385,-2748.3442049389705
1711437480425,-2748.3442049389705
1711437480465,-2748.3442049389705
1711437480505,-2748.3442049389705
1711437480545,-3692.508597434964
1711437480585,-4055.218884464819
1711437480626,-4403.382567434106
1711437480665,-4055.218884464819
1711437480705,-3692.508597434964
1711437480746,-3624.714388646651
1711437480786,-2748.3442049389705
1711437480826,-1066.545173040824
1711437480866,-306.6029050364159
1711437480906,-49.89819340943359
1711437480946,194.18738346965984
1711437480986,231.3287798706442
1711437481027,369.9361681230366
1711437481066,703.1325141997077
1711437481106,2067.385403260356
1711437481146,2067.385403260356
1711437481186,2067.385403260356
1711437481227,703.1325141997077
1711437481267,369.9361681230366
1711437481307,231.3287798706442
1711437481347,194.18738346965984
1711437481387,194.18738346965984
1711437481428,194.18738346965984
1711437481467,231.3287798706442
1711437481507,231.3287798706442
1711437481547,231.3287798706442
1711437481587,194.18738346965984
1711437481628,194.18738346965984
1711437481667,345.79549241880886
1711437481708,1748.8135909391567
1711437481748,1748.8135909391567
1711437481788,1748.8135909391567
1711437481829,1748.8135909391567
1711437481868,1748.8135909391567
1711437481908,1748.8135909391567
1711437481948,345.79549241880886
1711437481988,45.513430549995974
1711437482029,-246.88658162974752
1711437482069,-246.88658162974752
1711437482108,-246.88658162974752
1711437482149,-246.88658162974752
1711437482189,-246.88658162974752
1711437482230,-246.88658162974752
1711437482269,-683.5027217585593
1711437482309,-1286.9400265431032
1711437482349,-3512.301073870389
1711437482389,-3512.301073870389
1711437482430,-3512.301073870389
1711437482469,-3512.301073870389
1711437482509,-3512.301073870389
1711437482550,-3512.301073870389
1711437482590,-3512.301073870389
1711437482630,-3512.301073870389
1711437482670,-3512.301073870389
1711437482710,-5514.699062352069
1711437482750,-5553.111292003654
1711437482790,-5553.111292003654
1711437482831,-5553.111292003654
1711437482870,-5553.111292003654
1711437482911,-5514.699062352069
1711437482951,-5514.699062352069
1711437482991,-5553.111292003654
1711437483032,-5704.6958739706315
1711437483071,-5130.235127088381
1711437483111,-4444.723881808575
1711437483151,-3512.301073870389
1711437483191,-3046.5184360696003
1711437483232,-3046.5184360696003
1711437483271,-3046.5184360696003
1711437483311,-3046.5184360696003
1711437483352,-3046.5184360696003
1711437483392,-3046.5184360696003
1711437483432,-3046.5184360696003
1711437483472,-4444.723881808575
1711437483512,-5130.235127088381
1711437483552,-5130.235127088381
1711437483592,-4568.598424212774
1711437483633,-4444.723881808575
1711437483672,-3046.5184360696003
1711437483713,-2102.2466558546294
1711437483753,-828.3283697934821
1711437483793,-298.1461416739039
1711437483834,-147.31014686217532
1711437483873,-132.28865176951513
1711437483913,-88.60450290469453
1711437483953,553.0605713981204
1711437483993,1797.5441611902788
1711437484034,1935.0385988205671
1711437484073,1935.0385988205671
1711437484114,1935.0385988205671
1711437484154,1935.0385988205671
1711437484194,1935.0385988205671
1711437484235,1935.0385988205671
1711437484274,553.0605713981204
1711437484314,553.0605713981204
1711437484354,553.0605713981204
1711437484394,553.0605713981204
1711437484435,1826.979560329346
1711437484475,1935.0385988205671
1711437484515,3078.002921767533
1711437484555,3078.002921767533
1711437484595,3078.002921767533
1711437484636,3078.002921767533
1711437484675,3405.795702253934
1711437484716,3762.6398459966294
1711437484756,3762.6398459966294
1711437484796,3762.6398459966294
1711437484837,3762.6398459966294
1711437484877,3762.6398459966294
1711437484917,3762.6398459966294
1711437484957,3762.6398459966294
1711437484997,3405.795702253934
1711437485038,3078.002921767533
1711437485077,2351.6878177658655
1711437485117,2351.6878177658655
1711437485157,2351.6878177658655
1711437485198,3078.002921767533
1711437485238,3405.795702253934
1711437485278,3827.196559435688
1711437485318,3944.0948495341
1711437485358,4187.1412279373035
1711437485398,4212.586860320531
1711437485439,4678.498819700209
1711437485478,5435.19014842459
1711437485518,5648.32429464208
1711437485559,5648.32429464208
1711437485599,5648.32429464208
1711437485639,5648.32429464208
1711437485679,5648.32429464208
1711437485719,5435.19014842459
1711437485759,4678.498819700209
1711437485799,4212.586860320531
1711437485840,4212.586860320531
1711437485880,4212.586860320531
1711437485920,4212.586860320531
1711437485960,4212.586860320531
1711437486000,4212.586860320531
1711437486041,4212.586860320531
1711437486080,3944.0948495341
1711437486120,3895.2768068220466
1711437486161,3895.2768068220466
1711437486201,3895.2768068220466
1711437486241,3895.2768068220466
1711437486281,3895.2768068220466
1711437486321,3895.2768068220466
1711437486361,3895.2768068220466
1711437486401,3895.2768068220466
1711437486442,2998.9591498295777
1711437486481,2361.0458716074936
1711437486522,1977.2740613976493
1711437486562,1977.2740613976493
1711437486602,1977.2740613976493
1711437486643,1977.2740613976493
1711437486682,1977.2740613976493
1711437486722,1977.2740613976493
1711437486763,1876.1458422378637
1711437486803,1519.2891198268626
1711437486843,-3456.4172836765647
1711437486883,-3456.4172836765647
1711437486923,-3456.4172836765647
1711437486963,-3456.4172836765647
1711437487003,-3456.4172836765647
1711437487044,-3456.4172836765647
1711437487084,-3456.4172836765647
1711437487124,-3456.4172836765647
1711437487164,-3456.4172836765647
1711437487204,-3459.033447765745
1711437487245,-3806.778215426719
1711437487284,-3806.778215426719
1711437487324,-3806.778215426719
1711437487365,-3806.778215426719
