Timestamp,Cleaned PPG
1712041230893,0.0
1712041230933,0.0
1712041230973,0.0
1712041231013,0.0
1712041231055,0.0
1712041231094,0.0
1712041231134,0.0
1712041231174,0.0
1712041231214,0.0
1712041231251,0.0
1712041231291,0.0
1712041231331,0.0
1712041231371,0.0
1712041231411,0.0
1712041231452,0.0
1712041231491,0.0
1712041231531,0.0
1712041231571,0.0
1712041231611,0.0
1712041231652,0.0
1712041231692,0.0
1712041231732,0.0
1712041231772,0.0
1712041231812,0.0
1712041231853,0.0
1712041231892,0.0
1712041231932,0.0
1712041231972,0.0
1712041232015,0.0
1712041232053,0.0
1712041232093,0.0
1712041232133,0.0
1712041232173,1082319.9536839102
1712041232213,1082319.9536839102
1712041232254,1082319.9536839102
1712041232293,1082319.9536839102
1712041232333,1082319.9536839102
1712041232374,1082319.9536839102
1712041232414,1082319.9536839102
1712041232455,1082319.9536839102
1712041232494,1082319.9536839102
1712041232534,1082319.9536839102
1712041232574,1082319.9536839102
1712041232614,1016724.6498909807
1712041232655,954516.220601612
1712041232694,896083.85551959
1712041232735,841405.0343858763
1712041232775,790319.8126602317
1712041232816,742507.5143213486
1712041232856,697650.7714977753
1712041232895,656231.5918527271
1712041232935,617115.5829448523
1712041232976,580571.8173996867
1712041233016,543509.5452346294
1712041233057,506230.37617161474
1712041233096,472446.14888489107
1712041233136,441109.7485210488
1712041233176,412990.1260160743
1712041233216,387037.65240223194
1712041233257,362509.83018235536
1712041233297,338820.1200215586
1712041233337,317169.6336312373
1712041233377,297082.8252689198
1712041233417,278403.7034780048
1712041233458,260915.49938554782
1712041233497,245512.48640256794
1712041233537,231664.32504489087
1712041233577,215799.71301197307
1712041233617,203124.85315504833
1712041233659,188079.3569819145
1712041233698,173548.07131405408
1712041233738,159719.93183084857
1712041233778,148769.45497082174
1712041233819,140213.53927141824
1712041233859,131968.40274398355
1712041233898,123437.20555924531
1712041233939,115065.29221003572
1712041233979,107648.28467865009
1712041234019,101145.20313863875
1712041234060,94551.67178808758
1712041234099,89370.38655161858
1712041234139,84971.44845588063
1712041234179,80217.4876824501
1712041234222,75881.0741197695
1712041234261,71634.1794625856
1712041234300,65145.25236658077
1712041234340,59567.80120896129
1712041234380,54636.201289739925
1712041234420,50669.391536175506
1712041234461,48285.72722060559
1712041234500,47717.224443811225
1712041234541,46557.672933128895
1712041234581,44736.92803699477
1712041234621,42294.40245900536
1712041234662,40425.99715398811
1712041234701,38003.946759682614
1712041234741,36951.71753205918
1712041234782,36283.777469198685
1712041234823,35907.34439710947
1712041234863,35841.717093467014
1712041234902,34093.865948873805
1712041234942,30871.535682106856
1712041234982,27599.898535353597
1712041235022,25818.37497464707
1712041235063,23951.405869298847
1712041235103,22776.326114904135
1712041235143,22485.972710354486
1712041235183,21544.162487219553
1712041235223,20377.36554875225
1712041235264,20287.301693305373
1712041235303,19377.847465802915
1712041235344,19339.787740980042
1712041235384,18925.230390571523
1712041235424,18855.545980582945
1712041235465,18583.837619314203
1712041235504,18457.60056563909
1712041235544,17900.355399844702
1712041235584,14145.83754504146
1712041235625,12412.611131422687
1712041235666,12412.611131422687
1712041235705,12412.611131422687
1712041235745,12063.13750093244
1712041235785,11228.4488033792
1712041235827,10888.782107113162
1712041235867,10707.027676258003
1712041235906,10655.350325366948
1712041235946,10553.827244705055
1712041235986,10406.647797221784
1712041236026,10119.378096350934
1712041236067,9909.232245020568
1712041236107,9879.645892482484
1712041236147,9573.203781676944
1712041236187,7114.398334471742
1712041236227,4351.323591986671
1712041236268,4351.323591986671
1712041236307,4351.323591986671
1712041236348,4142.040351421107
1712041236388,3118.801663481863
1712041236428,2981.2012734652963
1712041236469,2581.39573855279
1712041236508,2474.8311652080156
1712041236548,2045.8721695519052
1712041236589,1820.5022939704359
1712041236629,1807.9135727169923
1712041236670,1807.9135727169923
1712041236709,1807.9135727169923
1712041236749,1627.5143247791566
1712041236789,1627.5143247791566
1712041236831,1516.4773693557363
1712041236870,1165.5072380248457
1712041236910,1165.5072380248457
1712041236950,1165.5072380248457
1712041236990,895.4486039481126
1712041237030,596.9569800253958
1712041237071,-79.9762981007807
1712041237110,-673.9150442145765
1712041237150,-749.848733358318
1712041237190,-945.7744044561405
1712041237230,-1427.1379319126718
1712041237271,-1518.7088711520191
1712041237311,-2572.626407917589
1712041237350,-3053.629824426258
1712041237391,-2950.7692229677923
1712041237431,-2423.270500236191
1712041237472,-2423.270500236191
1712041237511,-2423.270500236191
1712041237551,-2423.270500236191
1712041237591,-2950.7692229677923
1712041237631,-3053.629824426258
1712041237672,-3081.794315508101
1712041237711,-3215.340098044835
1712041237752,-3442.939075721195
1712041237792,-4000.6700010641944
1712041237833,-5035.740857183468
1712041237873,-5064.539076419547
1712041237912,-5064.539076419547
1712041237952,-5064.539076419547
1712041237992,-5035.740857183468
1712041238032,-4705.304664331488
1712041238073,-4705.304664331488
1712041238113,-4705.304664331488
1712041238153,-4705.304664331488
1712041238193,-4705.304664331488
1712041238233,-4705.304664331488
1712041238274,-4705.304664331488
1712041238313,-4705.304664331488
1712041238353,-4705.304664331488
1712041238394,-4705.304664331488
1712041238434,-3881.0413665357046
1712041238475,-3679.222438956145
1712041238514,-3495.293708567973
1712041238554,-2651.5635491111316
1712041238594,-2236.486651228275
1712041238634,-1800.4756323127076
1712041238675,-1704.470547734527
1712041238714,493.20688214246184
1712041238754,493.20688214246184
1712041238794,493.20688214246184
1712041238836,493.20688214246184
1712041238876,493.20688214246184
1712041238915,493.20688214246184
1712041238955,493.20688214246184
1712041238995,493.20688214246184
1712041239035,493.20688214246184
1712041239076,493.20688214246184
1712041239116,493.20688214246184
1712041239156,136.37098148884252
1712041239196,-3492.6488335852046
1712041239236,-5191.14532955247
1712041239277,-5191.14532955247
1712041239316,-5191.14532955247
1712041239356,-5191.14532955247
1712041239396,-5191.14532955247
1712041239436,-5191.14532955247
1712041239478,-5191.14532955247
1712041239517,-5191.14532955247
1712041239557,-5191.14532955247
1712041239597,-5518.006678566104
1712041239637,-5587.545485058101
1712041239678,-5587.545485058101
1712041239717,-5587.545485058101
1712041239757,-5518.006678566104
1712041239798,-5191.14532955247
1712041239841,-5015.883533818647
1712041239879,-4666.332521824632
1712041239918,-4666.287074187305
1712041239958,-4315.7483017081395
1712041239998,-3944.1591532069724
1712041240038,-3858.7598770202603
1712041240080,-2897.264048802899
1712041240119,-2798.713290594984
1712041240159,-2798.713290594984
1712041240199,-2798.713290594984
1712041240239,-2089.1614753247704
1712041240280,429.6275345906615
1712041240320,2494.260119252838
1712041240360,4345.4934484730475
1712041240400,4617.152072458994
1712041240440,4709.328237986658
1712041240481,6513.29544656584
1712041240520,7002.326079285238
1712041240560,7200.575845786836
1712041240600,7396.23854563944
1712041240641,8269.609053652734
1712041240682,8647.807725206949
1712041240721,9497.518974332139
1712041240761,9497.518974332139
1712041240801,9497.518974332139
1712041240841,9497.518974332139
1712041240882,9497.518974332139
1712041240922,9497.518974332139
1712041240962,9497.518974332139
1712041241002,9497.518974332139
1712041241042,9497.518974332139
1712041241083,9497.518974332139
1712041241122,12340.020887080813
1712041241163,11516.613989847712
1712041241203,11516.613989847712
1712041241243,11516.613989847712
1712041241284,11516.613989847712
1712041241323,11516.613989847712
1712041241363,11516.613989847712
1712041241404,11516.613989847712
1712041241444,9497.518974332139
1712041241485,7560.940253553446
1712041241524,7560.940253553446
1712041241564,7403.880894153845
1712041241604,7403.880894153845
1712041241645,7403.880894153845
1712041241686,7403.880894153845
1712041241725,7403.880894153845
1712041241765,7403.880894153845
1712041241805,7403.880894153845
1712041241845,7444.890285119647
1712041241886,7560.940253553446
1712041241925,7560.940253553446
1712041241966,7560.940253553446
1712041242006,7560.940253553446
1712041242046,7560.940253553446
1712041242087,7560.940253553446
1712041242126,7444.890285119647
1712041242166,7403.880894153845
1712041242207,7325.451511979336
1712041242247,7004.911366851069
1712041242288,6752.054797368124
1712041242327,6653.50413592183
1712041242367,6454.633281340823
1712041242407,6356.610824577045
1712041242448,5761.074933256023
1712041242489,5706.834972419543
1712041242528,5581.122436005855
1712041242568,5111.9951309952885
1712041242608,4243.487415336305
1712041242648,3262.3441218335647
1712041242689,2512.1287722708657
1712041242729,2092.2161887590773
1712041242768,1824.2702632367145
1712041242809,269.1086540101096
1712041242850,-755.6341713322327
1712041242890,-1222.2855020724237
1712041242932,-2026.80546049634
1712041242972,-3037.1097396393307
1712041243012,-3810.0749756055884
1712041243052,-3810.0749756055884
1712041243094,-3810.0749756055884
1712041243132,-3810.0749756055884
1712041243173,-3810.0749756055884
1712041243213,-3810.0749756055884
1712041243253,-3091.4241186780855
1712041243294,-3037.1097396393307
1712041243333,-2780.505948436912
1712041243373,-2026.80546049634
1712041243413,-1682.6342490413226
1712041243454,-1682.6342490413226
1712041243494,-1682.6342490413226
1712041243534,-1682.6342490413226
1712041243574,-1044.1152351507917
1712041243614,-353.35652270913124
1712041243654,-353.35652270913124
1712041243695,-353.35652270913124
1712041243734,-353.35652270913124
1712041243774,-353.35652270913124
1712041243814,-306.53024567477405
1712041243854,-241.62174113071524
1712041243896,-150.3585839907173
1712041243935,-29.189904182218015
1712041243975,318.1757069914602
1712041244015,675.288823484676
1712041244055,675.288823484676
1712041244096,675.288823484676
1712041244135,318.1757069914602
1712041244175,-29.189904182218015
1712041244215,-193.5550812536385
1712041244256,-241.62174113071524
1712041244297,-306.53024567477405
1712041244336,-306.53024567477405
1712041244376,-241.62174113071524
1712041244416,-193.5550812536385
1712041244456,-193.5550812536385
1712041244497,318.1757069914602
1712041244536,1278.3223158535548
1712041244576,1278.3223158535548
1712041244616,1301.0681761633605
1712041244657,1612.385168111883
1712041244698,1633.5107396270614
1712041244737,1843.1989181265235
1712041244777,1843.1989181265235
1712041244817,1843.1989181265235
1712041244857,1633.5107396270614
1712041244898,1301.0681761633605
1712041244938,1278.3223158535548
1712041244978,1278.3223158535548
1712041245018,1278.3223158535548
1712041245058,1278.3223158535548
1712041245099,1278.3223158535548
1712041245138,1301.0681761633605
1712041245178,1633.5107396270614
1712041245218,1974.2720324192196
1712041245259,1974.2720324192196
1712041245300,1974.2720324192196
1712041245339,2083.834860509727
1712041245379,2085.7682986380532
1712041245419,2392.5122653946746
1712041245459,2402.706585301552
1712041245501,2402.706585301552
1712041245540,2375.1626394174527
1712041245580,2195.1436025968287
1712041245620,2085.7682986380532
1712041245660,2195.1436025968287
1712041245701,2233.667443750426
1712041245740,2341.3605183456093
1712041245780,2375.1626394174527
1712041245820,2689.4108554548584
1712041245862,2964.875759593444
1712041245902,3295.3416120987386
1712041245941,3489.347204722464
1712041245981,3555.7149226986803
1712041246021,3839.713298167102
1712041246061,3964.297688580584
1712041246103,4546.893177059945
1712041246142,4147.511349976063
1712041246182,3555.7149226986803
1712041246222,3489.347204722464
1712041246262,2964.875759593444
1712041246303,2689.4108554548584
1712041246342,2689.4108554548584
1712041246382,2689.4108554548584
1712041246423,2689.4108554548584
1712041246463,2689.4108554548584
1712041246504,2689.4108554548584
1712041246543,2689.4108554548584
1712041246583,2657.0716363228858
1712041246623,1858.77778369328
1712041246663,1858.77778369328
1712041246705,1784.1979538369924
1712041246744,1331.7387988974806
1712041246784,1140.2956310841255
1712041246824,822.4551097340882
1712041246864,709.9366766402964
1712041246905,433.22632638947107
1712041246945,217.16678493563086
1712041246985,-234.21768071106635
1712041247025,-678.5701695457101
1712041247065,-875.3645551644731
1712041247106,-1019.5880897038151
1712041247145,-1019.5880897038151
1712041247186,-1019.5880897038151
1712041247226,-1019.5880897038151
1712041247266,-1019.4291783024091
1712041247307,-1019.4291783024091
1712041247346,-1019.4291783024091
1712041247386,-1087.4694963772781
1712041247426,-1974.7325831670314
1712041247467,-2816.736927757971
1712041247508,-3120.5908669652417
1712041247547,-3185.5844065363053
1712041247587,-3185.5844065363053
1712041247627,-3120.5908669652417
1712041247667,-2816.736927757971
1712041247709,-2816.736927757971
1712041247748,-2620.4554651598446
1712041247788,-2439.593721850775
1712041247828,-2385.4716710448265
1712041247868,-2363.5479787238874
1712041247909,-1974.7325831670314
1712041247949,-1947.750567535637
1712041247989,-1947.750567535637
1712041248029,-2363.5479787238874
1712041248069,-2385.4716710448265
1712041248110,-2439.593721850775
1712041248149,-2620.4554651598446
1712041248189,-2816.736927757971
1712041248230,-2973.654992595315
1712041248270,-2973.654992595315
1712041248311,-2973.654992595315
1712041248350,-2973.654992595315
1712041248390,-2973.654992595315
1712041248430,-3888.5918383751996
1712041248470,-3888.5918383751996
1712041248512,-3888.5918383751996
1712041248551,-3888.5918383751996
1712041248591,-3888.5918383751996
1712041248631,-3888.5918383751996
1712041248671,-3888.5918383751996
1712041248712,-3888.5918383751996
1712041248751,-3888.5918383751996
1712041248791,-3888.5918383751996
1712041248831,-3888.5918383751996
1712041248873,-2220.5290692094713
1712041248913,-1906.2815692450386
1712041248952,-1844.904518306721
1712041248992,-1745.1554627967998
1712041249032,-1727.527002704097
1712041249072,-1331.2911284542643
1712041249113,-861.7089440114796
1712041249152,-857.8362234625965
1712041249192,-703.0919191937428
1712041249233,-53.19119072658941
1712041249273,571.8217852043454
1712041249314,650.9685219919775
1712041249353,650.9685219919775
1712041249393,-53.19119072658941
1712041249433,-169.34693147661164
1712041249473,-703.0919191937428
1712041249514,-857.8362234625965
1712041249554,-861.7089440114796
1712041249594,-1331.2911284542643
1712041249634,-861.7089440114796
1712041249674,-797.9398995426018
1712041249715,-703.0919191937428
1712041249754,-523.2518905079924
1712041249794,-229.9700932293199
1712041249835,-169.34693147661164
1712041249875,-53.19119072658941
1712041249916,330.2945558540523
1712041249955,330.2945558540523
1712041249995,-169.34693147661164
1712041250035,-229.9700932293199
1712041250075,-523.2518905079924
1712041250116,-797.9398995426018
1712041250155,-931.5236950258259
1712041250196,-1415.4405782322865
1712041250236,-1850.537464793073
1712041250276,-1850.537464793073
1712041250317,-1850.537464793073
1712041250356,-942.9415571684949
1712041250396,-931.5236950258259
1712041250437,-797.9398995426018
1712041250477,-606.7520680483431
1712041250518,-606.7520680483431
1712041250557,-606.7520680483431
1712041250597,-931.5236950258259
1712041250637,-942.9415571684949
1712041250677,-1890.8371911710128
1712041250718,-1993.7329561654478
1712041250757,-2384.635881033493
1712041250798,-2433.3207977889106
1712041250838,-2488.1518298476003
1712041250878,-2497.9570674230345
1712041250919,-2488.1518298476003
1712041250958,-2384.635881033493
1712041250998,-2317.522169738775
1712041251038,-1993.7329561654478
1712041251078,-1890.8371911710128
1712041251120,-1528.0775214321911
1712041251159,-942.9415571684949
1712041251199,-640.275179869961
1712041251239,-640.275179869961
1712041251279,-640.275179869961
1712041251320,-640.275179869961
1712041251359,-640.275179869961
1712041251400,-640.275179869961
1712041251440,655.9147279127501
1712041251480,1875.0706456373446
1712041251521,3419.884112491738
1712041251560,5091.941213477869
1712041251600,5320.127204156481
1712041251641,7714.278509935364
1712041251681,13299.999474096112
1712041251722,17951.91466260841
1712041251761,17963.198803285835
1712041251801,19174.280419180635
1712041251841,20298.55148720718
1712041251883,20345.65728857601
1712041251922,23110.036109801847
1712041251962,24381.313580352813
1712041252002,27405.953764988575
1712041252042,30170.06513710087
1712041252082,33489.3320073979
1712041252123,37045.72225245484
1712041252162,39399.49135301262
1712041252202,41879.906798816286
1712041252243,42284.85815914138
1712041252283,42779.32002846664
1712041252324,42827.66836552229
1712041252363,42852.321963299066
1712041252403,42852.321963299066
1712041252443,42852.321963299066
1712041252484,42852.321963299066
1712041252524,42852.321963299066
1712041252564,42852.321963299066
1712041252604,42852.321963299066
1712041252644,42852.321963299066
1712041252684,42827.66836552229
1712041252725,42827.66836552229
1712041252764,42827.66836552229
1712041252805,42196.46327167563
1712041252845,39391.55213418417
1712041252885,30510.560244825203
1712041252926,23865.903080831748
1712041252965,21300.73473362811
1712041253005,21300.73473362811
1712041253046,21300.73473362811
1712041253086,21300.73473362811
1712041253127,21300.73473362811
1712041253166,21300.73473362811
1712041253206,21300.73473362811
1712041253246,21300.73473362811
1712041253287,21300.73473362811
1712041253328,21300.73473362811
1712041253367,21300.73473362811
1712041253407,22840.924202860333
1712041253447,22975.925485861488
1712041253487,22975.925485861488
1712041253529,22975.925485861488
1712041253568,22975.925485861488
1712041253608,22975.925485861488
1712041253648,22977.95713747898
1712041253688,22977.95713747898
1712041253729,22977.95713747898
1712041253769,22977.95713747898
1712041253809,22977.95713747898
1712041253849,22977.95713747898
1712041253889,22840.924202860333
1712041253930,22564.44909603009
1712041253969,22278.841401026584
1712041254009,22110.127445928287
1712041254049,21308.49422144005
1712041254089,15354.727514728904
1712041254131,15354.727514728904
1712041254170,15354.727514728904
1712041254210,15354.727514728904
1712041254250,15189.989037740044
1712041254290,14926.86791602103
1712041254331,14926.86791602103
1712041254370,14926.86791602103
1712041254411,14926.86791602103
1712041254451,14926.86791602103
1712041254491,14926.86791602103
1712041254532,14926.86791602103
1712041254571,15189.989037740044
1712041254611,15189.989037740044
1712041254651,15189.989037740044
1712041254691,15189.989037740044
1712041254732,15189.989037740044
1712041254772,15189.989037740044
1712041254812,15189.989037740044
1712041254852,15189.989037740044
1712041254894,15189.989037740044
1712041254933,14926.86791602103
1712041254972,14244.73208762426
1712041255012,13112.149043240584
1712041255052,12473.521441092715
1712041255093,12473.521441092715
1712041255134,12473.521441092715
1712041255173,12473.521441092715
1712041255213,12473.521441092715
1712041255253,12473.521441092715
1712041255293,12473.521441092715
1712041255334,12473.521441092715
1712041255373,12473.521441092715
1712041255414,12020.924049485475
1712041255454,12007.357634439133
1712041255494,11511.4556336659
1712041255535,10158.316772338934
1712041255574,8150.307543014642
1712041255614,8150.307543014642
1712041255654,8150.307543014642
1712041255694,8150.307543014642
1712041255736,8150.307543014642
1712041255775,10158.316772338934
1712041255815,11511.4556336659
1712041255855,12808.575912898406
1712041255895,12808.575912898406
1712041255936,11511.4556336659
1712041255975,8261.124342700467
1712041256015,8150.307543014642
1712041256056,5605.9474708279595
1712041256096,3752.824277199805
1712041256137,2765.4647101573646
1712041256176,629.4765363428742
1712041256216,-629.330456581898
1712041256256,-1711.407016653102
1712041256296,-3757.3064297526143
1712041256338,-5000.166903167032
1712041256377,-3757.3064297526143
1712041256417,-2386.5583042115904
1712041256457,-2386.5583042115904
1712041256497,-2386.5583042115904
1712041256538,-2386.5583042115904
1712041256577,-3757.3064297526143
1712041256618,-4169.576865404379
1712041256658,-5000.166903167032
1712041256698,-7202.766888155602
1712041256739,-7359.639384237584
1712041256778,-8170.048213382252
1712041256818,-8207.209747816436
1712041256858,-10322.095369442366
1712041256899,-12322.63465049304
1712041256940,-13230.623828668147
1712041256979,-13230.623828668147
1712041257019,-12322.63465049304
1712041257059,-10322.095369442366
1712041257099,-9555.920046093408
1712041257140,-7359.639384237584
1712041257180,-7359.639384237584
1712041257220,-7359.639384237584
1712041257260,-7359.639384237584
1712041257300,-7359.639384237584
1712041257341,-7359.639384237584
1712041257380,-7359.639384237584
1712041257421,-7359.639384237584
1712041257461,-5862.5615109000355
1712041257501,-5862.5615109000355
1712041257542,-5862.5615109000355
1712041257581,-5862.5615109000355
1712041257621,-5862.5615109000355
1712041257661,-5862.5615109000355
1712041257701,-4675.308561563492
1712041257742,-3482.954320325516
1712041257782,-2744.624589056708
1712041257822,-2718.759158635512
1712041257862,-2718.759158635512
1712041257904,-2718.759158635512
1712041257943,-2744.624589056708
1712041257983,-2983.592468606308
1712041258023,-3482.954320325516
1712041258063,-5862.5615109000355
1712041258103,-6309.211494640447
1712041258144,-6424.4984318148345
1712041258183,-7625.428796270862
1712041258223,-8568.217351102736
1712041258264,-9366.188941058703
1712041258304,-9943.709839489311
1712041258345,-12255.531372115482
1712041258384,-14626.43024570588
1712041258424,-14811.36321558524
1712041258464,-14811.36321558524
1712041258505,-17782.692436581478
1712041258545,-18602.809827275574
1712041258585,-18745.44176237099
1712041258625,-19225.869541146327
1712041258665,-25570.303337967023
1712041258705,-25570.303337967023
1712041258746,-25570.303337967023
1712041258786,-26205.792906287592
1712041258826,-26471.62165663112
1712041258866,-26846.868065490387
1712041258906,-27018.09369228268
1712041258947,-27694.7520999196
1712041258987,-30556.050459603313
1712041259027,-27694.7520999196
1712041259067,-27429.416996086948
1712041259107,-27018.09369228268
1712041259148,-26846.868065490387
1712041259187,-26205.792906287592
1712041259227,-26205.792906287592
1712041259268,-26205.792906287592
1712041259308,-26205.792906287592
1712041259349,-26205.792906287592
1712041259388,-23889.608600643463
1712041259428,-21296.163430964574
1712041259468,-20972.6362467953
1712041259508,-20972.6362467953
1712041259549,-21296.163430964574
1712041259588,-23889.608600643463
1712041259628,-23889.608600643463
1712041259669,-23889.608600643463
1712041259709,-23889.608600643463
1712041259749,-23889.608600643463
1712041259789,-23889.608600643463
1712041259829,-23889.608600643463
1712041259869,-23889.608600643463
1712041259909,-25340.536102029495
1712041259950,-31693.398798450362
1712041259989,-33946.665293290745
1712041260029,-38388.429548785556
1712041260070,-42392.13489283621
1712041260110,-43691.11573387077
1712041260151,-45238.26905745361
1712041260190,-45935.19586004317
1712041260230,-46321.5723414463
1712041260270,-47146.16231362615
1712041260310,-49310.82353031589
1712041260351,-49789.82365090959
1712041260391,-51566.10681435652
1712041260431,-52771.13294796273
1712041260471,-54084.51125668734
1712041260511,-55425.33694208483
1712041260552,-56458.91121490579
1712041260591,-56458.91121490579
1712041260631,-56458.91121490579
1712041260672,-56458.91121490579
1712041260712,-56458.91121490579
1712041260752,-56458.91121490579
1712041260792,-56458.91121490579
1712041260832,-57220.85088453023
1712041260872,-57257.75943921786
1712041260914,-57257.75943921786
1712041260953,-57257.75943921786
1712041260992,-57257.75943921786
1712041261033,-57220.85088453023
1712041261073,-57103.27328749932
1712041261113,-56195.59690942103
1712041261154,-55790.76675017085
1712041261193,-55091.19277178636
1712041261233,-54688.9636413292
1712041261273,-54424.5749399201
1712041261313,-54082.84044114873
1712041261354,-53544.08945683646
1712041261394,-53027.09923396562
1712041261434,-52965.52359416429
1712041261474,-52000.172307060566
1712041261514,-51774.874058173504
1712041261555,-50306.13825818687
1712041261594,-48453.922711403575
1712041261635,-48349.83960135421
1712041261675,-48195.25013573794
1712041261715,-47663.45766418963
1712041261756,-47026.56141198194
1712041261795,-46549.250374028226
1712041261835,-46529.80578052439
1712041261875,-45540.50950676575
1712041261915,-45020.647771130316
1712041261956,-44860.85435704817
1712041261996,-44680.110140814446
1712041262035,-44104.96874097013
1712041262076,-42739.51535196439
1712041262116,-42633.54818009818
1712041262157,-40724.10285975132
1712041262196,-38478.30011432385
1712041262236,-36683.93280655751
1712041262276,-36519.557481338736
1712041262316,-36079.70444755722
1712041262357,-35850.727547915885
1712041262397,-34674.67903064727
1712041262437,-34487.71596430009
1712041262477,-34446.73179992987
1712041262517,-33118.17564680567
1712041262558,-32495.378582261503
1712041262597,-31968.38143643434
1712041262637,-31776.463736280333
1712041262677,-31491.84393376368
1712041262718,-30512.24341025576
1712041262758,-28238.84897358995
1712041262798,-25647.418129451806
1712041262838,-23105.206622492522
1712041262878,-22464.82342705177
1712041262918,-21941.230074032675
1712041262959,-21739.827079856303
1712041262998,-20943.107229470974
1712041263039,-20774.165353826247
1712041263079,-20660.500132301357
1712041263119,-20262.67593240086
1712041263160,-19266.232868598076
1712041263199,-19086.931812907103
1712041263239,-18395.67488827766
1712041263279,-17713.924604193307
1712041263320,-17195.628217495047
1712041263360,-16291.333861503284
1712041263400,-16485.82101107342
1712041263440,-16254.088842282305
1712041263480,-16068.19430026738
1712041263520,-15562.676646137144
1712041263561,-15356.050188926514
1712041263601,-14855.360972186783
1712041263641,-14809.954186599003
1712041263681,-13835.858171913773
1712041263721,-13620.474798336858
1712041263762,-13500.964257553918
1712041263801,-12063.07004546118
1712041263841,-11846.655523445457
1712041263882,-11494.518535213545
1712041263923,-10404.780039932579
1712041263963,-9886.16857576347
1712041264002,-8927.67519525392
1712041264042,-8927.67519525392
1712041264082,-8927.67519525392
1712041264122,-7422.913742961828
1712041264163,-5796.848873387324
1712041264203,-5095.753037982155
1712041264243,-4929.407711307751
1712041264283,-4763.267093847739
1712041264323,-4568.778111540247
1712041264364,-4244.755244286498
1712041264404,-3634.8382272967137
1712041264444,-3570.895406003343
1712041264484,-3535.2964890156873
1712041264524,-3324.0324181399774
1712041264565,-2558.7400947650895
1712041264604,-2551.360722360434
1712041264645,-1713.4793455940671
1712041264685,-1487.0251495544799
1712041264725,-1487.0251495544799
1712041264766,-37.18839352019131
1712041264805,94.90336392191239
1712041264845,94.90336392191239
1712041264886,94.90336392191239
1712041264926,94.90336392191239
1712041264966,300.0542087738868
1712041265006,813.6334980274551
1712041265046,991.8243742939085
1712041265086,1196.0690380013548
1712041265126,1362.0749236289412
1712041265167,2095.6185421354603
1712041265206,2102.4315713164397
1712041265247,2102.4315713164397
1712041265287,2102.4315713164397
1712041265327,1949.8737882643472
1712041265368,1362.0749236289412
1712041265407,1196.0690380013548
1712041265447,1140.9400761860888
1712041265487,813.6334980274551
1712041265527,481.4191950308159
1712041265568,300.0542087738868
1712041265608,116.90935541619547
1712041265648,116.90935541619547
1712041265688,300.0542087738868
1712041265728,481.4191950308159
1712041265769,1017.3097488884814
1712041265808,1140.9400761860888
1712041265848,1017.3097488884814
1712041265888,481.4191950308159
1712041265928,116.90935541619547
1712041265969,76.89880094700493
1712041266009,-117.55132955010049
1712041266049,-454.92710449779406
1712041266089,-457.34801440592855
1712041266129,-935.3898831051774
1712041266170,-1042.8234334485605
1712041266209,-1136.6253915652633
1712041266249,-1498.12522520544
1712041266289,-1781.7457045675255
1712041266330,-1781.7457045675255
1712041266370,-1781.7457045675255
1712041266410,-1781.7457045675255
1712041266450,-1781.7457045675255
1712041266490,-2589.0233758823015
1712041266530,-3205.474153570831
1712041266571,-3222.391013558954
1712041266610,-3560.6583805789705
1712041266650,-3560.6583805789705
1712041266691,-3560.6583805789705
1712041266731,-3560.6583805789705
1712041266772,-3523.348477330059
1712041266811,-3403.1905793249607
1712041266851,-3377.569765678607
1712041266891,-3309.4832871495746
1712041266933,-3222.391013558954
1712041266972,-2589.0233758823015
1712041267014,-2546.950982100563
1712041267055,-1934.4659467684105
1712041267095,-1781.7457045675255
1712041267135,-1375.0722898372915
1712041267176,-1934.4659467684105
1712041267215,-2546.950982100563
1712041267255,-2893.2295527607203
1712041267295,-3309.4832871495746
1712041267335,-3309.4832871495746
1712041267376,-3309.4832871495746
1712041267416,-3309.4832871495746
1712041267456,-3309.4832871495746
1712041267496,-3309.4832871495746
1712041267536,-3309.4832871495746
1712041267577,-3022.0984628649894
1712041267616,-2893.2295527607203
1712041267657,-2893.2295527607203
1712041267697,-2893.2295527607203
1712041267737,-2893.2295527607203
1712041267778,-2893.2295527607203
1712041267817,-3022.0984628649894
1712041267857,-4037.92743028095
1712041267897,-4275.87881326396
1712041267937,-4298.196922057541
1712041267978,-5196.401650708634
1712041268018,-5215.532611900009
1712041268058,-5362.581611136906
1712041268098,-5362.581611136906
1712041268138,-5196.401650708634
1712041268179,-4651.250019561034
1712041268218,-4275.87881326396
1712041268259,-4037.92743028095
1712041268299,-3704.5809461756144
1712041268339,-3022.0984628649894
1712041268380,-2122.955334072467
1712041268419,-2061.219580751378
1712041268459,-2061.219580751378
1712041268499,-2061.219580751378
1712041268539,-2061.219580751378
1712041268580,-2061.219580751378
1712041268620,-1412.5919240426738
1712041268660,-1028.1915848918725
1712041268700,-959.5255698489491
1712041268740,-857.5173430480063
1712041268781,-716.1238227300346
1712041268820,-498.85778024070896
1712041268860,-400.34690488292836
1712041268901,-265.52752612973563
1712041268941,342.53474027779885
1712041268982,682.8937479131855
1712041269021,1142.115449372679
1712041269061,1655.2066669901833
1712041269101,1655.2066669901833
1712041269141,1142.115449372679
1712041269182,342.53474027779885
1712041269222,-71.07251044875011
1712041269262,-71.07251044875011
1712041269302,-19.07365214987658
1712041269342,-8.769518775632605
1712041269383,77.18332963716239
1712041269422,128.2384780650027
1712041269463,342.53474027779885
1712041269503,520.0170730873942
1712041269543,1142.115449372679
1712041269584,1297.649264066713
1712041269623,1982.4273112204392
1712041269663,1982.4273112204392
1712041269704,1297.649264066713
1712041269744,730.5053947111592
1712041269784,520.0170730873942
1712041269824,128.2384780650027
1712041269864,77.18332963716239
1712041269904,-8.769518775632605
1712041269946,-8.769518775632605
1712041269985,-8.769518775632605
1712041270025,-8.769518775632605
1712041270065,73.43267235043459
1712041270105,73.43267235043459
1712041270145,128.2384780650027
1712041270186,520.0170730873942
1712041270225,730.5053947111592
1712041270266,899.5714483477641
1712041270306,899.5714483477641
1712041270346,730.5053947111592
1712041270387,453.02604489121586
1712041270426,73.43267235043459
1712041270466,-473.6000501536764
1712041270506,-881.4437779840082
1712041270547,-908.2940313979052
1712041270588,-1162.228379277978
1712041270627,-1162.228379277978
1712041270667,-1162.228379277978
1712041270707,-996.5186032531783
1712041270748,-908.2940313979052
1712041270789,-473.6000501536764
1712041270828,73.43267235043459
1712041270868,302.01744704367593
1712041270908,453.02604489121586
1712041270948,453.02604489121586
1712041270989,453.02604489121586
1712041271028,302.01744704367593
1712041271068,-291.870366205927
1712041271108,-996.5186032531783
1712041271149,-1193.1202040314674
1712041271189,-1526.6715436927043
1712041271229,-1911.490672481712
1712041271269,-1911.490672481712
1712041271309,-1663.2797873001546
1712041271349,-1526.6715436927043
1712041271390,-1380.420529606985
1712041271429,-996.5186032531783
1712041271469,-291.870366205927
1712041271510,176.71381101896986
1712041271550,302.01744704367593
1712041271590,1389.8583264853805
1712041271630,1397.8229169235565
1712041271670,498.4712871289812
1712041271710,176.71381101896986
1712041271750,-13.629771809792146
1712041271791,-291.870366205927
1712041271830,-291.870366205927
1712041271871,-136.01996975112706
1712041271910,-13.629771809792146
1712041271951,176.71381101896986
1712041271992,391.548579917755
1712041272031,498.4712871289812
1712041272071,871.2925400859676
1712041272111,1747.0815001544543
1712041272151,2022.4151791222394
1712041272192,2392.5257290846203
1712041272232,3137.2392596392892
1712041272272,3287.6619011268485
1712041272312,4460.312866220949
1712041272352,4460.312866220949
1712041272392,4460.312866220949
1712041272432,4460.312866220949
1712041272472,5840.615412028506
1712041272512,6285.0237862661015
1712041272552,6344.620642376598
1712041272593,6612.294299020898
1712041272632,7034.755265276646
1712041272673,7228.651586576365
1712041272713,7234.608235104941
1712041272753,7462.720889362041
1712041272794,7465.45407992648
1712041272833,8158.295452380087
1712041272873,8319.505813881988
1712041272913,8928.599230373744
1712041272955,9064.437448276207
1712041272994,9887.816251437645
1712041273034,9382.57939685369
1712041273074,9064.437448276207
1712041273114,9090.118135418277
1712041273154,9090.118135418277
1712041273195,9090.118135418277
1712041273234,9090.118135418277
1712041273274,9090.118135418277
1712041273315,9278.976347846445
1712041273355,9382.57939685369
1712041273395,9966.71986132441
1712041273435,10021.220497544622
1712041273475,10140.681644801982
1712041273515,11296.479047365952
1712041273555,10021.220497544622
1712041273596,9967.721691744402
1712041273635,9966.71986132441
1712041273675,9382.57939685369
1712041273716,9278.976347846445
1712041273756,9090.118135418277
1712041273797,9000.00466726115
1712041273836,8553.675620744238
1712041273876,8504.509311104426
1712041273916,8252.04663272202
1712041273956,8252.04663272202
1712041273997,8252.04663272202
1712041274037,8553.675620744238
1712041274076,8648.798935686238
1712041274117,9278.976347846445
1712041274157,8844.035660455935
1712041274198,8648.798935686238
1712041274237,8252.04663272202
1712041274277,8024.427125887945
1712041274317,7054.191281548468
1712041274357,6888.199661925901
1712041274398,6848.653769491473
1712041274438,6835.219411081867
1712041274478,6835.219411081867
1712041274518,6835.219411081867
1712041274558,6835.219411081867
1712041274599,6165.038813174702
1712041274638,4042.816048683366
1712041274678,2845.728455987759
1712041274718,2764.0132631398737
1712041274759,2742.9490945513826
1712041274799,2342.9121274650097
1712041274839,1854.5963395400904
1712041274879,1682.5787548446096
1712041274919,1453.3198323678225
1712041274959,1247.7093301813584
1712041275000,1217.3044478951488
1712041275040,1149.4093283172697
1712041275080,1128.0854648812674
1712041275120,874.1532945537474
1712041275160,871.7501326543279
1712041275201,-2419.520153327845
1712041275240,-5173.652082808083
1712041275280,-5810.006500263233
1712041275320,-5810.006500263233
1712041275361,-5810.006500263233
1712041275402,-6192.642570191529
1712041275441,-6695.976702350192
1712041275481,-7105.454149380792
1712041275521,-7160.344041541684
1712041275561,-7985.303178988397
1712041275602,-8181.197210141458
1712041275642,-8783.094180678017
1712041275682,-8853.021539027803
1712041275722,-8876.205438865814
1712041275762,-9540.80717533594
1712041275803,-9632.807050804608
1712041275842,-9690.77662437642
1712041275882,-9632.807050804608
1712041275923,-8876.205438865814
1712041275964,-8853.021539027803
1712041276004,-8853.021539027803
1712041276043,-8853.021539027803
1712041276083,-8853.021539027803
1712041276123,-8853.021539027803
1712041276164,-8853.021539027803
1712041276204,-8921.8117802958
1712041276244,-8921.8117802958
1712041276284,-8921.8117802958
1712041276324,-8706.002827682765
1712041276364,-8248.327270100592
1712041276405,-7649.9408173549455
1712041276445,-7487.297601674218
1712041276485,-7376.001521851402
1712041276525,-6825.336390020093
1712041276565,-6761.629661207786
1712041276606,-6480.715443363413
1712041276645,-6478.339760064147
1712041276685,-6236.262368329335
1712041276725,-6222.061866280623
1712041276766,-5159.650612954516
1712041276806,-5159.650612954516
1712041276846,-5159.650612954516
1712041276886,-5159.650612954516
1712041276926,-3100.9528689708095
1712041276966,-876.1102196155116
1712041277007,-622.1860140580684
1712041277047,-622.1860140580684
1712041277087,-622.1860140580684
1712041277127,-433.4128122034017
1712041277167,-211.9514319836162
1712041277207,142.07812333106995
1712041277247,197.77401451021433
1712041277287,389.36518657021224
1712041277327,623.9023098254111
1712041277367,744.2545742155053
1712041277408,1027.486678706482
1712041277447,744.2545742155053
1712041277487,623.9023098254111
1712041277528,417.52073207637295
1712041277568,417.52073207637295
1712041277608,417.52073207637295
1712041277648,417.52073207637295
1712041277688,744.2545742155053
1712041277728,927.9363000160083
1712041277768,1027.486678706482
1712041277809,1095.3155836418737
1712041277848,1571.0096624770667
1712041277889,1706.693876142148
1712041277929,1993.2155700665899
1712041277969,2491.922305121552
1712041278010,2942.5377817081753
1712041278049,2942.5377817081753
1712041278089,2942.5377817081753
1712041278129,1993.2155700665899
1712041278169,1852.6695075775497
1712041278210,1706.693876142148
1712041278250,1706.693876142148
1712041278290,1706.693876142148
1712041278330,1852.6695075775497
1712041278370,2434.353669430362
1712041278411,2942.5377817081753
1712041278450,3080.215368962381
1712041278490,4200.52402607142
1712041278530,4525.740900974022
1712041278570,4816.3175764163025
1712041278611,4816.3175764163025
1712041278651,4200.52402607142
1712041278691,3735.710014465265
1712041278731,3080.215368962381
1712041278771,2596.300986644579
1712041278812,2596.300986644579
1712041278851,2596.300986644579
1712041278891,2832.4832058292814
1712041278931,3171.4833978703246
1712041278973,3350.7456615911797
1712041279012,3557.8325939220376
1712041279104,3735.710014465265
1712041279144,4235.681541912025
1712041279184,4298.8600191550795
1712041279224,4816.3175764163025
1712041279265,5372.248944432242
1712041279304,5372.248944432242
1712041279344,4298.901625999715
1712041279385,4298.8600191550795
1712041279425,4235.681541912025
1712041279466,3735.710014465265
1712041279505,3557.8325939220376
1712041279545,3350.7456615911797
1712041279585,3499.7921571284533
1712041279625,3557.8325939220376
1712041279666,4044.1504991264082
1712041279705,4235.681541912025
1712041279746,4298.8600191550795
1712041279786,4298.901625999715
1712041279826,4660.387156404089
1712041279867,5196.0370041541755
1712041279906,5372.248944432242
1712041279946,5485.78290190408
1712041279986,5196.0370041541755
1712041280026,4660.387156404089
1712041280067,4298.901625999715
1712041280107,4295.487092391588
1712041280147,4044.1504991264082
1712041280187,3784.4335274798796
1712041280227,3784.4335274798796
1712041280268,4044.1504991264082
1712041280307,4182.136171877384
1712041280348,4295.487092391588
1712041280388,4660.387156404089
1712041280428,5118.467269748915
1712041280469,5196.0370041541755
1712041280508,5485.78290190408
1712041280548,5660.444300385192
1712041280588,6897.083589243935
1712041280628,5485.78290190408
1712041280669,5428.337639677338
1712041280709,5118.467269748915
1712041280749,5118.467269748915
1712041280789,5118.467269748915
1712041280829,5355.156810345361
1712041280870,5355.156810345361
1712041280909,5428.337639677338
1712041280949,5452.258323473856
1712041280989,5533.908186064102
1712041281029,5781.799385690596
1712041281070,5815.058392952895
1712041281110,6418.124456016347
1712041281150,6506.830405320041
1712041281190,6418.124456016347
1712041281230,5815.058392952895
1712041281271,5781.799385690596
1712041281310,5533.908186064102
1712041281350,5452.258323473856
1712041281390,5428.337639677338
1712041281431,5355.156810345361
1712041281471,5343.474056989653
1712041281511,5343.474056989653
1712041281551,5343.474056989653
1712041281591,4126.371236425359
1712041281631,3748.4158554496244
1712041281672,3748.4158554496244
1712041281711,3748.4158554496244
1712041281751,3748.4158554496244
1712041281792,3555.001544790808
1712041281832,3225.238676981535
1712041281873,3110.979646112304
1712041281912,3024.2261563856155
1712041281952,2887.9318407757673
1712041281992,2878.383680027211
1712041282034,2704.397920147516
1712041282073,2684.799481571652
1712041282113,2684.799481571652
1712041282153,2684.799481571652
1712041282193,2684.799481571652
1712041282233,2684.799481571652
1712041282274,2878.383680027211
1712041282313,2878.383680027211
1712041282354,2878.383680027211
1712041282394,3024.2261563856155
1712041282434,3161.841925552115
1712041282475,2181.7646291253623
1712041282514,2050.2648236288223
1712041282554,1907.5154566064011
1712041282594,1538.5241312659346
1712041282635,1465.1797340405174
1712041282675,1425.6742380161304
1712041282715,1329.1303128344007
1712041282755,1315.3240636624396
1712041282795,1315.3240636624396
1712041282835,1315.3240636624396
1712041282876,1315.3240636624396
1712041282915,1425.6742380161304
1712041282956,1538.5241312659346
1712041282996,2181.7646291253623
1712041283036,2209.8843270349316
1712041283077,2209.8843270349316
1712041283116,1315.3240636624396
1712041283156,1088.6187630388886
1712041283197,835.0958230425604
1712041283237,460.4821011116728
1712041283278,460.4821011116728
1712041283317,460.4821011116728
1712041283357,835.0958230425604
1712041283397,1088.6187630388886
1712041283437,1097.8904529311694
1712041283478,1278.1197643741034
1712041283517,1358.5534975100309
1712041283557,1578.146793331951
1712041283598,1847.6947254254483
1712041283638,1851.7144309412688
1712041283678,2209.8843270349316
1712041283718,2265.1317785913125
1712041283758,2265.1317785913125
1712041283798,2265.1317785913125
1712041283838,2265.1317785913125
1712041283879,2265.1317785913125
1712041283918,2534.467890950851
1712041283958,3291.872798077762
1712041283998,4375.818831364624
1712041284038,4624.552335374523
1712041284079,4715.873505215161
1712041284119,5235.062312671915
1712041284159,8051.282417546026
1712041284199,8381.315714744851
1712041284239,8509.49417545204
1712041284280,8564.74048404931
1712041284319,9109.368223399855
1712041284359,9501.505669169826
1712041284399,9915.992332929512
1712041284440,9967.262204560917
1712041284480,9967.262204560917
1712041284520,9967.262204560917
1712041284560,9967.262204560917
1712041284600,9967.262204560917
1712041284640,9915.992332929512
1712041284681,9501.505669169826
1712041284720,9109.368223399855
1712041284760,8564.74048404931
1712041284801,8509.49417545204
1712041284841,8381.315714744851
1712041284881,8564.74048404931
1712041284921,8952.982055994915
1712041284961,8401.484535643365
1712041285001,7772.781457732432
1712041285043,7685.749315600842
1712041285082,6517.269760505995
1712041285121,6342.672503360547
1712041285162,6048.478780008387
1712041285201,5917.993043957278
1712041285242,5627.298417237587
1712041285283,5586.355650742073
1712041285322,5090.505109620513
1712041285362,5090.505109620513
1712041285402,5090.505109620513
1712041285442,5586.355650742073
1712041285483,5917.993043957278
1712041285523,6048.478780008387
1712041285563,6057.817173312884
1712041285603,6057.817173312884
1712041285644,6045.730715040583
1712041285684,5917.993043957278
1712041285724,4627.758549800143
1712041285765,4420.469605421647
1712041285805,4036.418246839894
1712041285847,3942.5073875423986
1712041285888,3512.916811771225
1712041285927,3512.916811771225
1712041285968,3512.916811771225
1712041286008,3512.916811771225
1712041286048,3512.916811771225
1712041286089,3026.667185936123
1712041286129,2773.5725949874613
1712041286169,2689.1725747422315
1712041286209,2354.864467256004
1712041286250,2310.4502241932787
1712041286291,1871.7290016687475
1712041286330,1665.566347320564
1712041286370,1549.223791513592
1712041286410,1437.1825971379876
1712041286451,1402.745834039757
1712041286492,1320.9709375253879
1712041286532,1054.0564973172732
1712041286572,-758.8686378623825
1712041286613,-2780.279789897613
1712041286653,-2780.279789897613
1712041286694,-2780.279789897613
1712041286733,-2780.279789897613
1712041286773,-2780.279789897613
1712041286814,-3672.5414671418257
1712041286854,-4023.0548189780675
1712041286895,-4299.864833696047
1712041286934,-4931.116682861466
1712041286975,-4931.116682861466
1712041287015,-4931.116682861466
1712041287055,-4931.116682861466
1712041287096,-4931.116682861466
1712041287135,-4436.041201103944
1712041287176,-4210.977764603216
1712041287216,-4043.252184599638
1712041287259,-4023.0548189780675
1712041287297,-3672.5414671418257
1712041287337,-3093.9824965919834
1712041287377,-2119.4585527731106
1712041287417,-2068.0273417409044
1712041287458,-2068.0273417409044
1712041287498,-2068.0273417409044
1712041287538,-2557.413251116872
1712041287578,-2861.2946087876335
1712041287618,-2964.0888550719246
1712041287658,-2964.0888550719246
1712041287699,-2861.2946087876335
1712041287740,-2557.413251116872
1712041287780,-2355.6164305568673
1712041287821,-1904.3118867583107
1712041287861,-1509.364029508084
1712041287902,-1235.3048592866398
1712041287941,-1118.5375602927525
1712041287981,-44.2150514414534
1712041288021,51.9889266283717
1712041288063,114.73149745445698
1712041288102,114.73149745445698
1712041288142,114.73149745445698
1712041288182,114.73149745445698
1712041288222,1431.4015712160617
1712041288263,2843.497998076491
1712041288304,3128.865621683188
1712041288343,3468.2557640636805
1712041288383,3619.310853499919
1712041288424,3934.4611728054006
1712041288464,4021.632475863211
1712041288505,4036.2648541904055
1712041288544,4641.348716452718
1712041288584,4657.637750661233
1712041288625,4720.175382178277
1712041288665,5095.423379346961
1712041288706,6172.925918466179
1712041288745,6289.526275555603
1712041288786,6539.950790356845
1712041288826,6539.950790356845
1712041288866,6956.749533883296
1712041288907,7061.630810602801
1712041288947,7061.630810602801
1712041288987,7061.630810602801
1712041289027,7061.630810602801
1712041289067,7061.630810602801
1712041289109,7084.735882660607
1712041289148,7120.882618512958
1712041289188,7765.138031057548
1712041289228,7794.265264416812
1712041289269,8267.45868825633
1712041289310,8355.128795926226
1712041289349,7794.265264416812
1712041289390,7765.138031057548
1712041289430,7120.882618512958
1712041289473,7084.735882660607
1712041289511,7061.630810602801
1712041289550,6993.80584026943
1712041289591,6956.749533883296
1712041289631,6898.2364287003875
1712041289671,6579.422247512266
1712041289712,6544.9662044302095
1712041289752,6291.4099957856815
1712041289792,5009.3452842263505
1712041289832,3856.130256035365
1712041289873,801.2124065388925
1712041289914,-3471.821982118301
1712041289953,-7373.050948254066
1712041289993,-11602.169161226135
1712041290033,-16164.952239988372
1712041290074,-19878.17300154688
1712041290115,-24130.633755103918
1712041290154,-27067.44909369666
1712041290194,-29638.509978953283
1712041290235,-33814.3153147297
1712041290275,-33814.3153147297
1712041290316,-33814.3153147297
1712041290356,-33814.3153147297
1712041290396,-33814.3153147297
1712041290436,-33814.3153147297
1712041290477,-33814.3153147297
1712041290517,-33814.3153147297
1712041290557,-33814.3153147297
1712041290597,-33814.3153147297
1712041290637,-33814.3153147297
1712041290677,-33964.64453666611
1712041290718,-33964.64453666611
1712041290758,-33964.64453666611
1712041290798,-33964.64453666611
1712041290838,-33964.64453666611
1712041290878,-33964.64453666611
1712041290919,-33031.54078352754
1712041290959,-32987.067735888064
1712041290999,-32859.60617626156
1712041291039,-32674.22114362754
1712041291081,-32627.620491561713
1712041291120,-32584.623151774053
1712041291159,-32148.959967464674
1712041291198,-31790.608636092395
1712041291237,-31275.774306582753
1712041291276,-31275.774306582753
1712041291315,-31275.774306582753
1712041291354,-31275.774306582753
1712041291393,-31275.774306582753
1712041291432,-29373.597013135906
1712041291471,-26292.949195818976
1712041291510,-22253.251130062854
1712041291549,-16960.581289551686
1712041291588,-10430.7695688745
1712041291627,-5189.834996463731
1712041291666,-1355.3585196568165
1712041291705,1905.2783073601313
1712041291744,4522.521946069319
1712041291783,8235.778967274819
1712041291822,11948.70929521136
1712041291862,14580.684205886675
1712041291902,17198.231324177934
1712041291942,19522.30271681724
1712041291982,21933.641023973003
1712041292022,24752.8722324525
1712041292062,28670.955257884692
1712041292102,31320.583980868803
1712041292142,33786.93777349149
1712041292182,37530.08097337047
1712041292222,37727.43079905026
1712041292262,37727.43079905026
1712041292302,37727.43079905026
1712041292342,37727.43079905026
1712041292382,37727.43079905026
1712041292422,37727.43079905026
1712041292462,37727.43079905026
1712041292502,37727.43079905026
1712041292542,37727.43079905026
1712041292582,37727.43079905026
1712041292622,37727.43079905026
1712041292662,37517.3703540056
1712041292702,37282.71135426196
1712041292742,36541.77721017855
1712041292782,36204.07670543715
1712041292822,33689.987624581205
1712041292862,28439.227891334565
1712041292902,26410.59398986562
1712041292942,22696.410098784138
1712041292982,17420.207117096987
1712041293022,13600.907239662949
1712041293062,12270.083182969363
1712041293102,12270.083182969363
1712041293142,12270.083182969363
1712041293182,12081.329243648797
1712041293222,11362.241165922489
1712041293262,11003.93525598431
1712041293302,10807.133640998509
1712041293342,10676.294105942594
1712041293382,10200.314546704292
1712041293422,10034.621151052881
1712041293462,9486.932010375895
1712041293502,9486.932010375895
1712041293542,9486.932010375895
1712041293582,9486.932010375895
1712041293622,9486.932010375895
1712041293662,10332.183527581394
1712041293702,10807.133640998509
1712041293742,11003.93525598431
1712041293782,11879.99799850909
1712041293822,12081.329243648797
1712041293862,12081.329243648797
1712041293902,11913.403108260129
1712041293942,11879.99799850909
1712041293982,11003.93525598431
1712041294022,10332.183527581394
1712041294062,10172.129172688117
1712041294102,10172.129172688117
1712041294142,10172.129172688117
1712041294182,10172.129172688117
1712041294222,10172.129172688117
1712041294262,10172.129172688117
1712041294302,10172.129172688117
1712041294342,8101.061874161009
1712041294382,6948.73376513226
1712041294422,5789.748005153146
1712041294462,4274.520045922138
1712041294502,3767.124744060915
1712041294542,3193.082899597939
1712041294582,3028.211142269429
1712041294622,3024.07504431461
1712041294662,2660.007985641714
1712041294702,2018.0362352232914
1712041294742,1210.516663000686
1712041294782,-1860.7475058806594
1712041294822,-5238.733975722222
1712041294862,-5390.733025449095
1712041294902,-5966.583383090794
1712041294942,-5966.583383090794
1712041294982,-5966.583383090794
1712041295022,-5966.583383090794
1712041295062,-6605.712044481421
1712041295102,-7100.2934888144955
1712041295142,-7322.971825771034
1712041295182,-7555.886233389378
1712041295222,-7555.886233389378
1712041295262,-7555.886233389378
1712041295302,-7322.971825771034
1712041295342,-7100.2934888144955
1712041295382,-7100.2934888144955
1712041295422,-6789.278185241856
1712041295462,-6605.712044481421
1712041295502,-6450.770636927802
1712041295542,-6303.287195211742
1712041295582,-5966.583383090794
1712041295622,-5886.976231785491
1712041295662,-5886.976231785491
1712041295702,-5886.976231785491
1712041295742,-5886.976231785491
1712041295782,-5886.976231785491
1712041295822,-5886.976231785491
1712041295862,-5858.232523877639
1712041295902,-5214.033259199699
1712041295942,-4657.406607834622
1712041295982,-3949.516307343263
1712041296022,-3854.7490337020718
1712041296062,-3714.325952908024
1712041296102,-2752.629353892524
1712041296142,-2490.6748994106892
1712041296182,-967.3093463648111
1712041296222,-537.8593161031604
1712041296262,-222.0406425963156
1712041296302,-537.8593161031604
1712041296342,-967.3093463648111
1712041296382,-1965.5543891803827
1712041296422,-2752.629353892524
1712041296462,-2752.629353892524
1712041296502,-2752.629353892524
1712041296542,-2752.629353892524
1712041296582,-2752.629353892524
1712041296622,-2752.629353892524
1712041296662,-2752.629353892524
1712041296702,-2752.629353892524
1712041296742,-3201.7079590724315
1712041296782,-3322.9474006732926
1712041296822,-4789.78805089416
1712041296862,-6427.257303453283
1712041296902,-6480.250523358351
1712041296942,-6594.587384502869
1712041296982,-6751.533935858868
1712041297022,-6751.533935858868
1712041297062,-6751.533935858868
1712041297102,-6751.533935858868
1712041297142,-6751.533935858868
1712041297182,-6751.533935858868
1712041297222,-6751.533935858868
1712041297262,-6751.533935858868
1712041297302,-6751.533935858868
1712041297342,-6480.250523358351
1712041297382,-6427.257303453283
1712041297422,-5705.025127723813
1712041297462,-4522.70279362821
1712041297502,-3535.9614628534764
1712041297542,-2367.558389338432
1712041297582,-1214.9171346626244
1712041297622,497.99253529147245
1712041297662,2772.1083101434633
1712041297702,2800.5489843259566
1712041297742,3105.0427948855795
1712041297782,3293.8902263175696
1712041297822,3295.0246416430455
1712041297862,3996.978938261047
1712041297902,4207.837697868003
1712041297942,5003.875759263989
1712041297982,5166.354976862436
1712041298022,6182.1165324207395
1712041298062,6612.791755636223
1712041298102,6628.97635877342
1712041298142,6628.97635877342
1712041298182,6628.97635877342
1712041298222,6628.97635877342
1712041298262,6628.97635877342
1712041298302,6628.97635877342
1712041298342,6628.97635877342
1712041298382,6628.97635877342
1712041298422,6628.97635877342
1712041298462,6628.97635877342
1712041298502,6628.97635877342
1712041298542,4195.956743981224
1712041298582,4195.956743981224
1712041298622,4195.956743981224
1712041298662,4024.5044517922215
1712041298702,3371.3482711948454
1712041298742,3261.4709160774946
1712041298782,3079.392008382827
1712041298822,2953.42514235666
1712041298862,2922.2757545700297
1712041298902,2907.63052505441
1712041298942,2655.399087065365
1712041298982,2298.2974719910417
1712041299022,2298.2974719910417
1712041299062,2298.2974719910417
1712041299102,2298.2974719910417
1712041299142,2298.2974719910417
1712041299182,2843.450075202156
1712041299222,2907.63052505441
1712041299262,2953.42514235666
1712041299302,3021.0079418732785
1712041299342,3021.0079418732785
1712041299382,2843.450075202156
1712041299422,2843.450075202156
1712041299462,2843.450075202156
1712041299502,2843.450075202156
1712041299542,3021.0079418732785
1712041299582,3350.633790387772
1712041299622,3518.604822571622
1712041299662,4554.022541591432
1712041299702,4697.198542274069
1712041299742,4953.994648186257
1712041299782,5701.370062865317
1712041299822,5865.06845696643
1712041299862,6620.565947521012
1712041299902,7217.38184459554
1712041299942,7225.8297345940955
1712041299982,8214.617746148258
1712041300022,9275.55551761412
1712041300062,10759.67462328286
1712041300102,12133.122202046681
1712041300142,13082.896565326024
1712041300182,14046.574866133742
1712041300222,14386.785966839176
1712041300262,14393.354890068993
1712041300302,14475.459649210563
1712041300342,14765.823571228655
1712041300382,14890.453672140138
1712041300422,14982.441456016153
1712041300462,15108.54909025738
1712041300502,15272.17458682484
1712041300542,15328.420529431198
1712041300582,15388.304851440247
1712041300622,15388.304851440247
1712041300662,15328.420529431198
1712041300702,15272.17458682484
1712041300742,15328.420529431198
1712041300782,15328.420529431198
1712041300822,15328.420529431198
1712041300862,15328.420529431198
1712041300902,15328.420529431198
1712041300942,15328.420529431198
1712041300982,15328.420529431198
1712041301022,15328.420529431198
1712041301062,15507.462901862804
1712041301102,15507.462901862804
1712041301142,15507.462901862804
1712041301182,15507.462901862804
1712041301222,15262.488698159577
1712041301262,15146.906916045118
1712041301302,15124.863721102942
1712041301342,15048.207242991775
1712041301382,14821.242202123161
1712041301422,14659.213353815023
1712041301462,14132.438907464966
1712041301502,14109.646152545232
1712041301542,14000.274181155022
1712041301582,13829.219510195777
1712041301622,13684.657070633024
1712041301662,13548.089731061598
1712041301702,13626.679729110328
1712041301742,13684.657070633024
1712041301782,13684.657070633024
1712041301822,13626.679729110328
1712041301862,13548.089731061598
1712041301902,13517.944697848754
1712041301942,13234.589623242151
1712041301982,12845.15449899016
1712041302022,12524.609028483042
1712041302062,12331.756329400465
1712041302102,12269.220903885085
1712041302142,12123.008895633277
1712041302182,12105.087730444968
1712041302222,11668.89291737671
1712041302262,10057.544283924624
1712041302302,10057.544283924624
1712041302342,10057.544283924624
1712041302382,10057.544283924624
1712041302422,10057.544283924624
1712041302462,10057.544283924624
1712041302502,9938.634666449623
1712041302542,8698.940905541182
1712041302582,8653.572544668801
1712041302622,8543.205688135698
1712041302662,8176.401148755802
1712041302702,8088.961743823718
1712041302742,7636.1309875804
1712041302782,7636.1309875804
1712041302822,7636.1309875804
1712041302862,7636.1309875804
1712041302902,7636.1309875804
1712041302942,7396.501045645913
1712041302982,7396.501045645913
1712041303022,7396.501045645913
1712041303062,7396.501045645913
1712041303102,7233.773177147843
1712041303194,7221.546562875155
1712041303234,6782.93637669133
1712041303274,6443.887216232019
1712041303314,6417.9713999389205
1712041303355,6256.297995367087
1712041303394,6220.434103240259
1712041303435,6119.203519309405
1712041303475,6090.4560674270615
1712041303515,6058.475569787435
1712041303556,6013.819142884342
1712041303595,5360.112196542323
1712041303635,3982.898430763511
1712041303675,3245.701634758385
1712041303715,2811.885598390596
1712041303756,1554.9977562515996
1712041303796,559.5763629823923
1712041303836,-605.8392365353648
1712041303876,-1059.2616265935358
1712041303916,-2210.986616877606
1712041303957,-2953.9745931639336
1712041303996,-3570.0351049518213
1712041304036,-5637.349196381401
1712041304076,-5921.404303422198
1712041304116,-7646.482056407025
1712041304157,-8057.537143833004
1712041304197,-8421.14237880893
1712041304237,-8421.14237880893
1712041304277,-8421.14237880893
1712041304317,-8421.14237880893
1712041304358,-8421.14237880893
1712041304397,-8057.537143833004
1712041304438,-7908.399297373369
1712041304478,-7908.399297373369
1712041304518,-7988.002790869679
1712041304559,-8057.537143833004
1712041304598,-8223.940105196321
1712041304638,-8493.147458383814
1712041304678,-8780.203031301964
1712041304718,-8780.203031301964
1712041304759,-8780.203031301964
1712041304799,-8493.147458383814
1712041304839,-8486.436873395229
1712041304879,-8223.940105196321
1712041304919,-7988.002790869679
1712041304960,-7934.3010098410305
1712041304999,-7908.399297373369
1712041305039,-7908.399297373369
1712041305080,-7934.3010098410305
1712041305120,-7988.002790869679
1712041305161,-8223.940105196321
1712041305200,-8486.436873395229
1712041305240,-8493.147458383814
1712041305280,-8780.203031301964
1712041305320,-9345.193004436092
1712041305361,-9824.092336001806
1712041305401,-10105.8385972213
1712041305441,-10385.752915272955
1712041305481,-12341.079173482722
1712041305521,-13271.93934385269
1712041305562,-14968.174783211667
1712041305601,-16071.53638706822
1712041305642,-16314.6546205692
1712041305682,-17268.71888618986
1712041305722,-18434.56238172576
1712041305763,-19483.664352877066
1712041305802,-19529.590170335025
1712041305842,-20078.422896814067
1712041305883,-20078.422896814067
1712041305923,-20078.422896814067
1712041305964,-20078.422896814067
1712041306003,-20078.422896814067
1712041306043,-20078.422896814067
1712041306083,-20078.422896814067
1712041306125,-20078.422896814067
1712041306164,-20078.422896814067
1712041306204,-20078.422896814067
1712041306244,-20078.422896814067
1712041306284,-18194.299226884264
1712041306324,-15682.817162716296
1712041306365,-13754.14338542521
1712041306405,-11756.423149978044
1712041306445,-10364.790633876575
1712041306485,-8333.512370441342
1712041306525,-7157.187738430686
1712041306566,-7136.534131958615
1712041306606,-6739.33793066931
1712041306645,-6523.425820050295
1712041306686,-6199.793898290023
1712041306726,-6157.85625928035
1712041306767,-5886.566637792857
1712041306806,-5861.891978643835
1712041306847,-5669.250662418548
1712041306887,-4779.210376370465
1712041306927,-4094.1793159754016
1712041306968,-3901.1010062717833
1712041307007,-3901.1010062717833
1712041307047,-4190.239504200872
1712041307088,-4190.239504200872
1712041307128,-4190.239504200872
1712041307169,-4119.3491319827735
1712041307208,-3901.1010062717833
1712041307248,-3807.3479939145036
1712041307288,-3632.6679550656117
1712041307328,-3521.8079806363676
1712041307369,-2995.899139670888
1712041307409,-2718.6099398746155
1712041307449,-2613.89552903967
1712041307489,-1620.7842976441607
1712041307529,-1620.7842976441607
1712041307570,-2613.89552903967
1712041307609,-2995.899139670888
1712041307649,-3086.0105534945615
1712041307689,-3521.8079806363676
1712041307729,-3521.8079806363676
1712041307770,-3086.0105534945615
1712041307810,-2613.89552903967
1712041307850,-2520.958992091939
1712041307890,-1620.7842976441607
1712041307930,-1445.8297297749668
1712041307971,-296.40202243137173
1712041308010,638.6932288417593
1712041308050,1131.3327121762559
1712041308090,1587.3453156512696
1712041308131,2180.6935118557885
1712041308171,3013.8594442729373
1712041308211,6033.721772235818
1712041308251,10849.148204158293
1712041308291,16826.072072933195
1712041308331,20301.66954160435
1712041308372,25350.916414172854
1712041308412,28828.538815047126
1712041308452,30064.296009063255
1712041308492,30506.92694532778
1712041308532,30608.753838574514
1712041308573,32077.96470807353
1712041308612,32128.77201438183
1712041308652,35226.82814909308
1712041308692,49222.33497069613
1712041308733,55067.79015967692
1712041308774,57662.36790167517
1712041308813,58070.33528883569
1712041308853,59018.92059851019
1712041308893,59839.48183830455
1712041308933,59839.48183830455
1712041308974,59839.48183830455
1712041309014,59839.48183830455
1712041309054,59839.48183830455
1712041309094,59839.48183830455
1712041309135,59839.48183830455
1712041309175,58070.33528883569
1712041309214,57662.36790167517
1712041309254,57008.3010220048
1712041309294,55067.79015967692
1712041309334,54115.102165200515
1712041309375,54115.102165200515
1712041309415,50543.98330717534
1712041309455,49679.98348517087
1712041309495,48928.27128679631
1712041309535,47911.72986220149
1712041309576,46877.85394407995
1712041309615,45428.59371793666
1712041309655,45394.58595490968
1712041309695,44125.11886188551
1712041309736,43459.54450706253
1712041309776,40101.306510315044
1712041309816,36386.41108659515
1712041309856,33374.13566390658
1712041309896,29802.03033578489
1712041309936,26645.189255362377
1712041309977,13425.10854364466
1712041310017,10247.185426811688
1712041310057,10173.413889723364
1712041310097,9840.128988293
1712041310137,7543.370994755998
1712041310178,7341.323055263143
1712041310217,6994.878260838799
1712041310257,6994.878260838799
1712041310298,6994.878260838799
1712041310338,6994.878260838799
1712041310378,6994.878260838799
1712041310418,7341.323055263143
1712041310458,7543.370994755998
1712041310498,7751.773829058744
1712041310538,9840.128988293
1712041310579,9977.776195822284
1712041310619,10173.413889723364
1712041310659,10173.413889723364
1712041310699,12180.88680236414
1712041310739,13425.10854364466
1712041310780,14097.016749904491
1712041310819,14168.581553793978
1712041310859,14168.581553793978
1712041310900,14168.581553793978
1712041310940,14168.581553793978
1712041310981,14168.581553793978
1712041311020,14168.581553793978
1712041311060,14168.581553793978
1712041311100,14168.581553793978
1712041311140,14168.581553793978
1712041311181,14520.893788366579
1712041311221,14798.249588239007
1712041311261,14798.249588239007
1712041311301,14168.581553793978
1712041311341,14097.016749904491
1712041311382,14093.989846134093
1712041311422,12704.987131931353
1712041311462,12643.902436612174
1712041311502,12426.002720490564
1712041311542,12198.965018308721
1712041311583,12097.489743268117
1712041311622,11681.338208009489
1712041311663,11645.321615687571
1712041311703,11314.96676758118
1712041311743,11314.96676758118
1712041311784,11645.321615687571
1712041311823,11681.338208009489
1712041311863,11878.318586486392
1712041311904,11681.338208009489
1712041311944,11314.96676758118
1712041311984,10794.0842087036
1712041312024,10723.155983312987
1712041312064,10665.232809872366
1712041312104,10600.331365346909
1712041312146,10438.362253020983
1712041312185,10348.780192207545
1712041312225,10348.780192207545
1712041312265,10161.915021646768
1712041312305,9253.947516344022
1712041312345,6854.378304786049
1712041312386,6106.706867899746
1712041312426,5213.035216811113
1712041312466,5213.035216811113
1712041312506,5213.035216811113
1712041312546,5097.002944907639
1712041312587,4428.708405077457
1712041312627,4181.966191896237
1712041312666,4106.785061840899
1712041312707,4042.49578825105
1712041312747,3993.0095843905583
1712041312788,3941.347786954604
1712041312827,3867.9777177562937
1712041312867,3849.025414617732
1712041312907,3488.187192359008
1712041312947,3172.330095237121
1712041312988,1362.1224894630723
1712041313027,-801.6743905511685
1712041313068,-801.6743905511685
1712041313108,-801.6743905511685
1712041313148,-1857.7718703281134
1712041313189,-1900.9947039992549
1712041313228,-2048.948069711216
1712041313268,-2835.993690781761
1712041313308,-3215.2426217272878
1712041313349,-3639.805141962599
1712041313389,-3985.789399424568
1712041313429,-4099.260087998584
1712041313469,-4124.812986977398
1712041313509,-4312.5371264712885
1712041313549,-4802.607510049827
1712041313590,-5207.940998870414
1712041313629,-7623.561027447693
1712041313669,-8917.975505562034
1712041313709,-9836.855435492937
1712041313749,-10272.28700653091
1712041313790,-10446.693285567686
1712041313830,-11028.400793244597
1712041313870,-11675.904901395552
1712041313910,-11991.218526519835
1712041313950,-12538.384465157054
1712041313991,-12582.88992634369
1712041314030,-12850.365565216634
1712041314070,-12974.539912690409
1712041314110,-13002.529386378359
1712041314150,-13002.529386378359
1712041314191,-13002.529386378359
1712041314231,-13002.529386378359
1712041314271,-13002.529386378359
1712041314311,-12974.539912690409
1712041314351,-11675.904901395552
1712041314392,-11028.400793244597
1712041314431,-10446.693285567686
1712041314471,-10446.693285567686
1712041314511,-10446.693285567686
1712041314552,-13002.529386378359
1712041314592,-13002.529386378359
1712041314632,-13002.529386378359
1712041314672,-13002.529386378359
1712041314712,-13002.529386378359
1712041314752,-13002.529386378359
1712041314793,-13002.529386378359
1712041314832,-13002.529386378359
1712041314873,-13002.529386378359
1712041314913,-13002.529386378359
1712041314953,-13642.806437042542
1712041314994,-13642.806437042542
1712041315034,-13642.806437042542
1712041315074,-13642.806437042542
1712041315114,-13642.806437042542
1712041315156,-13642.806437042542
1712041315195,-13642.806437042542
1712041315234,-13642.806437042542
1712041315273,-13642.806437042542
1712041315312,-13642.806437042542
1712041315351,-13642.806437042542
1712041315390,-11655.560921592638
1712041315429,-6689.766119437292
1712041315468,13694.552424241323
1712041315507,60715.23851731722
1712041315546,63195.29838226992
1712041315585,64579.411902316846
1712041315624,67741.41550230468
1712041315663,69092.45526451943
1712041315702,71146.40707494644
1712041315741,72350.27215103991
1712041315780,73367.86678481102
1712041315820,74745.9703299785
1712041315860,74745.9703299785
1712041315900,74745.9703299785
1712041315940,74745.9703299785
1712041315980,73367.86678481102
1712041316020,72350.27215103991
1712041316060,71146.40707494644
1712041316100,69092.45526451943
1712041316140,68430.4775884198
1712041316180,68430.4775884198
1712041316220,68430.4775884198
1712041316260,68430.4775884198
1712041316300,67296.67682078015
1712041316340,63386.93405293487
1712041316380,58289.07479933137
1712041316420,57556.796329895034
1712041316460,56987.40313382773
1712041316500,55587.10262202099
1712041316540,54985.622337127104
1712041316580,53934.229321278166
1712041316620,51216.11977184657
1712041316660,49975.20631487388
1712041316700,49485.228818032425
1712041316740,48565.94669217244
1712041316780,48327.61624939786
1712041316820,45826.07542139711
1712041316860,44070.66855495656
1712041316900,43913.24994821567
1712041316940,43270.751980964094
1712041316980,42515.355461837724
1712041317020,42515.355461837724
1712041317060,41449.97690234939
1712041317100,41449.97690234939
1712041317140,41449.97690234939
1712041317180,41449.97690234939
1712041317220,41449.97690234939
1712041317260,41449.97690234939
1712041317300,41449.97690234939
1712041317340,41449.97690234939
1712041317380,42515.355461837724
1712041317420,43913.24994821567
1712041317460,47972.025224675424
1712041317500,47972.025224675424
1712041317540,47972.025224675424
1712041317580,49622.15931827575
1712041317620,49972.79732971452
1712041317660,52288.24423800083
1712041317700,52503.18202254828
1712041317740,55369.1302922545
1712041317780,55369.1302922545
1712041317820,55369.1302922545
1712041317860,55369.1302922545
1712041317900,55369.1302922545
1712041317940,55369.1302922545
1712041317980,52503.18202254828
1712041318020,52288.24423800083
1712041318060,49972.79732971452
1712041318100,45615.24959607003
1712041318140,43670.88790807268
1712041318180,40363.26479006652
1712041318220,39539.055538570974
1712041318260,37282.02118729008
1712041318300,33414.81219330104
1712041318340,33414.81219330104
1712041318380,33382.66455264855
1712041318420,33302.57061481057
1712041318460,31948.412640700582
1712041318500,31366.101737194695
1712041318540,23899.54195769271
1712041318580,20931.648239068687
1712041318620,17547.488977998495
1712041318660,16796.25759540405
1712041318700,15629.130823034793
1712041318740,15626.438222579658
1712041318780,15626.438222579658
1712041318820,12467.226598651148
1712041318860,12185.789600415621
1712041318900,10418.726395288482
1712041318940,9793.729165695608
1712041318980,8896.020826484542
1712041319020,8532.247171720956
1712041319060,4877.281846892554
1712041319100,4120.7593686515465
1712041319140,4120.7593686515465
1712041319180,4120.7593686515465
1712041319220,4120.7593686515465
1712041319260,4120.7593686515465
1712041319300,-2786.1448383238167
1712041319340,-2786.1448383238167
1712041319380,-4510.68781786412
1712041319420,-4510.68781786412
1712041319460,-4510.68781786412
1712041319500,-4510.68781786412
1712041319540,-4510.68781786412
1712041319580,-2786.1448383238167
1712041319620,-2786.1448383238167
1712041319660,-3168.710111699067
1712041319700,-1885.8578039044514
1712041319740,-1885.8578039044514
1712041319780,-1885.8578039044514
1712041319820,-1885.8578039044514
1712041319860,-1885.8578039044514
1712041319900,-1885.8578039044514
1712041319940,-1885.8578039044514
1712041319980,-3168.710111699067
1712041320020,-3168.710111699067
1712041320060,-3168.710111699067
1712041320100,-3168.710111699067
1712041320140,-1885.8578039044514
1712041320180,-1885.8578039044514
1712041320220,2845.7047611810267
1712041320260,2845.7047611810267
1712041320300,2845.7047611810267
1712041320340,2845.7047611810267
1712041320380,2845.7047611810267
1712041320420,2845.7047611810267
1712041320460,15597.536371589638
1712041320500,15909.831356464885
1712041320540,20175.07259645546
1712041320580,29480.265204491094
1712041320620,29874.948972063605
1712041320660,35168.83484540414
1712041320700,37677.40034574829
1712041320740,38512.437050468754
1712041320780,38625.40738588013
1712041320820,39740.697452009656
1712041320860,40775.99998201989
1712041320900,45277.242319317535
1712041320940,45688.15177873522
1712041320980,45688.15177873522
1712041321020,45688.15177873522
1712041321060,45688.15177873522
1712041321100,45688.15177873522
1712041321140,45688.15177873522
1712041321180,45688.15177873522
1712041321220,45688.15177873522
1712041321260,45688.15177873522
1712041321300,45688.15177873522
1712041321340,45688.15177873522
1712041321380,45265.418247113936
1712041321420,35182.08624166157
1712041321460,34429.95853988454
1712041321500,33322.98307782039
1712041321540,23828.911215154454
1712041321580,20746.877828422002
1712041321620,15636.917301757261
1712041321660,15546.51584294904
1712041321700,15221.927030386869
1712041321740,15221.927030386869
1712041321780,15221.927030386869
1712041321820,15221.927030386869
1712041321860,15221.927030386869
1712041321900,15221.927030386869
1712041321940,14382.772634773515
1712041321980,14142.871844635345
1712041322020,14142.871844635345
1712041322060,14142.871844635345
1712041322100,14382.772634773515
1712041322140,14382.772634773515
1712041322180,14382.772634773515
1712041322220,15221.927030386869
1712041322260,15221.927030386869
1712041322300,15221.927030386869
1712041322340,15221.927030386869
1712041322380,14382.772634773515
1712041322420,14142.871844635345
1712041322460,14382.772634773515
1712041322500,15563.050842232537
1712041322540,15603.218863517512
1712041322580,15603.218863517512
1712041322620,15603.218863517512
1712041322660,15603.218863517512
1712041322700,15603.218863517512
1712041322740,15603.218863517512
1712041322780,17858.528218564577
1712041322820,17858.528218564577
1712041322860,17858.528218564577
1712041322900,17858.528218564577
1712041322940,17858.528218564577
1712041322980,17997.51532104425
1712041323020,17997.51532104425
1712041323060,17997.51532104425
1712041323100,17997.51532104425
1712041323140,17997.51532104425
1712041323180,17997.51532104425
1712041323220,17997.51532104425
1712041323260,17997.51532104425
1712041323300,17997.51532104425
1712041323340,17050.350558525883
1712041323380,15454.391026319005
1712041323420,11500.176311797462
1712041323460,10025.729524490424
1712041323500,5494.072148310486
1712041323540,452.1593294069171
1712041323580,-635.8106651296839
1712041323620,-1468.6503787282854
1712041323660,-6469.3786966903135
1712041323700,-12912.541058201343
1712041323740,-18427.946365128737
1712041323780,-19686.947907252237
1712041323820,-19874.537685235962
1712041323860,-23083.054153944366
1712041323900,-26541.813705943525
1712041323940,-27371.429355396423
1712041323980,-28145.316711478867
1712041324020,-31069.355762160383
1712041324060,-33305.82599737216
1712041324100,-34587.537896279246
1712041324140,-35060.62783070374
1712041324180,-35452.631120366976
1712041324220,-39371.042194162495
1712041324260,-54183.89342654124
1712041324300,-54183.89342654124
1712041324340,-54183.89342654124
1712041324380,-58109.23654516321
1712041324420,-58473.784262938425
1712041324460,-58473.784262938425
1712041324500,-58541.947283464484
1712041324540,-62987.612467488274
1712041324580,-64613.71995635796
1712041324620,-64647.15099108266
1712041324660,-64961.78937772615
1712041324700,-65054.453400927596
1712041324740,-65836.3145088572
1712041324780,-65997.85763292667
1712041324820,-65997.85763292667
1712041324860,-65997.85763292667
1712041324900,-66046.2073216429
1712041324940,-66909.09992353804
1712041324980,-68800.14165814128
1712041325020,-70126.85361925978
1712041325060,-70892.02538834792
1712041325100,-79070.56842406932
1712041325140,-82231.97092777072
1712041325180,-83446.01735588536
1712041325220,-84169.58284609765
1712041325260,-90406.7656350946
1712041325300,-92855.93488819106
1712041325340,-93656.026474379
1712041325380,-93656.026474379
1712041325420,-93656.026474379
1712041325460,-93656.026474379
1712041325500,-93656.026474379
1712041325540,-93656.026474379
1712041325580,-93656.026474379
1712041325620,-93656.026474379
1712041325660,-93656.026474379
1712041325700,-93656.026474379
1712041325740,-93656.026474379
1712041325780,-79901.00914614368
1712041325820,-59104.46400055848
1712041325860,-53175.174790670164
1712041325900,-44551.88692292571
1712041325940,-42832.77233764343
1712041325980,-25489.402085473295
1712041326020,-9159.57718720939
1712041326060,13702.063871733844
1712041326100,14853.524411562365
1712041326140,15776.732079168782
1712041326180,16003.148983863182
1712041326220,16003.148983863182
1712041326260,16003.148983863182
1712041326300,16003.148983863182
1712041326340,16003.148983863182
1712041326380,16003.148983863182
1712041326420,16003.148983863182
1712041326460,16003.148983863182
1712041326500,15776.732079168782
1712041326540,14853.524411562365
1712041326580,14709.4546612259
1712041326620,13702.063871733844
1712041326660,-2989.1548162079416
1712041326700,-6576.7315364181995
1712041326740,-9808.855219900608
1712041326780,-10291.54186253436
1712041326820,-15618.691754798405
1712041326860,-15752.334908301942
1712041326900,-17159.03514532
1712041326940,-18907.584600648843
1712041326980,-18972.198025661055
1712041327020,-22399.945587921888
1712041327060,-36622.08875111025
1712041327100,-36622.08875111025
1712041327140,-36622.08875111025
1712041327180,-36622.08875111025
1712041327217,-36622.08875111025
1712041327258,-36622.08875111025
1712041327297,-36622.08875111025
1712041327338,-36622.08875111025
1712041327379,-36622.08875111025
1712041327418,-36622.08875111025
1712041327458,-36622.08875111025
1712041327498,-32659.912967240904
1712041327538,-32659.912967240904
1712041327579,-32659.912967240904
1712041327619,-32659.912967240904
1712041327659,-32659.912967240904
1712041327699,-32659.912967240904
1712041327739,-32659.912967240904
1712041327780,-32659.912967240904
1712041327819,-32659.912967240904
1712041327859,-32659.912967240904
1712041327899,-32659.912967240904
1712041327939,-32723.935177349485
1712041327981,-37272.50538773881
1712041328020,-40399.77487173164
1712041328060,-69709.41209843708
1712041328100,-74245.54194117244
1712041328140,-74245.54194117244
1712041328181,-74245.54194117244
1712041328220,-74245.54194117244
1712041328260,-75568.89786136756
1712041328301,-75631.23608301347
1712041328341,-76248.93054678757
1712041328382,-76684.17316986062
1712041328421,-76915.01038700249
1712041328461,-77814.64805454295
1712041328501,-79114.00277690962
1712041328541,-79770.22847344493
1712041328583,-80101.49828732293
1712041328622,-80101.49828732293
1712041328662,-80101.49828732293
1712041328702,-80101.49828732293
1712041328742,-80101.49828732293
1712041328783,-80101.49828732293
1712041328822,-80101.49828732293
1712041328862,-79869.28176935017
1712041328903,-79114.00277690962
1712041328943,-76904.27744461223
1712041328984,-76904.27744461223
1712041329023,-76904.27744461223
1712041329063,-76904.27744461223
1712041329103,-76891.66086494923
1712041329143,-76888.47769915592
1712041329185,-74204.93374381587
1712041329224,-38012.24442983139
1712041329264,-34699.10113211931
1712041329304,-28326.389358906774
1712041329344,-24208.676872982178
1712041329385,-23810.983137648087
1712041329424,-23022.93134549074
1712041329464,-23022.93134549074
1712041329505,-23022.93134549074
1712041329545,-23022.93134549074
1712041329586,-23022.93134549074
1712041329625,-23022.93134549074
1712041329665,-23022.93134549074
1712041329705,-23022.93134549074
1712041329745,-23022.93134549074
1712041329787,-23810.983137648087
1712041329826,-24208.676872982178
1712041329866,-24926.138359265635
1712041329906,-30326.347442056052
1712041329946,-34328.943263568915
1712041329987,-34328.943263568915
1712041330026,-34328.943263568915
1712041330066,-34328.943263568915
1712041330107,-34899.53194074705
1712041330148,-35697.51571340859
1712041330188,-36868.19302333961
1712041330227,-37122.856778467074
1712041330267,-37689.342221276835
1712041330307,-37689.342221276835
1712041330347,-37689.342221276835
1712041330389,-37689.342221276835
1712041330428,-37689.342221276835
1712041330468,-37504.00105001521
1712041330508,-36868.19302333961
1712041330548,-36589.20181216113
1712041330589,-35719.348060068674
1712041330629,-35697.51571340859
1712041330669,-34947.927927644225
1712041330709,-34899.53194074705
1712041330749,-33277.20652513462
1712041330790,-32878.845058684936
1712041330829,-31459.405551127158
1712041330869,-31459.405551127158
1712041330909,-31378.468346549198
1712041330949,-31045.92518405756
1712041330991,-30880.385694817873
1712041331030,-29904.02274077153
1712041331070,-29187.13672294072
1712041331110,-28485.68134368048
1712041331150,-27512.608881421387
1712041331191,-26991.968636377715
1712041331230,-26734.526751430705
1712041331270,-25862.42568214261
1712041331310,-25060.43751618825
1712041331350,-24538.87426495133
1712041331391,-24315.585888310336
1712041331431,-22765.550675429637
1712041331471,-20743.812245454174
1712041331511,-17732.013977477094
1712041331551,-15293.419100752566
1712041331592,-14775.31775118853
1712041331631,-14614.801565370057
1712041331671,-14398.546658590669
1712041331711,-13074.902303490788
1712041331751,-13046.419917567633
1712041331792,-12049.93481083028
1712041331832,-11501.227191509912
1712041331872,-10658.361261928221
1712041331912,-9774.372983945534
1712041331952,-9363.74978657579
1712041331993,-9307.91855573398
1712041332032,-7902.211602639873
1712041332072,-6245.8381316950545
1712041332112,-3208.395615650341
1712041332152,-749.1409092349932
1712041332194,804.7701459056698
1712041332233,974.5896472043823
1712041332273,1347.1381880417466
1712041332313,1861.2836142368615
1712041332353,2502.149005208863
1712041332394,2580.8111566191074
1712041332433,3791.3303397162817
1712041332473,4123.387079701293
1712041332513,4678.261663227342
1712041332554,5139.116079738596
1712041332594,5476.755873010727
1712041332634,6444.239808314946
1712041332674,6904.584960260196
1712041332714,8078.889750691131
1712041332754,9990.329113835935
1712041332795,10047.308697768953
1712041332834,10276.132468822878
1712041332874,10284.68251136737
1712041332915,11186.823088690173
1712041332955,11209.30158291664
1712041332995,11218.182271858677
1712041333035,11356.473534360528
1712041333075,11448.573513891082
1712041333115,11792.744734132197
1712041333157,12151.658820237033
1712041333196,12151.658820237033
1712041333236,11792.744734132197
1712041333276,11448.573513891082
1712041333316,11356.473534360528
1712041333356,11218.182271858677
1712041333397,11209.30158291664
1712041333436,11186.823088690173
1712041333476,11186.823088690173
1712041333517,11186.823088690173
1712041333557,11186.823088690173
1712041333598,10254.750551443547
1712041333637,9716.727418318857
1712041333677,9716.727418318857
1712041333717,9716.727418318857
1712041333757,9716.727418318857
1712041333798,8771.570364841959
1712041333838,8149.477343068924
1712041333878,7881.749574134359
1712041333918,7772.121762743453
1712041333958,7216.206033296417
1712041333999,7146.028151736595
1712041334038,7127.769641161198
1712041334078,6940.2832910344005
1712041334119,6940.2832910344005
1712041334159,6882.571828274056
1712041334199,6864.266918744659
1712041334239,5246.250175854191
1712041334279,3059.5577590120956
1712041334319,3059.5577590120956
1712041334359,3059.5577590120956
1712041334400,3059.5577590120956
1712041334440,2914.885888985358
1712041334480,2115.9323099940084
1712041334520,2058.61439484288
1712041334560,1927.9979758230038
1712041334601,1844.45087487204
1712041334640,1236.1128731821664
1712041334680,1160.6127125411294
1712041334721,634.939920367673
1712041334761,548.493562925607
1712041334801,375.0302805805113
1712041334841,124.05135665182024
1712041334881,124.05135665182024
1712041334921,124.05135665182024
1712041334962,548.493562925607
1712041335002,634.939920367673
1712041335042,634.939920367673
1712041335082,-619.4607158319559
1712041335122,-1396.3392950769048
1712041335162,-1503.3121690487023
1712041335203,-1504.9104062223341
1712041335242,-1559.2608277336694
1712041335282,-1712.1011605104432
1712041335323,-1719.1037248205394
1712041335363,-1719.1037248205394
1712041335403,-1719.1037248205394
1712041335443,-1712.1011605104432
1712041335483,-1645.9252940372098
1712041335523,-1645.9252940372098
1712041335563,-1504.9104062223341
1712041335604,-1396.3392950769048
1712041335643,-619.4607158319559
1712041335683,-342.92063441779464
1712041335723,-1246.963608742226
1712041335763,-1396.3392950769048
1712041335804,-1645.9252940372098
1712041335843,-2696.7303524944
1712041335883,-2696.7303524944
1712041335923,-2696.7303524944
1712041335963,-2696.7303524944
1712041336004,-2696.7303524944
1712041336044,-2477.2626371507067
1712041336083,-2276.9375300316606
1712041336124,-2247.519152855035
1712041336165,-1645.9252940372098
1712041336204,-1246.963608742226
1712041336244,-937.013624029234
1712041336284,-937.013624029234
1712041336324,-1246.963608742226
1712041336364,-2247.519152855035
1712041336405,-2276.9375300316606
1712041336444,-2477.2626371507067
1712041336484,-2700.56418105145
1712041336524,-2717.127566409763
1712041336564,-2731.913652626332
1712041336605,-2731.913652626332
1712041336644,-2731.913652626332
1712041336684,-2892.749945987016
1712041336724,-5999.958186704433
1712041336765,-6544.150944667868
1712041336805,-6544.150944667868
1712041336845,-7216.1895700562745
1712041336885,-7324.777794093359
1712041336925,-7646.517562683206
1712041336965,-8007.520420943387
1712041337006,-8135.7640229191165
1712041337045,-8614.958377161296
1712041337085,-8642.589983941521
1712041337125,-9133.357212648727
1712041337165,-9411.823912218679
1712041337206,-9839.574105252512
1712041337245,-10190.848971092142
1712041337285,-12034.742830419913
1712041337325,-14427.722815686837
1712041337365,-14427.722815686837
1712041337406,-14427.722815686837
1712041337446,-14427.722815686837
1712041337486,-15513.550654270686
1712041337526,-15792.18362592347
1712041337566,-15979.867175210034
1712041337607,-17316.035155333346
1712041337646,-17467.27928583231
1712041337687,-17555.626755133737
1712041337727,-17609.367561135907
1712041337767,-17761.179287888343
1712041337808,-17808.246864417335
1712041337847,-17609.367561135907
1712041337887,-17555.626755133737
1712041337927,-17555.626755133737
1712041337967,-17467.27928583231
1712041338008,-17208.475914020557
1712041338047,-15979.867175210034
1712041338088,-15792.18362592347
1712041338128,-15678.494127759011
1712041338168,-15678.494127759011
1712041338209,-15792.18362592347
1712041338248,-15792.18362592347
1712041338288,-15792.18362592347
1712041338328,-15678.494127759011
1712041338368,-15386.797903640661
1712041338409,-15260.125602577114
1712041338449,-14062.31876729941
1712041338489,-13934.407817141153
1712041338529,-13493.320681614568
1712041338569,-13448.024597364943
1712041338610,-13015.706085382262
1712041338649,-12347.01407465851
1712041338689,-11380.916926620062
1712041338729,-11379.000771870371
1712041338770,-11205.024395291228
1712041338810,-9377.855375737417
1712041338850,-9268.18261297536
1712041338890,-9268.18261297536
1712041338930,-7047.91558853793
1712041338970,-6828.454695323482
1712041339011,-6566.635446366854
1712041339050,-6225.937312811147
1712041339090,-5644.93872832926
1712041339130,-5285.966204705415
1712041339172,-3784.4153851475567
1712041339211,-3516.4559707841836
1712041339251,-3169.8035117285326
1712041339291,-2436.764035038417
1712041339331,-2384.6429548531305
1712041339371,-1255.5924492324702
1712041339412,-1129.922133795917
1712041339451,-80.86267107236199
1712041339491,5.351090674987063
1712041339532,73.9581008143723
1712041339572,196.20713303424418
1712041339612,773.6821986120194
1712041339652,1002.5837446125224
1712041339692,1124.829359962605
1712041339732,1269.183376002591
1712041339772,1341.7731603374705
1712041339813,1662.7228067182004
1712041339852,1845.3953340831213
1712041339893,2666.019137564115
1712041339933,2963.4959194858093
1712041339973,3783.110128137283
1712041340014,4255.470171441324
1712041340053,3783.110128137283
1712041340093,3128.359907295555
1712041340133,2963.4959194858093
1712041340173,2963.4959194858093
1712041340214,2963.4959194858093
1712041340254,3128.359907295555
1712041340294,3490.757589808898
1712041340334,3629.965386930853
1712041340374,3722.252839717781
1712041340415,3783.110128137283
1712041340454,4154.533013120526
1712041340494,4726.414211688098
1712041340534,4758.198879478034
1712041340575,4964.451982855331
1712041340615,5856.999271778157
1712041340655,6624.9495661892
1712041340695,5856.999271778157
1712041340735,5856.363079662435
1712041340775,5757.832769094501
1712041340816,5757.832769094501
1712041340856,5856.363079662435
1712041340896,5856.999271778157
1712041340936,6256.491839080583
1712041340976,6367.354496298358
1712041341017,6852.44676691317
1712041341056,6876.944436364807
1712041341096,7085.724613360129
1712041341136,7208.358950193971
1712041341176,7566.346680547111
1712041341217,8530.697167032398
1712041341257,8779.281555274036
1712041341297,8804.013411191292
1712041341337,8530.697167032398
1712041341377,7566.346680547111
1712041341418,7085.724613360129
1712041341457,7069.876302045304
1712041341497,7085.724613360129
1712041341537,7144.416135791689
1712041341578,7566.346680547111
1712041341619,7899.684328895528
1712041341658,8352.579228632152
1712041341698,8530.697167032398
1712041341738,8804.013411191292
1712041341778,9096.363526579458
1712041341819,9804.062221605098
1712041341858,10351.98381890729
1712041341899,11630.754799326882
1712041341939,11684.557518593501
1712041341979,11818.258150891867
1712041342020,11818.258150891867
1712041342059,11818.258150891867
1712041342099,14228.753432427999
1712041342139,16111.38747672271
1712041342181,19416.593746931758
1712041342220,24557.24031571648
1712041342260,27165.135494417045
1712041342300,27165.135494417045
1712041342340,27165.135494417045
1712041342380,27165.135494417045
1712041342421,27165.135494417045
1712041342461,27165.135494417045
1712041342501,27165.135494417045
1712041342541,27165.135494417045
1712041342581,27165.135494417045
1712041342622,27165.135494417045
1712041342661,27165.135494417045
1712041342701,18789.00620662654
1712041342742,17790.826793322805
1712041342782,17790.826793322805
1712041342822,17790.826793322805
1712041342862,17790.826793322805
1712041342902,17790.826793322805
1712041342942,17790.826793322805
1712041342982,17790.826793322805
1712041343023,17790.826793322805
1712041343063,17790.826793322805
1712041343103,17790.826793322805
1712041343143,17790.826793322805
1712041343183,20465.226533312118
1712041343224,22325.045034525916
1712041343263,24768.59653044073
1712041343303,27395.862625784706
1712041343343,31201.228365213145
1712041343384,31722.227346095722
1712041343424,32118.374555877177
1712041343464,32131.47104677651
1712041343504,33087.56385004171
1712041343544,33529.423441481544
1712041343584,34108.997456409736
1712041343625,35038.66536254925
1712041343664,35208.67067900859
1712041343705,35208.67067900859
1712041343745,35208.67067900859
1712041343785,35208.67067900859
1712041343826,35208.67067900859
1712041343865,35208.67067900859
1712041343905,34108.997456409736
1712041343946,33087.56385004171
1712041343986,32958.88664502464
1712041344027,32131.47104677651
1712041344066,32118.374555877177
1712041344106,32118.374555877177
1712041344146,27207.177142535802
1712041344186,21595.17990202969
1712041344227,15848.235444414895
1712041344266,15371.833407360828
1712041344306,15274.223026850726
1712041344347,15270.95709857205
1712041344387,14756.55740372627
1712041344427,14279.346665763529
1712041344467,14222.359167901799
1712041344507,14033.71966451034
1712041344547,13998.161322135944
1712041344587,12393.60753021203
1712041344628,12104.345609387849
1712041344667,12008.201059956104
1712041344707,11175.327710800339
1712041344747,4651.561916847248
1712041344788,-6053.3293721191585
1712041344829,-16480.63873040164
1712041344868,-24798.089999024058
1712041344908,-29886.69622533
1712041344948,-33688.19337260956
1712041344988,-37589.42782488931
1712041345029,-40384.09478614549
1712041345068,-43091.66072478588
1712041345108,-44424.970033099875
1712041345148,-45558.32001818204
1712041345190,-45563.55533323111
1712041345229,-45684.103141923435
1712041345269,-46371.32429564744
1712041345309,-46430.23303539911
1712041345349,-48807.31870561652
1712041345389,-50083.73486904474
1712041345430,-50083.73486904474
1712041345469,-50083.73486904474
1712041345509,-50083.73486904474
1712041345550,-50083.73486904474
1712041345589,-50083.73486904474
1712041345630,-51486.513234780636
1712041345670,-51852.878005026374
1712041345710,-52246.15866918443
1712041345750,-52246.15866918443
1712041345790,-52246.15866918443
1712041345831,-51852.878005026374
1712041345870,-51486.513234780636
1712041345910,-50960.97100763302
1712041345950,-50083.73486904474
1712041345990,-49188.48928859597
1712041346031,-48739.75810621772
1712041346071,-48670.99488705234
1712041346111,-47603.48320486769
1712041346151,-47557.72989622736
1712041346191,-47151.599022210576
1712041346232,-45709.45541127748
1712041346271,-45504.15660965373
1712041346311,-44963.61656375555
1712041346351,-43591.98397584865
1712041346392,-41903.929382077884
1712041346432,-38639.793832869735
1712041346472,-38082.95696175471
1712041346512,-38013.4486465645
1712041346552,-37039.344527001726
1712041346592,-36835.74279479263
1712041346633,-35287.20071880985
1712041346672,-34801.78520579683
1712041346712,-34144.71482217591
1712041346753,-33025.79162071366
1712041346793,-32520.944992972072
1712041346833,-32507.37706739409
1712041346873,-30923.04901918024
1712041346913,-28829.720150762005
1712041346953,-26534.244036168326
1712041346993,-23990.89248204138
1712041347034,-20672.788483686745
1712041347073,-20456.720672199503
1712041347113,-19971.044313986553
1712041347153,-19429.40839433251
1712041347193,-17889.933038175106
1712041347234,-17826.107207071967
1712041347274,-17238.11260961299
1712041347314,-15985.19622629974
1712041347354,-14942.99916588422
1712041347397,-13513.529174521565
1712041347435,-12567.534978547366
1712041347474,-10958.2327525937
1712041347514,-8899.239452166483
1712041347555,-6022.478597283596
1712041347595,-3933.1649000947364
1712041347636,-2518.044935221318
1712041347675,-2298.558335261885
1712041347715,-1495.890920472797
1712041347755,-1369.630230507115
1712041347795,-577.8257153104059
1712041347836,74.6625323179178
1712041347876,1056.2124352131505
1712041347916,1593.0590062127449
1712041347956,1763.391901705414
1712041347996,2385.890536794439
1712041348037,3280.109484371962
1712041348076,4683.414992570411
1712041348116,5949.363588018343
1712041348156,7912.461847191211
1712041348198,7955.447685930412
1712041348237,8434.855271027656
1712041348277,8777.12371254107
1712041348317,9362.289742271416
1712041348357,9891.74920954695
1712041348397,10081.166105998214
1712041348438,10209.720300353365
1712041348477,10412.538888685638
1712041348518,10491.022866355255
1712041348558,10894.46660399437
1712041348598,11134.172952033114
1712041348639,11134.172952033114
1712041348678,11134.172952033114
1712041348718,11134.172952033114
1712041348758,11134.172952033114
1712041348799,11255.30126203061
1712041348839,11790.196979212807
1712041348879,11836.336432859069
1712041348919,12266.856892874464
1712041348959,12531.825820337981
1712041348999,12776.326775831636
1712041349040,12886.67242854461
1712041349079,13101.159028528258
1712041349120,13214.019017351093
1712041349160,13817.633041770663
1712041349200,13817.633041770663
1712041349241,13214.019017351093
1712041349280,12886.67242854461
1712041349320,12886.67242854461
1712041349360,12886.67242854461
1712041349401,12922.565295869485
1712041349441,13135.52609265619
1712041349481,13214.019017351093
1712041349521,13281.334371019155
1712041349561,13593.554704876151
1712041349604,13817.633041770663
1712041349642,14160.43846988026
1712041349682,14187.585728241596
1712041349722,14753.99432702153
1712041349762,14808.05442020297
1712041349802,14808.05442020297
1712041349843,14187.585728241596
1712041349882,14160.43846988026
1712041349922,13593.554704876151
1712041349963,13281.334371019155
1712041350003,13191.905053114984
1712041350044,13191.905053114984
1712041350083,13281.334371019155
1712041350123,13336.23882973753
1712041350163,13593.554704876151
1712041350203,13848.689930174965
1712041350244,14187.585728241596
1712041350284,14519.097167473286
1712041350324,14808.05442020297
1712041350364,15133.12371304119
1712041350404,14519.097167473286
1712041350445,13848.689930174965
1712041350484,13336.23882973753
1712041350524,13191.905053114984
1712041350565,13031.401725459378
1712041350605,13031.363443600945
1712041350645,12885.063333347905
1712041350685,12945.180269944714
1712041350725,13031.401725459378
1712041350765,13191.905053114984
1712041350805,13336.23882973753
1712041350846,13642.258030471392
1712041350885,13848.689930174965
1712041350925,14519.097167473286
1712041350966,14907.910746762296
1712041351006,14907.910746762296
1712041351046,14427.901699054055
1712041351086,13642.258030471392
1712041351126,12945.180269944714
1712041351166,12885.063333347905
1712041351208,12223.292257403256
1712041351247,12150.78719205549
1712041351287,12150.78719205549
1712041351328,12150.78719205549
1712041351367,12150.78719205549
1712041351408,12150.78719205549
1712041351448,12150.78719205549
1712041351488,11794.766094471328
1712041351528,11523.98158640787
1712041351568,11445.611320469063
1712041351608,11260.661952574505
1712041351649,11225.433044474572
1712041351688,11143.558729164302
1712041351728,11076.503402667586
1712041351768,10841.562368915416
1712041351809,10648.528957212344
1712041351849,10647.40383074293
1712041351889,10371.879332077457
1712041351929,10305.936034707585
1712041351969,10152.411257263739
1712041352009,8261.370931083104
1712041352050,5812.585404182319
1712041352089,4430.800701844273
1712041352129,3880.4802463771775
1712041352169,3592.219232494477
1712041352209,3380.0203280956484
1712041352250,3126.617522576591
1712041352290,3087.43804638274
1712041352330,3087.43804638274
1712041352370,3087.43804638274
1712041352410,3087.43804638274
1712041352451,3087.43804638274
1712041352490,3087.43804638274
1712041352530,3087.43804638274
1712041352570,3087.43804638274
1712041352610,3118.3680942812935
1712041352651,3118.3680942812935
1712041352691,3592.219232494477
1712041352731,3880.4802463771775
1712041352771,6021.509212246863
1712041352811,6216.962632732466
1712041352852,6216.962632732466
1712041352891,6216.962632732466
1712041352931,6216.962632732466
1712041352971,6216.962632732466
1712041353012,6216.962632732466
1712041353052,6216.962632732466
1712041353092,6216.962632732466
1712041353132,6216.962632732466
1712041353172,6216.962632732466
1712041353212,6216.962632732466
1712041353253,5672.7015593238175
1712041353292,5445.6532649665605
1712041353332,4925.909713453148
1712041353372,4327.001050646184
1712041353413,4285.789336675545
1712041353453,3606.375005555572
1712041353493,3602.2189033967443
1712041353533,3564.2251224583015
1712041353573,3469.8076143066864
1712041353613,3279.389169199392
1712041353654,2648.3430821779184
1712041353693,1665.2549193787854
1712041353733,1607.7389354398474
1712041353774,1062.3516528340988
1712041353814,-2702.254179405514
1712041353855,-5737.451698670629
1712041353894,-5737.451698670629
1712041353934,-5737.451698670629
1712041353974,-5737.451698670629
1712041354014,-5737.451698670629
1712041354055,-6364.344326145481
1712041354095,-6980.882069148123
1712041354135,-7434.5855916882865
1712041354175,-7854.868028252851
1712041354216,-8158.103273067623
1712041354256,-8300.830626689596
1712041354295,-8386.28023073962
1712041354335,-8386.28023073962
1712041354375,-8386.28023073962
1712041354416,-8386.28023073962
1712041354456,-8386.28023073962
1712041354496,-7547.088795017917
1712041354536,-7434.5855916882865
1712041354576,-6364.344326145481
1712041354616,-6168.635922451038
1712041354657,-5593.739143821644
1712041354697,-5342.699331677053
1712041354736,-5593.739143821644
1712041354777,-6168.635922451038
1712041354817,-7547.088795017917
1712041354858,-8386.28023073962
1712041354897,-8386.28023073962
1712041354937,-7547.088795017917
1712041354977,-6168.635922451038
1712041355017,-4485.720341242151
1712041355058,-3381.3557511107065
1712041355098,-3080.787093758583
1712041355138,-2566.513107530074
1712041355178,-590.6770733590238
1712041355218,1099.141027353704
1712041355259,1233.5750037727412
1712041355298,1610.3313355443534
1712041355338,1700.4261611369438
1712041355379,3181.2300823752303
1712041355419,4768.12958840467
1712041355460,7288.913366107037
1712041355499,10402.999935101252
1712041355539,12754.47548750299
1712041355579,14641.26939956029
1712041355619,15499.827407178003
1712041355660,15598.361709593795
1712041355700,16292.950454532867
1712041355740,16706.674285109155
1712041355780,17160.65401610313
1712041355820,17215.641045813914
1712041355861,18010.758020591456
1712041355900,18246.66347814584
1712041355940,18786.742986779893
1712041355980,19008.683222909458
1712041356021,19505.11144171469
1712041356061,20372.631231804844
1712041356101,20891.16957734106
1712041356141,21529.730516165262
1712041356181,21547.170523435576
1712041356221,22241.481872075005
1712041356262,22295.170678408816
1712041356302,22368.780492766295
1712041356342,22550.57805963559
1712041356382,22579.981732502813
1712041356422,22712.02748752851
1712041356463,22863.450416504405
1712041356502,23079.506675055716
1712041356542,23410.895582261495
1712041356582,23410.895582261495
1712041356623,23410.895582261495
1712041356663,23079.506675055716
1712041356703,22863.450416504405
1712041356743,22712.02748752851
1712041356783,22712.02748752851
1712041356823,22708.691627648193
1712041356864,22708.691627648193
1712041356904,22708.691627648193
1712041356944,22708.691627648193
1712041356984,22708.691627648193
1712041357024,22708.691627648193
1712041357065,22652.259701868054
1712041357104,22343.199665906606
1712041357144,22311.117206610274
1712041357184,22282.857202389976
1712041357226,22188.245747824665
1712041357265,22002.622280598618
1712041357305,21336.879042014014
1712041357345,21217.45741836331
1712041357385,20813.733672943898
1712041357425,20704.513345143292
1712041357466,20610.327994677005
1712041357505,19664.081377634313
1712041357545,16682.25833994802
1712041357585,14417.88729429408
1712041357625,13107.93964550132
1712041357666,13107.93964550132
1712041357706,13107.93964550132
1712041357746,12853.386244283058
1712041357786,12676.076627613744
1712041357826,12312.763113060733
1712041357867,12162.112918264
1712041357906,11933.022132203914
1712041357946,11863.623655715492
1712041357986,11860.04018979054
1712041358026,11859.849561459385
1712041358067,11318.84982072562
1712041358107,11121.591739191208
1712041358147,11091.967956970446
1712041358187,9964.399355435744
1712041358227,9415.331846469315
1712041358268,9415.331846469315
1712041358307,9338.044079596875
1712041358347,9338.044079596875
1712041358387,9338.044079596875
1712041358428,9278.68169333646
1712041358468,8766.70860639168
1712041358508,7803.6124418503605
1712041358548,7422.618605907541
1712041358588,7422.618605907541
1712041358628,7422.618605907541
1712041358669,7803.6124418503605
1712041358708,7879.983516174369
1712041358748,8137.0077942956705
1712041358789,8766.70860639168
1712041358829,9278.68169333646
1712041358869,9283.262487582164
1712041358909,9338.044079596875
1712041358949,9415.331846469315
1712041358989,9534.868957601953
1712041359029,9843.155899535399
1712041359070,10014.956322330516
1712041359109,10439.146692879964
1712041359150,11559.885813501198
1712041359190,13671.801010889467
1712041359230,16248.571357644629
1712041359271,19805.152449916815
1712041359310,22437.789312828332
1712041359350,22592.67384325713
1712041359390,22592.67384325713
1712041359430,22592.67384325713
1712041359471,22592.67384325713
1712041359511,22700.80446454836
1712041359551,22926.580947549082
1712041359591,23036.70030616829
1712041359631,23205.456942468416
1712041359672,23207.93112121802
1712041359711,23282.727061438374
1712041359751,23282.727061438374
1712041359791,23207.93112121802
1712041359832,23205.456942468416
1712041359873,23036.70030616829
1712041359912,22926.580947549082
1712041359952,22700.80446454836
1712041359992,22592.67384325713
1712041360032,22340.591398967197
1712041360073,22271.859626889694
1712041360113,21603.036256536376
1712041360153,20494.4117701496
1712041360193,17192.058058692608
1712041360234,16229.791271660943
1712041360274,14232.661339317914
1712041360313,13664.99309574836
1712041360353,13633.153008628171
1712041360393,13607.525947133545
1712041360434,13292.01832959149
1712041360475,13050.314096387941
1712041360514,12912.000422219746
1712041360554,12785.266806546133
1712041360594,12552.517823469592
1712041360634,12490.679752072552
1712041360675,12444.704173553735
1712041360715,12372.65521824453
1712041360755,12205.009091384476
1712041360795,9177.973016940523
1712041360835,5905.152928981464
1712041360876,5316.546909648459
1712041360915,5063.742271505762
1712041360955,4664.106642632745
1712041360995,4590.09604621632
1712041361036,4272.232861908851
1712041361077,3579.2302257318515
1712041361116,3291.8100130374078
1712041361156,1399.7313729338348
1712041361196,829.7734917842317
1712041361236,384.8847219417803
1712041361277,58.659654318355024
1712041361317,-143.51409696042538
1712041361357,-551.8852613070048
1712041361397,-568.2281059306115
1712041361437,-3554.6681561903097
1712041361478,-5376.762171249837
1712041361517,-5376.762171249837
1712041361558,-5376.762171249837
1712041361598,-5514.142888968578
1712041361638,-6179.54155416647
1712041361679,-6714.932491053827
1712041361718,-6748.958032655064
1712041361758,-6773.625406060368
1712041361798,-7180.13353126822
1712041361839,-7351.161852813559
1712041361879,-7375.611586763756
1712041361919,-7410.37929512281
1712041361959,-7501.540680593811
1712041361999,-7833.261600690428
1712041362039,-9099.727534025442
1712041362080,-11322.9916132309
1712041362120,-11322.9916132309
1712041362160,-11322.9916132309
1712041362200,-11322.9916132309
1712041362240,-11767.926038116217
1712041362281,-11897.051008916227
1712041362320,-12543.134169245139
1712041362360,-12837.948259211378
1712041362401,-12993.91269955784
1712041362441,-13468.132181547582
1712041362482,-13931.285820781253
1712041362521,-14029.024114230648
1712041362561,-14096.678037552163
1712041362601,-14609.009321096586
1712041362642,-14609.009321096586
1712041362682,-14609.009321096586
1712041362722,-14096.678037552163
1712041362762,-14029.024114230648
1712041362802,-13635.887223296799
1712041362842,-13091.524835353484
1712041362883,-13091.524835353484
1712041362922,-13343.350633391412
1712041362962,-13456.49237716943
1712041363003,-13635.887223296799
1712041363043,-13635.887223296799
1712041363083,-13635.887223296799
1712041363123,-13456.49237716943
1712041363163,-13343.350633391412
1712041363203,-13091.524835353484
1712041363245,-12424.18174705375
1712041363284,-12347.560431913007
1712041363322,-11929.434543976793
1712041363363,-11883.761764380848
1712041363403,-11843.232423394918
1712041363443,-11826.90550612146
1712041363484,-11512.200838278979
1712041363523,-11512.200838278979
1712041363563,-11512.200838278979
1712041363603,-11826.90550612146
1712041363643,-11843.232423394918
1712041363684,-11883.761764380848
1712041363724,-12347.560431913007
1712041363764,-12347.560431913007
1712041363804,-12347.560431913007
1712041363844,-12347.560431913007
1712041363885,-11964.746423312463
1712041363924,-11883.761764380848
1712041363964,-11883.761764380848
1712041364004,-11883.761764380848
1712041364044,-11826.90550612146
1712041364085,-11161.832672016928
1712041364125,-11964.746423312463
1712041364165,-12549.673892979976
1712041364205,-12907.884610225912
1712041364245,-12975.283384669805
1712041364286,-13581.523958908394
1712041364325,-13643.299869818846
1712041364365,-13736.711009989027
1712041364405,-13679.559984726366
1712041364446,-13643.299869818846
1712041364486,-13581.523958908394
1712041364526,-12975.633362439927
1712041364566,-12975.283384669805
1712041364606,-12549.673892979976
1712041364646,-12432.716752951965
1712041364687,-11964.746423312463
1712041364726,-11178.877201088239
1712041364766,-12432.716752951965
1712041364806,-12502.890066256747
1712041364846,-12502.890066256747
1712041364887,-12502.890066256747
1712041364927,-12502.890066256747
1712041364967,-12485.319008301478
1712041365007,-12432.716752951965
1712041365047,-11299.54499452142
1712041365088,-11291.252267750446
1712041365127,-11178.877201088239
1712041365168,-10644.175960883033
1712041365208,-10583.898269017227
1712041365248,-9744.092924213968
1712041365289,-9143.522306081839
1712041365328,-8934.60232520895
1712041365368,-8676.781180722406
1712041365408,-7774.700505608227
1712041365448,-7774.700505608227
1712041365489,-7774.700505608227
1712041365529,-6495.777215211187
1712041365569,-6447.142143994104
1712041365609,-6128.727270082105
1712041365649,-6015.459809534252
1712041365690,-5194.60689264629
1712041365729,-5158.820145082194
1712041365769,-4674.2764313486405
1712041365809,-4083.8346404149197
1712041365850,-3881.4648748287
1712041365891,-3503.8780771035235
1712041365930,-3440.787243250292
1712041365970,-2691.911061555147
1712041366010,-2577.256209309213
1712041366050,-2549.486766432412
1712041366091,-1703.147378048161
1712041366131,-271.2742891537491
1712041366171,1342.1372366680298
1712041366211,1672.1889669862576
1712041366253,1784.1581067154184
1712041366292,2253.663615524536
1712041366331,2980.4080338936765
1712041366372,2988.376996944193
1712041366412,3223.8792816870846
1712041366452,4045.429199044127
1712041366493,4062.8986380933784
1712041366532,4454.743748577312
1712041366572,4597.000692106318
1712041366612,4813.916013413109
1712041366653,4898.609151461627
1712041366693,5284.702333319699
1712041366733,5612.6211570422165
1712041366773,5762.047963461839
1712041366813,5842.937730380101
1712041366853,5842.937730380101
1712041366894,5929.9597787803505
1712041366933,6084.448484282475
1712041366974,6113.672772869701
1712041367014,6267.857140155975
1712041367054,6374.351651913021
1712041367095,7032.962560066255
1712041367134,7348.316461301176
1712041367174,7724.62798722554
1712041367215,8408.676471741172
1712041367255,8408.676471741172
1712041367295,8408.676471741172
1712041367335,8408.676471741172
1712041367375,8408.676471741172
1712041367415,8408.676471741172
1712041367455,8772.547140141018
1712041367496,9997.152366424678
1712041367536,10323.119259294821
1712041367576,10839.386827000184
1712041367616,10978.121358288918
1712041367656,11248.484346628655
1712041367697,11801.256184917875
1712041367736,13473.490951548796
1712041367777,14644.025808456354
1712041367817,15485.727492694976
1712041367857,16525.674071423244
1712041367898,17640.958380824886
1712041367937,18923.01909202058
1712041367977,19264.328419307014
1712041368017,19500.2861657585
1712041368058,19885.043176401407
1712041368098,19900.68332744576
1712041368138,20008.91480268468
1712041368178,20160.14803733304
1712041368218,20636.827223668806
1712041368258,20804.531453803647
1712041368299,21103.127903058194
1712041368339,21206.609693110455
1712041368379,21374.838320323965
1712041368419,21544.94953696523
1712041368459,22425.558350944193
1712041368500,22783.24289911543
1712041368540,22783.24289911543
1712041368580,22783.24289911543
1712041368620,22783.24289911543
1712041368660,25465.714924747124
1712041368701,26524.32083582296
1712041368740,27784.177488651127
1712041368780,27860.089571343036
1712041368820,27982.498542233137
1712041368860,28153.347182406345
1712041368901,29534.103650811827
1712041368941,31219.927641465794
1712041368981,33544.35089589516
1712041369021,35080.12488667178
1712041369061,37356.130670920014
1712041369102,39810.53004808002
1712041369141,40639.81026495434
1712041369181,40639.81026495434
1712041369221,40639.81026495434
1712041369263,40639.81026495434
1712041369302,40639.81026495434
1712041369342,40639.81026495434
1712041369382,40639.81026495434
1712041369422,40639.81026495434
1712041369462,40639.81026495434
1712041369503,40639.81026495434
1712041369542,40639.81026495434
1712041369582,39286.4135296857
1712041369623,35397.64121984504
1712041369663,29573.60432277387
1712041369704,21746.368278739974
1712041369743,14321.26989773009
1712041369783,12563.36624603672
1712041369823,11777.227904929314
1712041369863,10678.17652344983
1712041369904,10678.17652344983
1712041369944,10678.17652344983
1712041369984,10678.17652344983
1712041370024,10678.17652344983
1712041370064,9926.14354970958
1712041370105,9434.144548962358
1712041370144,9355.890172366984
1712041370184,9143.69168815529
1712041370224,9143.69168815529
1712041370265,9143.69168815529
1712041370305,9143.69168815529
1712041370345,9143.69168815529
1712041370385,9143.69168815529
1712041370425,9143.69168815529
1712041370465,8890.110581702087
1712041370506,1282.2334801480174
1712041370545,-5412.799207512289
1712041370586,-5412.799207512289
1712041370626,-5412.799207512289
1712041370666,-5412.799207512289
1712041370707,-5412.799207512289
1712041370746,-5412.799207512289
1712041370786,-5412.799207512289
1712041370826,-5412.799207512289
1712041370866,-5412.799207512289
1712041370907,-5412.799207512289
1712041370947,-6330.24762008898
1712041370987,-8156.104488442652
1712041371027,-8694.013064458966
1712041371067,-8694.013064458966
1712041371108,-8694.013064458966
1712041371147,-8694.013064458966
1712041371188,-8694.013064458966
1712041371227,-8694.013064458966
1712041371268,-8694.013064458966
1712041371309,-8694.013064458966
1712041371348,-10448.884376495145
1712041371388,-15009.826864534523
1712041371428,-18635.27864146512
1712041371468,-24941.952751856763
1712041371509,-33698.34869780578
1712041371549,-40190.00142160617
1712041371589,-45471.33245081734
1712041371629,-47932.15079890704
1712041371669,-48210.82287697657
1712041371710,-48377.16852751607
1712041371749,-49283.45885530254
1712041371789,-49609.823642609874
1712041371830,-49997.09694809909
1712041371870,-50534.23891294841
1712041371911,-51352.27196240402
1712041371950,-51767.8614080078
1712041371990,-52307.89192489907
1712041372030,-52409.90886624716
1712041372070,-53122.780350451125
1712041372111,-53238.11787155364
1712041372151,-53238.11787155364
1712041372191,-53238.11787155364
1712041372231,-53238.11787155364
1712041372273,-53122.780350451125
1712041372312,-52631.54071957711
1712041372351,-52631.54071957711
1712041372392,-52631.54071957711
1712041372432,-53560.61729853903
1712041372472,-53560.61729853903
1712041372513,-53560.61729853903
1712041372552,-53560.61729853903
1712041372592,-53353.578064533416
1712041372632,-52631.54071957711
1712041372673,-52200.037933815736
1712041372713,-51370.58073758613
1712041372753,-50764.511737825815
1712041372793,-50398.6540283747
1712041372833,-50020.14804218849
1712041372874,-49055.09472423326
1712041372914,-49010.95268924534
1712041372954,-47979.40561653022
1712041372994,-47917.52304544579
1712041373034,-46995.112133162096
1712041373074,-45820.12092397385
1712041373115,-45556.62193121831
1712041373155,-43739.80360882473
1712041373195,-42404.294208761305
1712041373235,-41843.50883254642
1712041373275,-41460.89116025041
1712041373316,-40336.27056795359
1712041373355,-39009.31685698405
1712041373395,-38933.445322109386
1712041373436,-38628.39658578485
1712041373476,-38273.28362123924
1712041373517,-37545.378491738345
1712041373556,-37388.24562227214
1712041373596,-36540.92528328067
1712041373636,-35626.35478742188
1712041373677,-34747.373040207895
1712041373718,-34086.59440007387
1712041373757,-34086.59440007387
1712041373797,-34086.59440007387
1712041373837,-31585.385021708906
1712041373877,-29149.65011465689
1712041373918,-28697.106470029103
1712041373958,-27489.941435088404
1712041373998,-27316.890567951836
1712041374038,-26274.0671832012
1712041374078,-25180.596949799452
1712041374119,-24405.49782518996
1712041374158,-23462.166002840735
1712041374199,-22576.258485778235
1712041374238,-20932.169516535476
1712041374279,-17238.992900791112
1712041374320,-15085.226173810195
1712041374359,-12887.855259725358
1712041374399,-10456.439361242577
1712041374439,-8485.221758805215
1712041374479,-8065.800604884047
1712041374520,-6294.891344920266
1712041374559,-5163.169423750136
1712041374599,-4965.393513391726
1712041374639,-4279.280665712198
1712041374680,-4204.46999189863
1712041374720,-4186.4380447031
1712041374760,-3944.0283453939483
1712041374800,-3824.2352605091874
1712041374840,-3674.068604066968
1712041374880,-3611.161772909574
1712041374921,-3356.6582145763095
1712041374960,-2355.974431326613
1712041375000,-2355.974431326613
1712041375040,-2355.974431326613
1712041375080,-2355.974431326613
1712041375121,-648.3139493595809
1712041375161,-531.8468493740074
1712041375201,-530.3984638818074
1712041375241,-364.2951407751534
1712041375283,-130.85127375717275
1712041375322,836.0192513410002
1712041375362,1301.9171540886164
1712041375403,1747.0064735347405
1712041375442,1989.0859651560895
1712041375483,3025.495831016451
1712041375524,3112.7868567649275
1712041375563,3484.670404038392
1712041375603,4091.831519725267
1712041375643,6096.3633637151215
1712041375683,9041.507005216787
1712041375724,12301.793022018857
1712041375764,14133.646164176986
1712041375804,14133.646164176986
1712041375844,14133.646164176986
1712041375884,14133.646164176986
1712041375924,14133.646164176986
1712041375964,14406.006477416493
1712041376004,14585.782385876402
1712041376044,14674.122120810905
1712041376084,14703.666439774912
1712041376125,14755.067322104238
1712041376164,15072.75410174625
1712041376205,15072.75410174625
1712041376245,14755.067322104238
1712041376285,14703.666439774912
1712041376325,14585.782385876402
1712041376365,14406.006477416493
1712041376405,14133.646164176986
1712041376445,13769.739585249452
1712041376485,13686.712862983113
1712041376526,13635.138403533958
1712041376565,13028.372435975121
1712041376606,12726.260619005654
1712041376646,10922.074172835797
1712041376686,10922.074172835797
1712041376727,10922.074172835797
1712041376766,10207.47648025304
1712041376806,10141.188810925698
1712041376846,10016.884645855986
1712041376886,9876.927365029696
1712041376927,9490.801613746677
1712041376967,9108.375878890976
1712041377007,8755.302334102336
1712041377047,8390.653352777474
1712041377087,7977.702182119479
1712041377128,7836.342551785521
1712041377167,7215.077304915991
1712041377207,7215.077304915991
1712041377247,7215.077304915991
1712041377288,7215.077304915991
1712041377328,7215.077304915991
1712041377368,7215.077304915991
1712041377408,7215.077304915991
1712041377448,7215.077304915991
1712041377488,7019.194928362267
1712041377529,6542.3050315657165
1712041377569,6337.570614805445
1712041377609,6213.781458337093
1712041377649,5964.303652100731
1712041377689,5735.098093045875
1712041377730,5735.098093045875
1712041377769,5735.098093045875
1712041377809,5438.526961152442
1712041377849,3036.67542806454
1712041377889,2643.2977011166513
1712041377930,2553.8468682570383
1712041377970,2060.489468985703
1712041378010,1637.392400488723
1712041378050,1368.0935029219836
1712041378090,795.3080936516635
1712041378131,738.8906763950363
1712041378170,511.03522469010204
1712041378211,412.4300826995168
1712041378251,398.7593638252001
