Timestamp,Cleaned PPG
1712016476222,0.0
1712016476265,0.0
1712016476303,0.0
1712016476342,0.0
1712016476384,0.0
1712016476423,0.0
1712016476463,0.0
1712016476503,0.0
1712016476543,0.0
1712016476584,0.0
1712016476623,0.0
1712016476663,0.0
1712016476703,0.0
1712016476743,0.0
1712016476784,0.0
1712016476823,0.0
1712016476864,0.0
1712016476904,0.0
1712016476944,0.0
1712016476985,0.0
1712016477024,0.0
1712016477064,0.0
1712016477104,0.0
1712016477144,0.0
1712016477185,0.0
1712016477224,0.0
1712016477264,0.0
1712016477304,0.0
1712016477345,0.0
1712016477386,0.0
1712016477425,0.0
1712016477465,0.0
1712016477505,1128604.7757437872
1712016477545,1128604.7757437872
1712016477586,1128604.7757437872
1712016477625,1128604.7757437872
1712016477665,1128604.7757437872
1712016477705,1128604.7757437872
1712016477746,1128604.7757437872
1712016477786,1128604.7757437872
1712016477826,1128604.7757437872
1712016477866,1128604.7757437872
1712016477906,1128604.7757437872
1712016477946,1058233.524755148
1712016477987,991600.2822345286
1712016478026,929188.3825679293
1712016478066,870851.6862898308
1712016478106,815814.5457044342
1712016478146,765392.8179109544
1712016478187,718416.074898774
1712016478226,674155.8430442063
1712016478266,633626.5549432321
1712016478306,595339.4919930804
1712016478347,560344.3930131621
1712016478388,527879.4511383888
1712016478427,496645.56432569097
1712016478470,467580.21426200494
1712016478507,439255.5575937154
1712016478547,412994.2305689077
1712016478588,388930.570715284
1712016478627,366807.4284045603
1712016478667,345701.03878326155
1712016478708,324932.0421043262
1712016478748,304721.02681084815
1712016478789,285740.06622346584
1712016478828,267634.43859870033
1712016478868,251584.2664819127
1712016478908,235634.97927578725
1712016478948,220715.16420322098
1712016478989,207839.93994245864
1712016479028,195685.03780867555
1712016479068,184177.41991167236
1712016479108,173897.07595122885
1712016479148,164629.85584435333
1712016479190,155853.4260423286
1712016479229,148024.33510014694
1712016479269,140907.57756821392
1712016479309,133268.80322443787
1712016479349,126834.14404813247
1712016479390,120508.56235875655
1712016479429,113172.12403519661
1712016479469,105527.11174505367
1712016479509,97944.68065248756
1712016479550,90534.39863200905
1712016479591,84079.22060758201
1712016479630,78786.76284249779
1712016479670,73482.44610806461
1712016479710,69604.44706242904
1712016479750,66439.12174437195
1712016479791,65266.55769012589
1712016479830,63026.95767918555
1712016479870,61013.18615567777
1712016479910,57706.5326733524
1712016479950,55287.01107062213
1712016479991,52466.36341691157
1712016480031,50761.08031627815
1712016480071,49625.29900319502
1712016480111,48474.95680682361
1712016480151,45996.717587617226
1712016480192,42681.62534061633
1712016480231,37943.601050407626
1712016480271,34743.775946545415
1712016480311,32547.996104835533
1712016480351,31509.99026703881
1712016480392,31509.99026703881
1712016480431,31509.99026703881
1712016480472,31509.99026703881
1712016480512,31509.99026703881
1712016480552,31509.99026703881
1712016480593,31509.99026703881
1712016480632,31509.99026703881
1712016480675,31509.99026703881
1712016480712,31509.99026703881
1712016480752,31509.99026703881
1712016480793,32585.25261677988
1712016480832,35666.31998081133
1712016480873,35787.138978279196
1712016480913,36361.56916185375
1712016480953,37117.659468567
1712016480994,37235.094972307794
1712016481033,37612.47627875116
1712016481073,37811.886285384186
1712016481113,37991.75948155299
1712016481153,38069.71586172562
1712016481194,38178.00470316503
1712016481234,40153.38140054839
1712016481273,41659.02169676032
1712016481314,43736.600956259295
1712016481354,45045.1328308424
1712016481395,45045.1328308424
1712016481434,45045.1328308424
1712016481474,45045.1328308424
1712016481514,45045.1328308424
1712016481554,45045.1328308424
1712016481595,45045.1328308424
1712016481635,45045.1328308424
1712016481675,45045.1328308424
1712016481715,45045.1328308424
1712016481755,45045.1328308424
1712016481796,44669.37381554162
1712016481835,40525.84228597861
1712016481875,33727.582183488645
1712016481915,17880.057205228135
1712016481956,5481.23313198192
1712016481997,5481.23313198192
1712016482036,5481.23313198192
1712016482076,5481.23313198192
1712016482116,5481.23313198192
1712016482156,4209.925863188226
1712016482197,3798.708254297264
1712016482236,2754.935959406197
1712016482276,1441.6502705151215
1712016482317,1184.836953769438
1712016482357,-186.0137940570712
1712016482398,-186.0137940570712
1712016482437,-186.0137940570712
1712016482477,-186.0137940570712
1712016482517,-186.0137940570712
1712016482557,-186.0137940570712
1712016482598,-186.0137940570712
1712016482638,-186.0137940570712
1712016482678,-2626.600510094315
1712016482718,-3112.2283891467378
1712016482758,-4260.5465288404375
1712016482799,-6406.527550321072
1712016482838,-6406.527550321072
1712016482878,-6406.527550321072
1712016482919,-6406.527550321072
1712016482959,-6406.527550321072
1712016483000,-6406.527550321072
1712016483039,-6406.527550321072
1712016483079,-6406.527550321072
1712016483119,-6406.527550321072
1712016483159,-6406.527550321072
1712016483200,-6406.527550321072
1712016483239,-3629.3836320545524
1712016483280,7782.7467033769935
1712016483320,7977.741130388342
1712016483360,9373.648735368624
1712016483401,9913.777999234851
1712016483440,10674.568579426967
1712016483480,10695.890280324034
1712016483520,10770.972570800222
1712016483560,10770.972570800222
1712016483601,10770.972570800222
1712016483641,10770.972570800222
1712016483680,10770.972570800222
1712016483721,10770.972570800222
1712016483761,10695.890280324034
1712016483802,10695.890280324034
1712016483841,10695.890280324034
1712016483881,10695.890280324034
1712016483921,10674.568579426967
1712016483961,10244.443640913349
1712016484002,8735.594587196596
1712016484041,8686.815232304856
1712016484081,8686.815232304856
1712016484121,8686.815232304856
1712016484161,8686.815232304856
1712016484202,8686.815232304856
1712016484242,8665.00341246929
1712016484282,8665.00341246929
1712016484322,8469.898252730258
1712016484362,8152.186968511902
1712016484403,8073.4218644518405
1712016484442,7833.610194966197
1712016484482,7820.826706992462
1712016484522,7820.826706992462
1712016484562,7125.532347583212
1712016484604,7122.424445709214
1712016484643,7074.227454744279
1712016484683,7074.227454744279
1712016484723,7122.424445709214
1712016484763,7125.532347583212
1712016484804,8152.186968511902
1712016484843,8469.898252730258
1712016484883,8469.898252730258
1712016484923,8152.186968511902
1712016484964,7125.532347583212
1712016485004,7122.424445709214
1712016485044,7064.842095666565
1712016485084,7000.276317272801
1712016485124,6919.638055922929
1712016485164,5900.007489933167
1712016485205,5812.86795448279
1712016485244,5515.748365089297
1712016485284,5420.549870668445
1712016485324,5420.549870668445
1712016485364,5357.101847345009
1712016485405,4710.407938924618
1712016485445,4267.793700729497
1712016485485,4227.267501316033
1712016485525,3580.1668719830923
1712016485565,3414.0528025887907
1712016485606,3230.412142859772
1712016485645,3075.9834162639454
1712016485685,2322.4292211132124
1712016485725,2212.8353230422363
1712016485765,2004.1177103715017
1712016485806,1968.6267697783187
1712016485845,1740.0285689737648
1712016485885,1727.6759516773745
1712016485926,1377.2840731139295
1712016485966,-1128.8335176920518
1712016486007,-1623.561273372732
1712016486046,-1623.561273372732
1712016486086,-1623.561273372732
1712016486126,-1623.561273372732
1712016486166,-1623.561273372732
1712016486207,-1623.561273372732
1712016486246,-1639.9044653978199
1712016486286,-1765.12514640484
1712016486326,-2097.298866217956
1712016486366,-2297.505510100629
1712016486408,-2477.4945560591295
1712016486447,-2495.407949421555
1712016486487,-2495.407949421555
1712016486527,-2495.407949421555
1712016486567,-2520.3609313480556
1712016486608,-2520.3609313480556
1712016486647,-2520.3609313480556
1712016486687,-2495.407949421555
1712016486727,-1639.9044653978199
1712016486768,-1623.561273372732
1712016486809,-1461.8999354038388
1712016486848,-503.84383674664423
1712016486888,-303.73010965716094
1712016486928,-888.441873727832
1712016486968,-888.441873727832
1712016487009,-888.441873727832
1712016487048,-888.441873727832
1712016487088,-857.7755777724087
1712016487129,-590.9318680930883
1712016487169,-281.99357377924025
1712016487210,12.237113510258496
1712016487249,236.42455718293786
1712016487289,637.3727424582466
1712016487329,638.7397011565045
1712016487369,1029.8650201768614
1712016487410,1079.481553063728
1712016487450,1225.4214693461545
1712016487490,1430.1211503650993
1712016487530,1500.1480314629152
1712016487570,2505.672968527302
1712016487611,1751.8859284278005
1712016487650,1430.1211503650993
1712016487690,1225.4214693461545
1712016487730,1311.341787434183
1712016487770,1344.6928277350962
1712016487812,1344.6928277350962
1712016487851,1344.6928277350962
1712016487891,1344.6928277350962
1712016487931,1344.6928277350962
1712016487971,1430.1211503650993
1712016488012,1751.8859284278005
1712016488051,2505.672968527302
1712016488092,2615.341597700957
1712016488132,2755.5962581932545
1712016488172,2755.5962581932545
1712016488213,2615.341597700957
1712016488303,1751.8859284278005
1712016488343,1344.6928277350962
1712016488383,1311.341787434183
1712016488423,1279.8999802200124
1712016488464,1219.2941432455555
1712016488504,1084.1120661627501
1712016488544,1219.2941432455555
1712016488584,1276.5961849833839
1712016488624,1276.5961849833839
1712016488665,1276.5961849833839
1712016488704,1279.8999802200124
1712016488744,1847.920491777826
1712016488784,2075.6313894903287
1712016488825,2755.5962581932545
1712016488866,2813.609208010137
1712016488905,2793.9664360200986
1712016488945,2075.6313894903287
1712016488985,1847.920491777826
1712016489025,1717.1865973267704
1712016489066,1569.3468094556592
1712016489106,1569.3468094556592
1712016489145,1717.1865973267704
1712016489186,1847.920491777826
1712016489226,2047.9199105831794
1712016489267,2075.6313894903287
1712016489306,2176.9311488233507
1712016489346,2592.2762180641294
1712016489386,2793.9664360200986
1712016489426,2813.609208010137
1712016489468,3015.0031588282436
1712016489507,3025.137425776571
1712016489547,3025.137425776571
1712016489587,3015.0031588282436
1712016489627,2793.9664360200986
1712016489668,2592.2762180641294
1712016489707,2176.9311488233507
1712016489747,2047.9199105831794
1712016489788,2047.9199105831794
1712016489828,2047.9199105831794
1712016489869,2047.9199105831794
1712016489908,2047.9199105831794
1712016489948,2176.9311488233507
1712016489988,2047.9199105831794
1712016490028,2176.9311488233507
1712016490070,2177.3192506060004
1712016490109,2177.3192506060004
1712016490149,2177.3192506060004
1712016490189,2177.3192506060004
1712016490229,2177.3192506060004
1712016490270,1984.4357513189316
1712016490310,1761.5016995668411
1712016490350,1192.5201056469232
1712016490390,931.7285781530663
1712016490430,876.534702965524
1712016490471,876.534702965524
1712016490510,876.534702965524
1712016490550,876.534702965524
1712016490591,876.534702965524
1712016490631,696.220558042638
1712016490672,520.7563696876168
1712016490711,931.7285781530663
1712016490751,931.7285781530663
1712016490791,931.7285781530663
1712016490831,931.7285781530663
1712016490872,931.7285781530663
1712016490911,931.7285781530663
1712016490951,931.7285781530663
1712016490991,931.7285781530663
1712016491032,931.7285781530663
1712016491072,931.7285781530663
1712016491112,1758.2478079665452
1712016491152,2969.4198048147373
1712016491192,6302.569843179546
1712016491232,7805.903144257609
1712016491273,10130.565862326417
1712016491312,10130.565862326417
1712016491352,10130.565862326417
1712016491392,10130.565862326417
1712016491432,10130.565862326417
1712016491473,10130.565862326417
1712016491513,10130.565862326417
1712016491553,10130.565862326417
1712016491593,10130.565862326417
1712016491633,11205.326211339794
1712016491674,11205.326211339794
1712016491713,11205.326211339794
1712016491753,11205.326211339794
1712016491793,11205.326211339794
1712016491834,15005.081360688433
1712016491874,19334.122673975304
1712016491914,19575.91824028315
1712016491954,19575.91824028315
1712016491994,19575.91824028315
1712016492034,19575.91824028315
1712016492075,19575.91824028315
1712016492114,21399.469117751345
1712016492154,22282.611910282634
1712016492194,22282.611910282634
1712016492235,22282.611910282634
1712016492275,22282.611910282634
1712016492315,22282.611910282634
1712016492355,22282.611910282634
1712016492395,22282.611910282634
1712016492435,22282.611910282634
1712016492476,22282.611910282634
1712016492515,22282.611910282634
1712016492555,22282.611910282634
1712016492596,22282.611910282634
1712016492636,22282.611910282634
1712016492676,22282.611910282634
1712016492716,22282.611910282634
1712016492756,22282.611910282634
1712016492796,22282.611910282634
1712016492836,22282.611910282634
1712016492877,22282.611910282634
1712016492916,22282.611910282634
1712016492957,22282.611910282634
1712016492996,37624.45359944599
1712016493037,37624.45359944599
1712016493078,37624.45359944599
1712016493117,37624.45359944599
1712016493157,37624.45359944599
1712016493197,37624.45359944599
1712016493237,37624.45359944599
1712016493278,37624.45359944599
1712016493317,37624.45359944599
1712016493357,37624.45359944599
1712016493397,37624.45359944599
1712016493438,30244.524667253718
1712016493478,18955.50871943962
1712016493518,5033.980717652943
1712016493558,2659.9825356514193
1712016493598,-1484.5777569855563
1712016493638,-2490.4786758003756
1712016493679,-2490.4786758003756
1712016493718,-2490.4786758003756
1712016493758,-2490.4786758003756
1712016493799,-2490.4786758003756
1712016493838,-2490.4786758003756
1712016493879,-2490.4786758003756
1712016493919,-2490.4786758003756
1712016493959,-2490.4786758003756
1712016493999,-2490.4786758003756
1712016494039,-2222.0288284588605
1712016494080,-1391.4759014518932
1712016494119,-994.0202895542607
1712016494160,-880.1703965235502
1712016494200,-265.6423687711358
1712016494240,-265.6423687711358
1712016494281,-117.59385082731023
1712016494320,1944.3054616823792
1712016494360,2497.641371798236
1712016494400,3106.9079686440527
1712016494440,4359.410895598587
1712016494481,5169.714296344668
1712016494521,6212.529218741693
1712016494561,6662.635068203323
1712016494601,10769.865677868016
1712016494641,14501.959542374127
1712016494682,14501.959542374127
1712016494721,14501.959542374127
1712016494761,14501.959542374127
1712016494801,14643.862584352493
1712016494841,17926.026505651884
1712016494882,17926.026505651884
1712016494922,17926.026505651884
1712016494962,18315.456165521406
1712016495002,18549.8727885494
1712016495042,18566.865657930262
1712016495083,19134.944561674725
1712016495122,19954.9579947046
1712016495162,20265.73192373151
1712016495203,20582.08631634619
1712016495243,20582.08631634619
1712016495284,20582.08631634619
1712016495323,20582.08631634619
1712016495363,20280.765689627267
1712016495403,20280.765689627267
1712016495443,20562.90224147169
1712016495484,21367.57108549215
1712016495524,21367.57108549215
1712016495564,21367.57108549215
1712016495604,21367.57108549215
1712016495644,21367.57108549215
1712016495685,21367.57108549215
1712016495724,22426.775802538265
1712016495764,23135.436818304006
1712016495804,23864.043580819387
1712016495845,23864.043580819387
1712016495885,23979.572475199588
1712016495925,23979.572475199588
1712016495965,23979.572475199588
1712016496005,23979.572475199588
1712016496045,23979.572475199588
1712016496086,23756.045199264307
1712016496125,22426.775802538265
1712016496165,23756.045199264307
1712016496206,23979.572475199588
1712016496246,24234.075064880773
1712016496287,24276.5123281274
1712016496326,24289.819016331807
1712016496366,24684.805022733286
1712016496406,24994.961632809136
1712016496446,25343.10349980835
1712016496487,25429.11229514191
1712016496527,25449.956891982816
1712016496567,26284.540492213797
1712016496607,26398.22251650691
1712016496647,27692.677459265105
1712016496688,28731.110424083658
1712016496727,29115.188098649494
1712016496767,28741.106570770964
1712016496808,29115.188098649494
1712016496847,29115.188098649494
1712016496888,29115.188098649494
1712016496928,29293.44837358268
1712016496968,29428.60433253739
1712016497008,29428.60433253739
1712016497048,29428.60433253739
1712016497089,29829.660738423467
1712016497128,29991.525002860464
1712016497169,29991.525002860464
1712016497209,29991.525002860464
1712016497249,29991.525002860464
1712016497290,29991.525002860464
1712016497329,29991.525002860464
1712016497369,29991.525002860464
1712016497409,29991.525002860464
1712016497449,29829.660738423467
1712016497490,29434.46479282994
1712016497530,29428.60433253739
1712016497570,29428.60433253739
1712016497610,29428.60433253739
1712016497650,29428.60433253739
1712016497691,29428.60433253739
1712016497730,29428.60433253739
1712016497770,29434.46479282994
1712016497810,29434.46479282994
1712016497850,29434.46479282994
1712016497891,29434.46479282994
1712016497930,29108.99619561853
1712016497971,28799.94258101657
1712016498011,28237.33286187146
1712016498051,27312.369488955475
1712016498092,26931.924379540607
1712016498131,26566.401852292474
1712016498171,26372.437699564267
1712016498211,25753.484535497613
1712016498252,25182.291809444316
1712016498292,23062.42648257548
1712016498332,23043.86576267192
1712016498372,22614.475759747438
1712016498412,22558.455627335235
1712016498452,22378.016981878318
1712016498493,22305.919009771198
1712016498533,22305.919009771198
1712016498573,21194.667907727417
1712016498613,21050.959250935353
1712016498653,20556.1291925665
1712016498694,20253.78125689691
1712016498734,20020.839503015857
1712016498774,19526.96387475403
1712016498814,17588.462592403404
1712016498854,17223.333291642368
1712016498895,16356.394729237072
1712016498934,15097.960545958951
1712016498975,13538.091665991116
1712016499015,12135.705026237294
1712016499055,6374.754658679012
1712016499096,3049.9555831891485
1712016499135,2735.16599109862
1712016499175,-2731.312743352726
1712016499216,-10333.505481932312
1712016499256,-15043.062530809082
1712016499297,-15043.062530809082
1712016499337,-15043.062530809082
1712016499377,-15043.062530809082
1712016499417,-15043.062530809082
1712016499457,-15043.062530809082
1712016499498,-15043.062530809082
1712016499537,-15043.062530809082
1712016499578,-15043.062530809082
1712016499618,-15043.062530809082
1712016499658,-15043.062530809082
1712016499699,-12463.003659079317
1712016499739,-10455.202534649521
1712016499779,-9773.764531570021
1712016499819,-9165.12855729973
1712016499860,-8903.739239062183
1712016499900,-8222.21006301418
1712016499940,-7984.801276859827
1712016499980,-7599.181463998742
1712016500020,-7599.181463998742
1712016500061,-7599.181463998742
1712016500102,-7599.181463998742
1712016500141,-7599.181463998742
1712016500182,-7599.181463998742
1712016500222,-7599.181463998742
1712016500264,-7984.801276859827
1712016500305,-8822.755387273617
1712016500345,-8903.739239062183
1712016500385,-9773.764531570021
1712016500425,-9773.764531570021
1712016500465,-13342.295545931906
1712016500505,-21067.929535402916
1712016500545,-21067.929535402916
1712016500585,-21067.929535402916
1712016500625,-21067.929535402916
1712016500665,-21067.929535402916
1712016500705,-21067.929535402916
1712016500745,-21067.929535402916
1712016500785,-21067.929535402916
1712016500825,-21067.929535402916
1712016500865,-21067.929535402916
1712016500905,-21067.929535402916
1712016500945,-12332.166357574984
1712016500985,-6123.230164319277
1712016501025,-2196.7488329885527
1712016501065,3377.0088580613956
1712016501105,8254.535457197577
1712016501145,11014.237632039003
1712016501185,14039.486497852951
1712016501225,19678.445739950985
1712016501265,22364.661848955788
1712016501305,22925.787749374285
1712016501345,23086.129220828414
1712016501385,25448.313179966528
1712016501425,28160.00110646477
1712016501465,28771.358688918874
1712016501505,28771.358688918874
1712016501545,30082.079331940506
1712016501585,31369.53309635492
1712016501625,34625.57479944965
1712016501665,34625.57479944965
1712016501705,34625.57479944965
1712016501745,34625.57479944965
1712016501785,34625.57479944965
1712016501825,34625.57479944965
1712016501865,34625.57479944965
1712016501905,34625.57479944965
1712016501945,34625.57479944965
1712016501985,31552.637872578576
1712016502025,31156.15643105656
1712016502065,28771.358688918874
1712016502105,28156.738073311746
1712016502145,27841.328413208015
1712016502185,27408.461682745256
1712016502225,27138.313082300592
1712016502265,27128.447898872197
1712016502305,27035.293811236974
1712016502345,26573.940375419334
1712016502385,26407.84349811729
1712016502425,25655.174951336347
1712016502465,25312.5792092802
1712016502505,25127.845922082663
1712016502545,24492.309074515942
1712016502585,24351.455850277096
1712016502625,22861.921463831794
1712016502665,20276.28085815441
1712016502705,18738.98034913512
1712016502745,18013.998010387644
1712016502785,17415.73615412321
1712016502825,16959.07549631549
1712016502865,15561.230757491663
1712016502905,15282.607144735754
1712016502945,14824.774187984876
1712016502985,14432.003201958723
1712016503025,14253.947685204446
1712016503065,14050.883518442977
1712016503105,13996.585492019076
1712016503145,13974.614678990096
1712016503185,13812.766243106686
1712016503225,13665.782817886677
1712016503265,13617.22781845741
1712016503305,13124.059322634712
1712016503345,10852.503801523708
1712016503385,10812.525655287318
1712016503425,10359.492723343894
1712016503465,10313.831601015292
1712016503505,10201.233046405017
1712016503545,10201.233046405017
1712016503585,10201.233046405017
1712016503625,10201.233046405017
1712016503665,9980.808259578887
1712016503705,9965.766017407645
1712016503745,9946.464618997183
1712016503785,9829.455385118723
1712016503825,9822.143632416613
1712016503865,9680.789915181696
1712016503905,9609.42779437825
1712016503945,9283.42375984462
1712016503985,9219.49517722521
1712016504025,9109.925678909756
1712016504065,9109.925678909756
1712016504105,9219.49517722521
1712016504145,9109.925678909756
1712016504185,8206.342122179456
1712016504225,7665.962983027101
1712016504265,7638.529812087771
1712016504305,7450.265605742112
1712016504345,7192.914767192677
1712016504385,7107.139801776502
1712016504425,6912.572235465515
1712016504465,6904.806125717238
1712016504505,6638.945746702142
1712016504545,6638.945746702142
1712016504585,6160.583317212295
1712016504625,5909.156668130774
1712016504665,4938.97731411038
1712016504705,4474.463960312307
1712016504745,4122.723816046491
1712016504785,4122.723816046491
1712016504825,4122.723816046491
1712016504865,4034.4230343084782
1712016504905,3712.2678109393455
1712016504945,2802.0133918677457
1712016504985,2695.543990514707
1712016505025,1169.457066711504
1712016505065,-1694.4567798506469
1712016505105,-1694.4567798506469
1712016505145,-1743.2421450493857
1712016505185,-1743.2421450493857
1712016505225,-1743.2421450493857
1712016505265,-1743.2421450493857
1712016505305,-1743.2421450493857
1712016505345,-1743.2421450493857
1712016505385,-1743.2421450493857
1712016505425,-1743.2421450493857
1712016505465,-1743.2421450493857
1712016505505,-1694.4567798506469
1712016505545,-1662.2532537775114
1712016505585,-1531.33159701759
1712016505625,-1340.9144530985504
1712016505665,-314.3011268330738
1712016505705,109.67722130194306
1712016505745,587.6520527396351
1712016505785,692.5921570174396
1712016505825,776.843460961245
1712016505865,999.2525288295001
1712016505905,1555.073778779246
1712016505945,1555.073778779246
1712016505985,1776.2312655649148
1712016506025,1777.6979725784622
1712016506065,1834.9881453420967
1712016506105,1834.9881453420967
1712016506145,2209.336597296875
1712016506185,2310.481636033859
1712016506225,2492.9171136156656
1712016506265,3166.7975603179075
1712016506305,3166.7975603179075
1712016506345,3166.7975603179075
1712016506385,2492.9171136156656
1712016506425,2310.481636033859
1712016506465,2209.336597296875
1712016506505,2209.336597296875
1712016506545,2209.336597296875
1712016506585,2209.336597296875
1712016506625,2209.336597296875
1712016506665,2209.336597296875
1712016506705,2310.481636033859
1712016506745,2492.9171136156656
1712016506785,2492.9171136156656
1712016506825,2209.336597296875
1712016506865,2492.9171136156656
1712016506905,3396.9117922084406
1712016506945,3396.9117922084406
1712016506985,3396.9117922084406
1712016507025,2009.1899290950969
1712016507065,1720.3904616814107
1712016507105,1247.9567488050088
1712016507145,1247.9567488050088
1712016507185,1247.9567488050088
1712016507225,1720.3904616814107
1712016507265,1720.3904616814107
1712016507305,1720.3904616814107
1712016507345,2009.1899290950969
1712016507385,2391.3853861470707
1712016507425,2507.4328060373664
1712016507465,2767.2177306967787
1712016507505,3396.9117922084406
1712016507545,3030.47889449168
1712016507585,3030.47889449168
1712016507625,3396.9117922084406
1712016507665,4055.5326711572707
1712016507705,4244.9192065508105
1712016507745,4055.5326711572707
1712016507785,3030.47889449168
1712016507825,2767.2177306967787
1712016507865,2767.2177306967787
1712016507905,2767.2177306967787
1712016507945,2767.2177306967787
1712016507985,2507.4328060373664
1712016508025,2391.3853861470707
1712016508065,2391.3853861470707
1712016508105,2720.605698945932
1712016508145,3030.47889449168
1712016508185,3030.47889449168
1712016508225,2720.605698945932
1712016508265,2720.605698945932
1712016508305,2720.605698945932
1712016508345,2720.605698945932
1712016508385,2720.605698945932
1712016508425,2720.605698945932
1712016508465,2383.7361138528213
1712016508505,2158.7747035613284
1712016508545,2158.7747035613284
1712016508585,2310.0245772432536
1712016508625,2310.0245772432536
1712016508665,2310.0245772432536
1712016508705,2310.0245772432536
1712016508745,2310.0245772432536
1712016508785,2310.0245772432536
1712016508825,2383.7361138528213
1712016508865,2485.2855547675863
1712016508905,2485.2855547675863
1712016508945,2485.2855547675863
1712016508985,2485.2855547675863
1712016509025,2592.1184070776217
1712016509065,2645.729403827805
1712016509105,2592.1184070776217
1712016509145,2485.2855547675863
1712016509185,2473.374954068102
1712016509225,2310.0245772432536
1712016509265,1619.347852599807
1712016509305,1619.347852599807
1712016509345,1619.347852599807
1712016509385,1229.452223054599
1712016509425,343.27733936486766
1712016509465,211.1644114535302
1712016509505,-97.66972838807851
1712016509545,-97.66972838807851
1712016509585,343.27733936486766
1712016509625,1007.9947423953563
1712016509665,1007.9947423953563
1712016509705,1007.9947423953563
1712016509745,1007.9947423953563
1712016509785,134.73341788351536
1712016509825,-97.66972838807851
1712016509865,-343.20739308185875
1712016509905,-374.3485931074247
1712016509945,-630.7260554283857
1712016509985,-847.7622296502814
1712016510025,-918.1137968762778
1712016510065,-1274.8590065855533
1712016510105,-1288.531836219132
1712016510145,-1612.1938280523755
1712016510185,-1632.7831601165235
1712016510225,-1612.1938280523755
1712016510265,-1149.2212424534373
1712016510305,-1149.2212424534373
1712016510345,-1149.2212424534373
1712016510385,-1149.2212424534373
1712016510425,-1149.2212424534373
1712016510465,-1632.7831601165235
1712016510505,-2297.3090289551765
1712016510545,-2790.1385667244904
1712016510585,-3205.6324144471437
1712016510625,-3761.4280335106887
1712016510665,-3908.2816100269556
1712016510705,-3908.2816100269556
1712016510745,-3908.2816100269556
1712016510785,-3908.2816100269556
1712016510825,-3908.2816100269556
1712016510865,-3761.4280335106887
1712016510905,-3205.6324144471437
1712016510945,-3116.472681580577
1712016510985,-3116.472681580577
1712016511025,-3116.472681580577
1712016511065,-3116.472681580577
1712016511105,-3205.6324144471437
1712016511145,-3583.5902777826414
1712016511185,-4312.707997576334
1712016511225,-4590.3866587751545
1712016511265,-4967.195878569968
1712016511305,-5027.81961387163
1712016511345,-5075.765603519976
1712016511385,-5075.765603519976
1712016511425,-5241.324736530893
1712016511465,-5407.128878994379
1712016511505,-5415.7578813368455
1712016511545,-7329.065134854987
1712016511585,-7329.065134854987
1712016511625,-7329.065134854987
1712016511665,-7329.065134854987
1712016511705,-7329.065134854987
1712016511745,-7329.065134854987
1712016511785,-7329.065134854987
1712016511825,-7329.065134854987
1712016511865,-7329.065134854987
1712016511905,-7366.779179314151
1712016511945,-7976.108911255375
1712016511985,-7411.425551743712
1712016512025,-7411.425551743712
1712016512065,-7366.779179314151
1712016512105,-7329.065134854987
1712016512145,-6808.32757581491
1712016512185,-6455.811058038846
1712016512225,-6330.564480726607
1712016512265,-6120.9346134969965
1712016512306,-6014.993162475526
1712016512395,-5846.440627101809
1712016512435,-4601.767926924862
1712016512475,-4099.4362855432555
1712016512515,-4099.4362855432555
1712016512556,-4099.4362855432555
1712016512596,-4305.821144464891
1712016512636,-4601.767926924862
1712016512676,-6014.993162475526
1712016512716,-6120.9346134969965
1712016512757,-6120.9346134969965
1712016512796,-6120.9346134969965
1712016512837,-6120.9346134969965
1712016512877,-6120.9346134969965
1712016512917,-6120.9346134969965
1712016512958,-6120.9346134969965
1712016512997,-6120.9346134969965
1712016513037,-5186.708834668621
1712016513077,-4601.767926924862
1712016513117,-4305.821144464891
1712016513158,-4305.821144464891
1712016513197,-4305.821144464891
1712016513237,-4305.821144464891
1712016513278,-4305.821144464891
1712016513318,-4305.821144464891
1712016513358,-4382.379178562202
1712016513398,-4981.064332881477
1712016513438,-5186.708834668621
1712016513478,-4981.064332881477
1712016513518,-4747.447070441674
1712016513559,-4747.447070441674
1712016513598,-4711.896292728372
1712016513638,-4401.123489605263
1712016513679,-4382.379178562202
1712016513719,-3690.9075309196487
1712016513760,-3615.2903808625415
1712016513799,-3547.1403382839635
1712016513839,-2733.4334339294583
1712016513879,-1286.7009602724575
1712016513919,-985.6185482004657
1712016513960,-985.6185482004657
1712016514000,-985.6185482004657
1712016514040,-1797.8470094897784
1712016514080,-2733.4334339294583
1712016514120,-3615.2903808625415
1712016514161,-3615.2903808625415
1712016514200,-3615.2903808625415
1712016514240,-3615.2903808625415
1712016514280,-2733.4334339294583
1712016514320,-2695.4082552855834
1712016514361,-1797.8470094897784
1712016514401,-1797.8470094897784
1712016514441,-1553.6426994651556
1712016514481,-992.3405218534172
1712016514521,-990.2630002317019
1712016514562,-990.2630002317019
1712016514601,-990.2630002317019
1712016514641,-990.2630002317019
1712016514681,-990.2630002317019
1712016514722,-990.2630002317019
1712016514762,-990.2630002317019
1712016514802,-992.3405218534172
1712016514842,-1553.6426994651556
1712016514882,-1553.6426994651556
1712016514922,-1553.6426994651556
1712016514963,-1553.6426994651556
1712016515002,-1167.223560567014
1712016515042,-1080.8114864602685
1712016515082,-1080.8114864602685
1712016515123,-992.3405218534172
1712016515163,-990.2630002317019
1712016515203,-68.21143610216677
1712016515243,29.221145547926426
1712016515283,302.3015242861584
1712016515323,438.09841403970495
1712016515364,438.09841403970495
1712016515403,438.09841403970495
1712016515443,438.09841403970495
1712016515484,438.09841403970495
1712016515524,508.22353600524366
1712016515565,1555.8289668182842
1712016515604,1555.8289668182842
1712016515644,1555.8289668182842
1712016515684,1836.0693392064422
1712016515724,2216.17425396014
1712016515765,2216.17425396014
1712016515805,2216.17425396014
1712016515845,2216.17425396014
1712016515885,2216.17425396014
1712016515925,2226.1265005329624
1712016515966,2804.9824715955183
1712016516005,4023.3293261816725
1712016516045,4117.401373681147
1712016516085,5044.188472806476
1712016516126,5298.240632977337
1712016516166,5298.240632977337
1712016516206,4117.401373681147
1712016516246,3123.1806204067543
1712016516286,3092.8945286991075
1712016516326,2226.1265005329624
1712016516367,2216.17425396014
1712016516406,2214.11178935878
1712016516446,2214.11178935878
1712016516487,2214.11178935878
1712016516527,2226.1265005329624
1712016516568,2389.6358261085115
1712016516607,3046.664509300608
1712016516647,3092.8945286991075
1712016516688,3123.1806204067543
1712016516728,3377.7580996295437
1712016516769,3377.7580996295437
1712016516808,3377.7580996295437
1712016516849,3377.7580996295437
1712016516889,3123.1806204067543
1712016516929,3092.8945286991075
1712016516970,3046.664509300608
1712016517010,2389.6358261085115
1712016517050,1961.8024586513638
1712016517091,1553.7543086307123
1712016517131,1531.1759720328264
1712016517172,1553.7543086307123
1712016517211,1995.0596431260929
1712016517251,2389.6358261085115
1712016517292,2788.078761591576
1712016517332,3046.664509300608
1712016517373,3212.7499514864758
1712016517412,3352.5806738925166
1712016517452,3352.5806738925166
1712016517493,3352.5806738925166
1712016517533,3352.5806738925166
1712016517574,3212.7499514864758
1712016517613,2788.078761591576
1712016517653,2201.7304368154146
1712016517693,2084.232450408861
1712016517734,2084.232450408861
1712016517775,2084.232450408861
1712016517814,2084.232450408861
1712016517854,2084.232450408861
1712016517895,2084.232450408861
1712016517935,2201.7304368154146
1712016517976,2243.0284140883014
1712016518015,2788.078761591576
1712016518055,3212.7499514864758
1712016518095,3212.7499514864758
1712016518136,3212.7499514864758
1712016518177,2449.888048109133
1712016518216,2243.0284140883014
1712016518257,2201.7304368154146
1712016518297,2084.232450408861
1712016518337,1906.2038152860478
1712016518378,1825.8224871126004
1712016518418,1721.3789700507186
1712016518458,1698.5389523245394
1712016518498,1698.5389523245394
1712016518538,1667.9605172211304
1712016518579,1424.5985926138237
1712016518619,1063.049041398801
1712016518659,1424.5985926138237
1712016518699,1424.5985926138237
1712016518740,1424.5985926138237
1712016518781,1424.5985926138237
1712016518820,1424.5985926138237
1712016518861,1424.5985926138237
1712016518901,1063.049041398801
1712016518941,519.9484037617221
1712016518982,388.57722645252943
1712016519021,253.18330929987133
1712016519062,253.18330929987133
1712016519102,253.18330929987133
1712016519142,437.67589579196647
1712016519183,519.9484037617221
1712016519223,697.3370282109827
1712016519263,1035.3320351010188
1712016519303,1063.049041398801
1712016519344,1288.0750061366707
1712016519384,2014.895420779474
1712016519424,2143.954462209251
1712016519464,2351.8509480226785
1712016519504,3013.921793207526
1712016519545,3190.1862373426557
1712016519586,3290.2651571654715
1712016519625,3290.2651571654715
1712016519666,3646.0504192886874
1712016519706,4629.0099547063
1712016519746,4943.360450740904
1712016519787,5109.440112884622
1712016519827,5179.357608744409
1712016519867,5183.252780628391
1712016519907,5535.261628156062
1712016519947,5691.5079773333855
1712016519988,6679.281236410141
1712016520028,6703.928864937741
1712016520068,6814.362384060863
1712016520108,6814.362384060863
1712016520148,6814.362384060863
1712016520190,6814.362384060863
1712016520229,6814.362384060863
1712016520269,6703.928864937741
1712016520309,5761.514610978309
1712016520349,5761.514610978309
1712016520390,6226.788820339367
1712016520430,6226.788820339367
1712016520470,6703.928864937741
1712016520510,6814.362384060863
1712016520550,6814.362384060863
1712016520591,7000.12525076326
1712016520631,7000.12525076326
1712016520671,6714.03939611651
1712016520711,6556.124052914791
1712016520751,6226.788820339367
1712016520792,5947.465637341142
1712016520831,5938.414192125201
1712016520872,5761.514610978309
1712016520912,5577.811195367016
1712016520952,5577.811195367016
1712016520993,5577.811195367016
1712016521032,5567.406390199438
1712016521072,5567.406390199438
1712016521113,5577.811195367016
1712016521153,5678.814693556167
1712016521194,5938.414192125201
1712016521233,5938.414192125201
1712016521273,5947.465637341142
1712016521313,5947.465637341142
1712016521354,5946.013101425488
1712016521395,5678.814693556167
1712016521434,5673.8395032160915
1712016521474,5289.729413393885
1712016521515,5289.729413393885
1712016521555,5289.729413393885
1712016521596,5554.763911515474
1712016521635,5588.850733463652
1712016521675,5673.8395032160915
1712016521716,5678.814693556167
1712016521756,5750.173650091048
1712016521797,5763.900681377854
1712016521837,5784.453294449486
1712016521877,5946.013101425488
1712016521917,6038.001632919535
1712016521957,6038.001632919535
1712016521998,5946.013101425488
1712016522038,5784.453294449486
1712016522078,5763.900681377854
1712016522118,5750.173650091048
1712016522158,5673.8395032160915
1712016522201,5588.850733463652
1712016522241,5572.516253894195
1712016522281,5572.516253894195
1712016522321,5572.516253894195
1712016522361,5572.516253894195
1712016522402,5476.472610914148
1712016522442,5476.472610914148
1712016522482,5476.472610914148
1712016522522,5476.472610914148
1712016522563,5290.262261125259
1712016522604,4721.895106413402
1712016522643,4636.38263946306
1712016522683,4485.493946278468
1712016522724,4485.39796719607
1712016522764,4446.962781729177
1712016522805,4384.791431677062
1712016522844,4314.875430659391
1712016522885,4314.875430659391
1712016522925,4314.875430659391
1712016522965,4233.562180433888
1712016523006,4077.15837849956
1712016523046,3147.516537294723
1712016523086,3147.516537294723
1712016523126,3147.516537294723
1712016523166,3147.516537294723
1712016523208,3147.516537294723
1712016523248,3147.516537294723
1712016523288,2583.473724490963
1712016523328,2563.4058980653062
1712016523368,2504.9193436605856
1712016523409,2434.9203979801387
1712016523449,2320.609113219194
1712016523489,2320.609113219194
1712016523529,2434.9203979801387
1712016523569,2504.9193436605856
1712016523610,2563.4058980653062
1712016523650,2856.844873941969
1712016523690,3067.703208436724
1712016523730,3147.516537294723
1712016523770,3255.6933640413918
1712016523811,3369.9989638654515
1712016523850,3515.8380028726533
1712016523891,3870.6021359544247
1712016523931,3515.8380028726533
1712016523971,3482.424517435953
1712016524012,3413.386298344005
1712016524051,3369.9989638654515
1712016524091,3255.6933640413918
1712016524132,3255.6933640413918
1712016524172,3255.6933640413918
1712016524213,3255.6933640413918
1712016524252,3255.6933640413918
1712016524292,3255.6933640413918
1712016524332,3255.6933640413918
1712016524373,3255.6933640413918
1712016524414,3369.9989638654515
1712016524449,3413.386298344005
1712016524489,3413.386298344005
1712016524529,3253.143016502261
1712016524569,3097.0571929933503
1712016524610,3004.6964666089043
1712016524649,2991.355790639296
1712016524689,2861.847832137253
1712016524730,2709.990542227868
1712016524770,2651.344873820897
1712016524810,2163.98173566442
1712016524850,1787.5692744823173
1712016524890,1749.8553017498925
1712016524930,1476.2069745254703
1712016524970,1195.5380845260806
1712016525011,1023.78868438676
1712016525050,1023.78868438676
1712016525090,1023.78868438676
1712016525131,1023.78868438676
1712016525171,791.3071909360588
1712016525212,734.2898856727406
1712016525251,592.0130896633491
1712016525291,554.1778860422783
1712016525331,542.2538431030698
1712016525371,145.8858702145517
1712016525412,138.3466966515407
1712016525451,109.53803919441998
1712016525492,-27.798431608825922
1712016525532,-80.7433910779655
1712016525572,-94.54518720507622
1712016525613,-94.54518720507622
1712016525652,-80.7433910779655
1712016525692,-27.798431608825922
1712016525732,58.46576836518943
1712016525772,138.3466966515407
1712016525813,138.3466966515407
1712016525852,145.8858702145517
1712016525892,58.46576836518943
1712016525933,-27.798431608825922
1712016525973,-104.66354780830443
1712016526013,-332.7331599490717
1712016526053,-333.0933415237814
1712016526093,-333.0933415237814
1712016526133,-333.0933415237814
1712016526173,-332.7331599490717
1712016526214,-261.65449083968997
1712016526253,-104.66354780830443
1712016526293,-27.798431608825922
1712016526334,58.46576836518943
1712016526374,366.7678203606047
1712016526415,514.7078358493745
1712016526454,778.5195822897367
1712016526494,778.5195822897367
1712016526534,514.7078358493745
1712016526574,366.7678203606047
1712016526615,-261.65449083968997
1712016526654,-451.3577844663523
1712016526695,-809.3344417875633
1712016526735,-809.3344417875633
1712016526775,-809.3344417875633
1712016526816,-809.3344417875633
1712016526855,-451.3577844663523
1712016526895,-451.3577844663523
1712016526935,-451.3577844663523
1712016526975,-809.3344417875633
1712016527016,-1324.7826910028234
1712016527056,-1414.1820657020435
1712016527095,-1414.1820657020435
1712016527136,-1414.1820657020435
1712016527176,-1414.1820657020435
1712016527217,-1428.007629695814
1712016527256,-1445.6141719319858
1712016527296,-2024.3291667895392
1712016527336,-2024.3291667895392
1712016527376,-2024.3291667895392
1712016527417,-2024.3291667895392
1712016527457,-2024.3291667895392
1712016527497,-2024.3291667895392
1712016527537,-2024.3291667895392
1712016527577,-1504.8158578136936
1712016527618,-1414.1820657020435
1712016527657,-1324.7826910028234
1712016527697,-1324.7826910028234
1712016527738,-761.787546498701
1712016527778,518.1166705852374
1712016527818,1351.0923174768686
1712016527858,1486.9602061789483
1712016527898,1495.7693929160014
1712016527938,1646.447201560717
1712016527978,1646.447201560717
1712016528019,1800.3400431303307
1712016528059,1870.8568555442616
1712016528099,2020.1516930479556
1712016528139,2020.1516930479556
1712016528179,2020.1516930479556
1712016528220,2020.1516930479556
1712016528259,2199.4334123916924
1712016528299,2358.9767135307193
1712016528340,2507.0843133935705
1712016528380,2606.7394602121785
1712016528420,2710.536376416683
1712016528460,2710.536376416683
1712016528500,2710.536376416683
1712016528540,2838.7365936720744
1712016528580,3088.6270482381806
1712016528621,3435.7859889212996
1712016528661,3088.6270482381806
1712016528701,2838.7365936720744
1712016528741,3088.6270482381806
1712016528781,3124.2832047324628
1712016528822,3435.7859889212996
1712016528861,3435.7859889212996
1712016528902,3124.2832047324628
1712016528942,3124.2832047324628
1712016528982,3662.9942854112014
1712016529023,3956.319517062977
1712016529062,4010.771872184705
1712016529102,4158.864876315463
1712016529142,4158.864876315463
1712016529182,4158.864876315463
1712016529223,4158.864876315463
1712016529263,4245.036863293964
1712016529303,4245.036863293964
1712016529343,4158.864876315463
1712016529383,4010.771872184705
1712016529424,3673.067392027937
1712016529463,3673.067392027937
1712016529503,3673.067392027937
1712016529543,3673.067392027937
1712016529584,3673.067392027937
1712016529624,2975.866305485368
1712016529664,2913.0007637073286
1712016529704,2700.9823939232156
1712016529744,2080.6932524992153
1712016529784,1097.9934479240328
1712016529825,-444.8300499864854
1712016529864,-723.3001632760279
1712016529904,-797.8074702825397
1712016529944,-6098.9875780721195
1712016529984,-6520.7802515211515
1712016530025,-10843.695453741122
1712016530065,-17587.867980943993
1712016530105,-23935.008621963672
1712016530145,-28889.978435025085
1712016530185,-32445.98274065461
1712016530226,-43133.91242721351
1712016530265,-52534.73114615679
1712016530306,-60211.41537437169
1712016530346,-68381.50541626848
1712016530386,-82329.50162265869
1712016530427,-96037.03140457487
1712016530468,-103449.05923658144
1712016530508,-109852.25157673191
1712016530548,-113837.64591661375
1712016530589,-113837.64591661375
1712016530629,-113837.64591661375
1712016530669,-113837.64591661375
1712016530709,-113837.64591661375
1712016530749,-113837.64591661375
1712016530790,-113837.64591661375
1712016530831,-113837.64591661375
1712016530870,-113837.64591661375
1712016530910,-113837.64591661375
1712016530950,-113837.64591661375
1712016530991,-100487.71712730546
1712016531032,-85376.69484619983
1712016531071,-67042.36628837883
1712016531111,-48292.10108983796
1712016531152,-36046.20608447958
1712016531192,-26367.602656777017
1712016531233,-19173.602538513485
1712016531273,-17697.317198301665
1712016531313,-16546.182946794666
1712016531353,-16304.647365707904
1712016531393,-15124.693198760971
1712016531434,-13936.967700311914
1712016531474,-12985.657818847336
1712016531517,-12427.997268540785
1712016531554,-11177.046813243534
1712016531595,-9618.498322395142
1712016531636,-8650.175699160434
1712016531675,-6638.749400244094
1712016531716,-2185.526062649209
1712016531756,2511.194245752413
1712016531796,10444.10767261777
1712016531837,12167.71898631705
1712016531877,17013.72473668307
1712016531917,17013.72473668307
1712016531957,17013.72473668307
1712016531997,17013.72473668307
1712016532038,17013.72473668307
1712016532078,17013.72473668307
1712016532118,17013.72473668307
1712016532158,17013.72473668307
1712016532198,17013.72473668307
1712016532240,17013.72473668307
1712016532279,17013.72473668307
1712016532319,11050.383935354184
1712016532360,11050.383935354184
1712016532400,11050.383935354184
1712016532441,11050.383935354184
1712016532480,11050.383935354184
1712016532520,11050.383935354184
1712016532561,11050.383935354184
1712016532601,11050.383935354184
1712016532642,11050.383935354184
1712016532681,11050.383935354184
1712016532722,11050.383935354184
1712016532762,16527.90394877689
1712016532802,18996.24567154888
1712016532843,19905.83132494567
1712016532883,20845.745467758738
1712016532923,21573.620483591687
1712016532964,24464.38172236178
1712016533004,24464.38172236178
1712016533045,24464.38172236178
1712016533084,24464.38172236178
1712016533124,24464.38172236178
1712016533164,24464.38172236178
1712016533204,24464.38172236178
1712016533245,24464.38172236178
1712016533285,24464.38172236178
1712016533325,24464.38172236178
1712016533365,20845.745467758738
1712016533405,20845.745467758738
1712016533446,20845.745467758738
1712016533485,20845.745467758738
1712016533526,20778.991142642684
1712016533566,20428.362979294732
1712016533606,20066.716411312576
1712016533647,19270.480285036378
1712016533687,19148.139110221528
1712016533729,19141.595908206422
1712016533767,17414.091584506445
1712016533807,16653.71699216403
1712016533848,16558.807481371798
1712016533887,16558.807481371798
1712016533928,16558.807481371798
1712016533968,16558.807481371798
1712016534008,14411.637910934165
1712016534049,14411.637910934165
1712016534088,14411.637910934165
1712016534128,14411.637910934165
1712016534169,14411.637910934165
1712016534209,14411.637910934165
1712016534250,14411.637910934165
1712016534289,14233.471757881809
1712016534329,14021.556580693927
1712016534370,13997.188386267982
1712016534410,13567.910480313934
1712016534451,13567.910480313934
1712016534490,13567.910480313934
1712016534531,13567.910480313934
1712016534571,13567.910480313934
1712016534611,12619.026950346306
1712016534653,12619.026950346306
1712016534692,13096.081398145296
1712016534732,13432.259012867697
1712016534773,13997.188386267982
1712016534813,14021.556580693927
1712016534854,14021.556580693927
1712016534894,14021.556580693927
1712016534934,13432.259012867697
1712016534974,13096.081398145296
1712016535014,12619.026950346306
1712016535055,12326.834633164108
1712016535095,12055.086584636942
1712016535135,11430.004962930456
1712016535175,11306.968298359774
1712016535216,11306.968298359774
1712016535257,11306.968298359774
1712016535296,11306.968298359774
1712016535336,11306.968298359774
1712016535377,10909.798818675801
1712016535417,10909.798818675801
1712016535458,10909.798818675801
1712016535497,10909.798818675801
1712016535537,10909.798818675801
1712016535578,10671.087988786865
1712016535618,9878.41038524732
1712016535659,9175.976968858391
1712016535699,8756.94248818839
1712016535739,8748.948657394387
1712016535779,8346.20021264162
1712016535819,8187.798941345885
1712016535860,8101.999188500922
1712016535900,8101.999188500922
1712016535943,8101.999188500922
1712016535981,7734.318650093861
1712016536021,8101.999188500922
1712016536062,8346.20021264162
1712016536101,8644.632628650405
1712016536141,8644.632628650405
1712016536182,8644.632628650405
1712016536222,8644.632628650405
1712016536263,8346.20021264162
1712016536302,7734.318650093861
1712016536343,7673.560016316362
1712016536383,7283.89476815844
1712016536423,7189.819735350087
1712016536464,7189.819735350087
1712016536507,7210.470534907654
1712016536547,7283.89476815844
1712016536588,7361.591526340228
1712016536628,7673.560016316362
1712016536668,7734.318650093861
1712016536708,7769.1015606969595
1712016536748,7834.362993185408
1712016536788,8223.276628968306
1712016536828,8255.342647682875
1712016536869,8255.342647682875
1712016536908,8255.342647682875
1712016536948,8223.276628968306
1712016536988,7834.362993185408
1712016537029,7769.1015606969595
1712016537069,7673.560016316362
1712016537109,7361.591526340228
1712016537149,7361.591526340228
1712016537189,7361.591526340228
1712016537229,7361.591526340228
1712016537270,7361.591526340228
1712016537309,7361.591526340228
1712016537349,6635.752289320342
1712016537389,5670.950306721032
1712016537429,5670.950306721032
1712016537470,5670.950306721032
1712016537510,5670.950306721032
1712016537550,5670.950306721032
1712016537590,5670.950306721032
1712016537630,5670.950306721032
1712016537671,5543.175885504112
1712016537710,5170.325755777769
1712016537750,4917.258091940079
1712016537790,4917.258091940079
1712016537830,5053.319069162477
1712016537871,5170.325755777769
1712016537911,5218.640322660096
1712016537951,5253.619933368638
1712016537991,5473.312090102583
1712016538031,5543.175885504112
1712016538071,5619.801985456608
1712016538111,5670.950306721032
1712016538151,5741.078198777512
1712016538191,6155.128735567443
1712016538231,6597.124446912669
1712016538272,6597.124446912669
1712016538311,6155.128735567443
1712016538351,5741.078198777512
1712016538392,5619.801985456608
1712016538432,5500.219064025674
1712016538472,5473.312090102583
1712016538512,5473.312090102583
1712016538552,5473.312090102583
1712016538592,5473.312090102583
1712016538632,5473.312090102583
1712016538673,5473.312090102583
1712016538712,5253.619933368638
1712016538753,4829.0985429883
1712016538792,4767.1024008356035
1712016538833,4767.1024008356035
1712016538874,4767.1024008356035
1712016538913,4673.7217416269705
1712016538953,4636.420241261832
1712016538993,4216.899112762883
1712016539033,4212.303649102338
1712016539074,4207.06213871669
1712016539113,4130.166658058763
1712016539153,4005.2513560089283
1712016539193,3955.6910797609016
1712016539234,3955.6910797609016
1712016539274,3831.5052114711143
1712016539314,3800.5019730217755
1712016539354,3800.5019730217755
1712016539394,3675.974352044519
1712016539434,3675.974352044519
1712016539475,3675.974352044519
1712016539514,3675.974352044519
1712016539554,3675.974352044519
1712016539595,3675.974352044519
1712016539635,3474.910356167704
1712016539675,3335.4021139875986
1712016539715,3326.7893005581573
1712016539755,2786.905569332652
1712016539795,2786.905569332652
1712016539835,3326.7893005581573
1712016539876,3395.1942667844705
1712016539915,3395.1942667844705
1712016539955,3474.910356167704
1712016539995,3543.9856717465445
1712016540035,3675.974352044519
1712016540076,3768.6349031152204
1712016540116,4052.3548083258793
1712016540156,4057.9705412704498
1712016540196,4057.9705412704498
1712016540236,4581.127910105512
1712016540277,4057.9705412704498
1712016540316,4052.3548083258793
1712016540356,3768.6349031152204
1712016540396,3768.6349031152204
1712016540437,3768.6349031152204
1712016540477,3798.712580239866
1712016540517,3798.712580239866
1712016540557,3798.712580239866
1712016540597,3798.712580239866
1712016540637,3798.712580239866
1712016540678,3881.3579694395885
1712016540717,3901.7852294556797
1712016540757,4057.9705412704498
1712016540798,4254.641255973838
1712016540838,4254.641255973838
1712016540878,3901.7852294556797
1712016540918,3881.3579694395885
1712016540958,3798.712580239866
1712016540998,3772.925231166184
1712016541038,3588.1818198980764
1712016541079,3548.273095036857
1712016541118,3437.0013227672316
1712016541158,3360.456723409239
1712016541198,3265.5705938735045
1712016541239,3251.7386715528555
1712016541280,2866.1443872898817
1712016541319,1754.4885065359995
1712016541359,1743.0488354768604
1712016541399,1743.0488354768604
1712016541439,1743.0488354768604
1712016541480,1743.0488354768604
1712016541519,1743.0488354768604
1712016541559,1730.5512356385589
1712016541599,1589.7129766540602
1712016541640,1509.5166095704772
1712016541680,1435.0072094625793
1712016541720,1422.7967307874933
1712016541760,1422.7967307874933
1712016541800,1435.0072094625793
1712016541840,1509.5166095704772
1712016541881,1589.7129766540602
1712016541920,1589.7129766540602
1712016541960,1743.0488354768604
1712016542001,1787.9787601665594
1712016542041,2030.0066524026915
1712016542081,2170.328601073008
1712016542121,2189.473389143124
1712016542161,2189.473389143124
1712016542201,2189.473389143124
1712016542241,2170.328601073008
1712016542282,2030.0066524026915
1712016542321,1787.9787601665594
1712016542361,1583.5650215111673
1712016542401,1583.5650215111673
1712016542441,1583.5650215111673
1712016542482,1583.5650215111673
1712016542522,1583.5650215111673
1712016542562,1583.5650215111673
1712016542602,1583.5650215111673
1712016542642,1583.5650215111673
1712016542683,1583.5650215111673
1712016542722,1583.5650215111673
1712016542762,1459.9582539801486
1712016542802,1374.0842127115466
1712016542842,1282.1169024277478
1712016542883,1278.138203161303
1712016542923,1045.01911215391
1712016542963,979.3166525391862
1712016543003,958.0687115043402
1712016543043,936.0555685060099
1712016543084,936.0555685060099
1712016543123,936.0555685060099
1712016543163,627.0290413238108
1712016543204,335.9327599545941
1712016543243,335.9327599545941
1712016543284,335.9327599545941
1712016543324,335.9327599545941
1712016543364,335.9327599545941
1712016543404,335.9327599545941
1712016543444,-411.015854019206
1712016543485,-435.44648345187306
1712016543524,-935.8043661001138
1712016543565,-1021.1901755407453
1712016543605,-1044.5344487344846
1712016543645,-1156.118878471665
1712016543686,-1279.1494415588677
1712016543725,-1279.1494415588677
1712016543765,-1279.1494415588677
1712016543805,-1362.1079670558684
1712016543845,-1156.118878471665
1712016543886,-1110.834629714489
1712016543926,-1021.1901755407453
1712016543966,-935.8043661001138
1712016544006,-935.8043661001138
1712016544046,-935.8043661001138
1712016544086,-935.8043661001138
1712016544126,-1110.834629714489
1712016544166,-1630.6779850660823
1712016544206,-1854.1640161587857
1712016544246,-1874.517794540152
1712016544287,-2163.331099804025
1712016544326,-2163.331099804025
1712016544366,-2163.331099804025
1712016544406,-2163.331099804025
1712016544446,-2287.7741566309705
1712016544487,-2287.7741566309705
1712016544527,-2596.04448840674
1712016544567,-2596.04448840674
1712016544607,-2596.04448840674
1712016544647,-2596.04448840674
1712016544687,-2596.04448840674
1712016544727,-2596.04448840674
1712016544767,-2658.4267047252506
1712016544807,-2957.615430138074
1712016544847,-2963.281000273302
1712016544888,-3165.994973591063
1712016544927,-3604.530288832262
1712016544967,-3620.3538468228653
1712016545007,-3620.3538468228653
1712016545047,-3620.3538468228653
1712016545088,-3620.3538468228653
1712016545128,-3620.3538468228653
1712016545168,-3620.3538468228653
1712016545208,-3011.911383692175
1712016545248,-2957.615430138074
1712016545289,-2749.7136484403163
1712016545328,-2658.4267047252506
1712016545368,-2658.4267047252506
1712016545408,-2658.4267047252506
1712016545448,-2658.4267047252506
1712016545489,-2749.7136484403163
1712016545528,-3011.911383692175
1712016545568,-3039.275960525498
1712016545609,-3987.8656958527863
1712016545649,-3147.7361473580822
1712016545689,-3147.7361473580822
1712016545729,-3147.7361473580822
1712016545769,-3147.7361473580822
1712016545809,-3147.7361473580822
1712016545849,-3039.275960525498
1712016545890,-3011.911383692175
1712016545929,-2799.3441447531804
1712016545969,-2749.7136484403163
1712016546009,-2190.023731568828
1712016546049,-2190.023731568828
1712016546090,-2190.023731568828
1712016546130,-2190.023731568828
1712016546170,-2799.3441447531804
1712016546210,-3039.275960525498
1712016546250,-3147.7361473580822
1712016546291,-3707.00411487557
1712016546330,-3733.3319289521314
1712016546370,-3733.3319289521314
1712016546410,-3733.3319289521314
1712016546450,-3733.3319289521314
1712016546491,-3860.876226510387
1712016546530,-3860.876226510387
1712016546571,-3733.3319289521314
1712016546611,-3493.299630779773
1712016546651,-2799.3441447531804
1712016546692,-2643.2564210491255
1712016546731,-2643.2564210491255
1712016546771,-2643.2564210491255
1712016546811,-2643.2564210491255
1712016546851,-2643.2564210491255
1712016546892,-3493.299630779773
1712016546932,-4704.7815282940865
1712016546972,-4776.118502889294
1712016547012,-4810.964791163802
1712016547052,-4810.964791163802
1712016547092,-4776.118502889294
1712016547132,-4586.666799147148
1712016547172,-4151.552031442523
1712016547212,-3718.107516101096
1712016547252,-3493.299630779773
1712016547293,-3147.9568207059056
1712016547332,-2643.2564210491255
1712016547372,-2290.6383026698604
1712016547413,-2228.1482858890668
1712016547453,-1617.3351834714413
1712016547493,-1617.3351834714413
1712016547533,-1617.3351834714413
1712016547573,-1617.3351834714413
1712016547613,-2165.2478904156014
1712016547653,-2290.6383026698604
1712016547694,-3147.9568207059056
1712016547733,-3147.9568207059056
1712016547773,-3147.9568207059056
1712016547813,-3147.9568207059056
1712016547853,-3147.9568207059056
1712016547894,-3147.9568207059056
1712016547934,-3147.9568207059056
1712016547974,-3147.9568207059056
1712016548014,-2290.6383026698604
1712016548054,-2165.2478904156014
1712016548095,-1580.3524604821578
1712016548134,-1580.3524604821578
1712016548174,-1580.3524604821578
1712016548214,-1580.3524604821578
1712016548255,-1580.3524604821578
1712016548295,-1580.3524604821578
1712016548335,-1580.3524604821578
1712016548375,-2165.2478904156014
1712016548415,-2943.959187381901
1712016548455,-3308.560903882142
1712016548496,-3308.560903882142
1712016548533,-3308.560903882142
1712016548573,-3308.560903882142
1712016548614,-3308.560903882142
1712016548654,-3308.560903882142
1712016548694,-3308.560903882142
1712016548734,-3173.514828953892
1712016548774,-2943.959187381901
1712016548814,-1985.1797484555282
1712016548854,-1985.1797484555282
1712016548895,-1985.1797484555282
1712016548934,-1985.1797484555282
1712016548975,-1985.1797484555282
1712016549014,-1985.1797484555282
1712016549055,-1985.1797484555282
1712016549096,-1985.1797484555282
1712016549135,-1985.1797484555282
1712016549175,-2943.959187381901
1712016549215,-3173.514828953892
1712016549255,-3173.514828953892
1712016549296,-3047.073024132289
1712016549336,-2947.673826798331
1712016549375,-2528.3145222626626
1712016549416,-1985.1797484555282
1712016549456,-1767.079709767364
1712016549497,-1503.0768654141575
1712016549536,-1324.4062937078997
1712016549576,-1108.3285312764347
1712016549616,-1018.2149836178869
1712016549656,-491.4305046470836
1712016549697,-173.58715139422566
1712016549736,-173.58715139422566
1712016549777,-173.58715139422566
1712016549817,-173.58715139422566
1712016549857,-173.58715139422566
1712016549898,-173.58715139422566
1712016549937,-1018.2149836178869
1712016549977,-1018.2149836178869
1712016550017,-1018.2149836178869
1712016550057,-1018.2149836178869
1712016550098,-1018.2149836178869
1712016550138,-1018.2149836178869
1712016550178,-1018.2149836178869
1712016550218,-1018.2149836178869
1712016550258,-1018.2149836178869
1712016550299,-618.9899894064292
1712016550338,-173.58715139422566
1712016550378,359.19292107690126
1712016550418,359.19292107690126
1712016550458,359.19292107690126
1712016550499,359.19292107690126
1712016550539,359.19292107690126
1712016550579,359.19292107690126
1712016550619,359.19292107690126
1712016550659,359.19292107690126
1712016550700,-618.9899894064292
1712016550739,-1478.719377852045
1712016550779,-1478.719377852045
1712016550819,-1478.719377852045
1712016550859,-1478.719377852045
1712016550900,-1478.719377852045
1712016550940,-1478.719377852045
1712016550980,-1478.719377852045
1712016551020,-618.9899894064292
1712016551060,-303.7678933860734
1712016551101,1029.470174186863
1712016551140,1030.1477453168482
1712016551180,1030.1477453168482
1712016551221,1030.1477453168482
1712016551261,1030.1477453168482
1712016551301,1030.1477453168482
1712016551341,1030.1477453168482
1712016551381,1030.1477453168482
1712016551421,1030.1477453168482
1712016551461,1029.470174186863
1712016551502,124.54396578948945
1712016551541,124.54396578948945
1712016551581,124.54396578948945
1712016551622,124.54396578948945
1712016551662,124.54396578948945
1712016551703,124.54396578948945
1712016551742,124.54396578948945
1712016551782,124.54396578948945
1712016551822,124.54396578948945
1712016551862,124.54396578948945
1712016551903,124.54396578948945
1712016551942,124.54396578948945
1712016551983,124.54396578948945
1712016552023,124.54396578948945
1712016552063,124.54396578948945
1712016552104,124.54396578948945
1712016552143,120.63558006240055
1712016552183,-578.6818678546697
1712016552223,-765.6743163298815
1712016552263,-1113.484203658998
1712016552304,-1402.8024027612992
1712016552343,-1600.1186595880426
1712016552383,-1600.1186595880426
1712016552423,-1600.1186595880426
1712016552464,-1600.1186595880426
1712016552504,-1600.1186595880426
1712016552544,-1600.1186595880426
1712016552584,-1600.1186595880426
1712016552624,-1600.1186595880426
1712016552664,-1600.1186595880426
1712016552705,-1600.1186595880426
1712016552744,-1600.1186595880426
1712016552784,-1600.1186595880426
1712016552824,-1600.1186595880426
1712016552864,-1600.1186595880426
1712016552905,-1646.0679109236225
1712016552945,-2238.692057025619
1712016552984,-2933.6798674399033
1712016553025,-2933.6798674399033
1712016553065,-2421.122632715851
1712016553105,-2238.692057025619
1712016553145,-2238.692057025619
1712016553185,-2176.155909076333
1712016553225,-1885.5878751906566
1712016553265,-1686.4094334067777
1712016553306,-1646.0679109236225
1712016553345,-1225.3431034237146
1712016553385,-1138.4754484258592
1712016553426,-476.0312477420084
1712016553466,177.00095967762172
1712016553506,569.3375750454143
1712016553546,598.6781334038824
1712016553586,598.6781334038824
1712016553626,598.6781334038824
1712016553666,582.6472806744277
1712016553707,-1225.3431034237146
1712016553746,-1225.3431034237146
1712016553786,335.7939710589126
1712016553826,335.7939710589126
1712016553866,335.7939710589126
1712016553907,335.7939710589126
1712016553946,335.7939710589126
1712016553986,582.6472806744277
1712016554026,598.6781334038824
1712016554066,846.7935118786991
1712016554107,1136.5892697745003
1712016554147,2049.9066718174145
1712016554187,2314.722805290483
1712016554227,2314.722805290483
1712016554267,2314.722805290483
1712016554308,2314.722805290483
1712016554347,2314.722805290483
1712016554387,2049.9066718174145
1712016554427,846.7935118786991
1712016554467,582.6472806744277
1712016554508,335.7939710589126
1712016554548,335.7939710589126
1712016554588,335.7939710589126
1712016554628,284.92656274698675
1712016554668,100.49699713569134
1712016554709,100.49699713569134
1712016554749,688.3078569294885
1712016554789,846.7935118786991
1712016554829,1605.575060811825
1712016554870,977.5218075891025
1712016554910,859.7510935328901
1712016554950,859.7510935328901
1712016554990,859.7510935328901
1712016555030,859.7510935328901
1712016555071,688.3078569294885
1712016555112,572.0642057862133
1712016555151,100.49699713569134
1712016555191,-4.6095083663240075
1712016555232,-617.8340762839653
1712016555272,-617.8340762839653
1712016555313,-617.8340762839653
1712016555353,-617.8340762839653
1712016555393,-617.8340762839653
1712016555433,-716.6940374150872
1712016555473,-887.3167785322294
1712016555514,-2980.196391103789
1712016555554,-2980.196391103789
1712016555594,-2980.196391103789
1712016555634,-2980.196391103789
1712016555675,-2980.196391103789
1712016555716,-2980.196391103789
1712016555755,-2980.196391103789
1712016555795,-3131.195272853598
1712016555836,-3282.3822700646706
1712016555876,-3617.864192384295
1712016555917,-3766.199062234722
1712016555957,-3958.9714667554945
1712016555997,-3958.9714667554945
1712016556037,-4374.449916535057
1712016556077,-4527.4717494742945
1712016556118,-4569.060402549803
1712016556160,-4569.060402549803
1712016556201,-4569.060402549803
1712016556241,-4374.449916535057
1712016556281,-3766.199062234722
1712016556322,-3617.864192384295
1712016556362,-3617.864192384295
1712016556402,-3617.864192384295
1712016556442,-3617.864192384295
1712016556483,-3617.864192384295
1712016556524,-4653.281716617756
1712016556563,-6794.512482602615
1712016556603,-6998.563028272241
1712016556643,-6998.563028272241
1712016556684,-6794.512482602615
1712016556724,-6785.908642233349
1712016556764,-5621.095302377362
1712016556804,-5193.716259143315
1712016556844,-4771.418848052621
1712016556884,-4653.281716617756
1712016556925,-3840.605680353008
1712016556965,-3534.1925918208435
1712016557005,-3466.017969176639
1712016557045,-2822.889544140082
1712016557085,-2038.392188737169
1712016557126,-1758.947431168519
1712016557166,-1758.947431168519
1712016557206,-2822.889544140082
1712016557246,-3534.1925918208435
1712016557286,-3840.605680353008
1712016557327,-4076.3576837391593
1712016557366,-4076.3576837391593
1712016557407,-4076.3576837391593
1712016557447,-4076.3576837391593
1712016557487,-4076.3576837391593
1712016557528,-4076.3576837391593
1712016557567,-4076.3576837391593
1712016557607,-3840.605680353008
1712016557648,-3689.404903587885
1712016557688,-3689.404903587885
1712016557729,-3689.404903587885
1712016557769,-3689.404903587885
1712016557809,-3689.404903587885
1712016557849,-3689.404903587885
1712016557889,-4076.3576837391593
1712016557930,-4768.633064248599
1712016557969,-5326.9078997904435
1712016558010,-5374.507884668186
1712016558050,-5377.152782460209
1712016558090,-5483.279747681227
1712016558131,-5483.279747681227
1712016558171,-5483.279747681227
1712016558211,-5694.092649007682
1712016558251,-5774.907491741702
1712016558291,-5774.907491741702
1712016558332,-5483.279747681227
1712016558372,-4768.633064248599
1712016558412,-4662.051125516184
1712016558452,-4662.051125516184
1712016558493,-4662.051125516184
1712016558534,-4662.051125516184
1712016558573,-4662.051125516184
1712016558614,-4943.500942202285
1712016558655,-5774.907491741702
1712016558695,-5802.428112261463
1712016558736,-7116.257461824454
1712016558775,-7116.257461824454
1712016558816,-6311.65407877462
1712016558856,-6311.65407877462
1712016558896,-5802.428112261463
1712016558937,-5483.720472695306
1712016558977,-4995.899209225085
1712016559017,-4943.500942202285
1712016559057,-4662.051125516184
1712016559098,-4088.319328337442
1712016559138,-4063.5362943806686
1712016559178,-2793.7458270289935
1712016559218,-2793.7458270289935
1712016559258,-2793.7458270289935
1712016559299,-2793.7458270289935
1712016559340,-2793.7458270289935
1712016559379,-2793.7458270289935
1712016559419,-3917.3340266533196
1712016559460,-3917.3340266533196
1712016559500,-3917.3340266533196
1712016559541,-3917.3340266533196
1712016559580,-3917.3340266533196
1712016559620,-3917.3340266533196
1712016559661,-3917.3340266533196
1712016559701,-2934.568459343631
1712016559742,-2793.7458270289935
1712016559782,-2298.477162260562
1712016559822,-2095.9402676532045
1712016559862,-1846.6810794007033
1712016559902,-1141.1207113484852
1712016559943,-533.7017176905647
1712016559983,-533.7017176905647
1712016560023,-533.7017176905647
1712016560063,-533.7017176905647
1712016560103,-1506.2113260487095
1712016560144,-1846.6810794007033
1712016560184,-2095.9402676532045
1712016560224,-2476.142198140733
1712016560264,-2199.5949968993664
1712016560304,-1905.9869217793457
1712016560345,-1846.6810794007033
1712016560385,-1846.6810794007033
1712016560425,-1631.8982129576616
1712016560465,-1506.2113260487095
1712016560505,-942.7477313019335
1712016560546,-533.7017176905647
1712016560581,331.34652178455144
1712016560621,444.56040337262675
1712016560662,444.56040337262675
1712016560702,444.56040337262675
1712016560742,444.56040337262675
1712016560782,444.56040337262675
1712016560822,444.56040337262675
1712016560862,331.34652178455144
1712016560902,-942.7477313019335
1712016560943,-942.7477313019335
1712016560982,-942.7477313019335
1712016561023,-942.7477313019335
1712016561062,-942.7477313019335
1712016561103,-942.7477313019335
1712016561143,-942.7477313019335
1712016561183,-942.7477313019335
1712016561223,-942.7477313019335
1712016561263,-748.3031534543261
1712016561303,-748.3031534543261
1712016561344,-748.3031534543261
1712016561383,-748.3031534543261
1712016561423,-748.3031534543261
1712016561463,-748.3031534543261
1712016561504,-748.3031534543261
1712016561545,-748.3031534543261
1712016561584,-748.3031534543261
1712016561624,-1894.9975864477456
1712016561664,-1908.4959983346052
1712016561704,-2265.6627487777732
1712016561745,-2265.6627487777732
1712016561784,-2265.6627487777732
1712016561825,-1994.057816568762
1712016561865,-1994.057816568762
1712016561905,-1994.057816568762
1712016561946,-1994.057816568762
1712016561985,-1994.057816568762
1712016562025,-1994.057816568762
1712016562065,-1908.4959983346052
1712016562106,-1908.4959983346052
1712016562146,-1994.057816568762
1712016562186,-1994.057816568762
1712016562226,-1994.057816568762
1712016562266,-1994.057816568762
1712016562306,-2078.6891017602757
1712016562347,-2564.992932713125
1712016562386,-2570.5901030446403
1712016562426,-2639.220145103056
1712016562467,-3126.7008809726685
1712016562507,-3168.5498169017956
1712016562547,-3519.4996325410903
1712016562587,-3519.4996325410903
1712016562627,-3519.4996325410903
1712016562667,-3562.160965424031
1712016562707,-5523.319408532698
1712016562748,-5649.104211986996
1712016562787,-5649.104211986996
1712016562828,-5649.104211986996
1712016562868,-5649.104211986996
1712016562908,-5649.104211986996
1712016562949,-5649.104211986996
1712016562988,-5649.104211986996
1712016563028,-5649.104211986996
1712016563068,-5649.104211986996
1712016563108,-5857.945639083162
1712016563149,-5649.104211986996
1712016563189,-5645.701199673116
1712016563229,-5523.319408532698
1712016563269,-5323.655722599477
1712016563309,-4639.311398374848
1712016563350,-3992.937922049314
1712016563389,-3909.646306007169
1712016563429,-3875.5744176357985
1712016563469,-3772.9710611505434
1712016563509,-3365.429346290417
1712016563550,-2290.2676751343533
1712016563590,-1802.8725608172826
1712016563630,-1231.4030259433202
1712016563670,101.1241630143486
1712016563710,101.1241630143486
1712016563751,-1231.4030259433202
1712016563790,-2290.2676751343533
1712016563830,-3365.429346290417
1712016563870,-3489.0676313131116
1712016563911,-3489.0676313131116
1712016563951,-3489.0676313131116
1712016563991,-3489.0676313131116
1712016564031,-3489.0676313131116
1712016564071,-3489.0676313131116
1712016564111,-3489.0676313131116
1712016564152,-3489.0676313131116
1712016564191,-4247.818633876741
1712016564232,-4571.204768029973
1712016564272,-4571.204768029973
1712016564312,-4571.204768029973
1712016564353,-4816.668708869256
1712016564392,-5009.128240976483
1712016564432,-5295.808756548911
1712016564472,-5763.851578938775
1712016564513,-5817.758318217471
1712016564553,-6110.188162598759
1712016564593,-6341.676533364225
1712016564633,-6661.620200405363
1712016564673,-7324.01818802394
1712016564713,-7480.646495319437
1712016564754,-7611.358732401393
1712016564794,-8500.550639652181
1712016564834,-9539.960162657779
1712016564874,-9539.960162657779
1712016564914,-9539.960162657779
1712016564955,-9539.960162657779
1712016564994,-9539.960162657779
1712016565034,-9539.960162657779
1712016565075,-9539.960162657779
1712016565115,-10678.703743521124
1712016565156,-11901.737245284952
1712016565195,-12980.12139624171
1712016565235,-13133.830458572134
1712016565275,-13355.737270070706
1712016565315,-13355.737270070706
1712016565356,-13355.737270070706
1712016565396,-13355.737270070706
1712016565436,-13355.737270070706
1712016565476,-13355.737270070706
1712016565516,-13387.538389592431
1712016565557,-13133.830458572134
1712016565596,-12980.12139624171
1712016565636,-12980.12139624171
1712016565677,-12980.12139624171
1712016565717,-12980.12139624171
1712016565758,-13357.97425718559
1712016565797,-13387.538389592431
1712016565837,-14394.657408370636
1712016565877,-15196.287748871371
1712016565918,-16123.289293034002
1712016565958,-16165.076251139864
1712016565998,-16345.746510626748
1712016566038,-16345.746510626748
1712016566078,-16345.746510626748
1712016566118,-16510.557817780413
1712016566159,-16510.557817780413
1712016566198,-16510.557817780413
1712016566238,-16510.557817780413
1712016566278,-16123.289293034002
1712016566319,-14493.613280807622
1712016566359,-14493.613280807622
1712016566399,-14493.613280807622
1712016566439,-17488.773259402253
1712016566479,-17622.474062894937
1712016566519,-17778.85761821177
1712016566560,-17811.517168991733
1712016566599,-17895.079923313577
1712016566639,-19402.288876767736
1712016566680,-19402.288876767736
1712016566720,-19402.288876767736
1712016566761,-19402.288876767736
1712016566800,-19402.288876767736
1712016566840,-19402.288876767736
1712016566880,-24600.057548363693
1712016566921,-26830.196769719943
1712016566961,-26830.196769719943
1712016567001,-26881.393952300772
1712016567041,-26881.393952300772
1712016567081,-26881.393952300772
1712016567121,-27344.665181584656
1712016567162,-28163.571650105994
1712016567202,-30320.698309835047
1712016567242,-31572.495472814422
1712016567282,-33946.55646991823
1712016567322,-34019.36603937298
1712016567363,-34839.01338396035
1712016567403,-35109.24902775604
1712016567443,-35587.774962976575
1712016567483,-35725.5074837436
1712016567524,-35587.774962976575
1712016567564,-35175.25497449469
1712016567604,-34839.01338396035
1712016567644,-33946.55646991823
1712016567684,-32162.755241732113
1712016567724,-32162.755241732113
1712016567765,-32162.755241732113
1712016567805,-32162.755241732113
1712016567845,-32162.755241732113
1712016567886,-33946.55646991823
1712016567926,-35175.25497449469
1712016567967,-35611.444942473434
1712016568006,-35725.5074837436
1712016568046,-35615.37968377629
1712016568087,-35611.444942473434
1712016568127,-35175.25497449469
1712016568168,-33264.10150571633
1712016568207,-33212.89105166122
1712016568248,-32162.755241732113
1712016568288,-31979.831605115905
1712016568328,-31761.603340778966
1712016568369,-30930.181966102216
1712016568409,-29001.79897150211
1712016568449,-28058.20231321454
1712016568489,-26635.08511364134
1712016568530,-26251.081545211375
1712016568570,-26251.081545211375
1712016568610,-26592.557562848553
1712016568650,-26592.557562848553
1712016568690,-26560.834850237705
1712016568731,-25332.033960134722
1712016568772,-24661.59167139232
1712016568811,-24400.543609996792
1712016568852,-23641.627226296812
1712016568892,-22325.558518249076
1712016568932,-22195.034121061675
1712016568973,-21442.573830547277
1712016569013,-20292.74035402201
1712016569053,-19689.395989570767
1712016569093,-17159.984195546247
1712016569133,-17013.01693794178
1712016569174,-17013.01693794178
1712016569214,-17013.01693794178
1712016569254,-17013.01693794178
1712016569294,-17159.984195546247
1712016569335,-17159.984195546247
1712016569376,-17159.984195546247
1712016569415,-17075.217056415975
1712016569455,-16738.70848460868
1712016569496,-15529.006114464253
1712016569536,-14767.630483263638
1712016569577,-14443.50275105564
1712016569616,-13874.740641824901
1712016569656,-13053.459397888742
1712016569697,-11888.775003951043
1712016569737,-11100.249494484626
1712016569778,-10795.012474344578
1712016569818,-10109.481013600715
1712016569858,-10795.012474344578
1712016569898,-11144.221488249954
1712016569939,-11888.775003951043
1712016569979,-13053.459397888742
1712016570019,-14443.50275105564
1712016570059,-14682.89768965263
1712016570099,-14682.89768965263
1712016570139,-14682.89768965263
1712016570180,-14443.50275105564
1712016570219,-13236.689154735766
1712016570260,-13053.459397888742
1712016570300,-11896.959782904014
1712016570340,-11144.221488249954
1712016570381,-10109.481013600715
1712016570420,-9743.818166645244
1712016570460,-9743.818166645244
1712016570501,-9743.818166645244
1712016570541,-9743.818166645244
1712016570582,-9743.818166645244
1712016570621,-11144.221488249954
1712016570661,-11896.959782904014
1712016570702,-11935.681769082788
1712016570742,-11935.681769082788
1712016570783,-11896.959782904014
1712016570822,-11558.16539493436
1712016570862,-9904.447400733829
1712016570903,-9801.01845172979
1712016570943,-9743.818166645244
1712016570984,-9130.064201349393
1712016571023,-7717.710013383068
1712016571063,-6752.672240283806
1712016571104,-6013.093374848366
1712016571144,-3778.7933812928386
1712016571185,-3313.4979556892067
1712016571224,-3313.4979556892067
1712016571265,-3313.4979556892067
1712016571305,-3313.4979556892067
1712016571345,-3313.4979556892067
1712016571386,-3892.87207486853
1712016571425,-3892.87207486853
1712016571466,-3892.87207486853
1712016571506,-3719.4639518233016
1712016571546,-3313.4979556892067
1712016571587,-2750.4158038632013
1712016571627,-2536.738512733951
1712016571667,-2188.3994594532996
1712016571707,-1411.9773500487208
1712016571748,-501.3380955005996
1712016571788,1148.819999633357
1712016571828,1248.2204199461266
1712016571868,1502.409256038256
1712016571909,2892.925309819635
1712016571949,3341.2645355551504
1712016571990,3341.2645355551504
1712016572029,3341.2645355551504
1712016572069,3224.008288805373
1712016572110,1502.409256038256
1712016572150,1570.7960088877007
1712016572191,2617.941636350006
1712016572231,3224.008288805373
1712016572271,3341.2645355551504
1712016572311,3579.8290453669615
1712016572351,3727.989025367424
1712016572392,4194.425760023296
1712016572432,4870.691331646405
1712016572472,5043.548924752511
1712016572512,7097.786415401846
1712016572552,7225.8168054381385
1712016572594,7918.439051494002
1712016572640,9509.16207476426
1712016572680,9509.16207476426
1712016572720,9509.16207476426
1712016572760,9509.16207476426
1712016572801,7918.439051494002
1712016572841,7360.049335864373
1712016572881,7097.786415401846
1712016572921,7097.786415401846
1712016572961,7097.786415401846
1712016573002,7097.786415401846
1712016573041,7097.786415401846
1712016573082,7360.049335864373
1712016573122,7807.188225120772
1712016573162,8807.218393534888
1712016573203,9509.16207476426
1712016573242,10855.688052798621
1712016573282,11390.708506301977
1712016573322,11791.488963698503
1712016573362,11791.488963698503
1712016573403,11791.488963698503
1712016573443,11791.488963698503
1712016573483,11791.488963698503
1712016573523,11791.488963698503
1712016573563,11113.021825688425
1712016573604,11113.021825688425
1712016573643,11542.343514372129
1712016573684,11998.456364779267
1712016573724,12103.755343078636
1712016573764,12379.342996001244
1712016573805,12657.038482306525
1712016573844,12705.634769668803
1712016573884,13002.354673463851
1712016573924,13712.297472460195
1712016573964,14283.823910424951
1712016574005,14377.742966629565
1712016574044,16095.509324105922
1712016574084,16095.509324105922
1712016574124,16095.509324105922
1712016574165,16095.509324105922
1712016574205,14377.742966629565
1712016574245,14283.823910424951
1712016574285,13002.354673463851
1712016574325,12705.634769668803
1712016574365,12888.72594054509
1712016574406,13002.354673463851
1712016574445,13002.354673463851
1712016574485,13002.354673463851
1712016574525,13002.354673463851
1712016574565,13173.135001115501
1712016574606,14093.994642846286
1712016574646,14377.742966629565
1712016574685,15432.509148738347
1712016574726,15432.509148738347
1712016574766,15432.509148738347
1712016574807,15432.509148738347
1712016574846,15432.509148738347
1712016574886,14093.994642846286
1712016574926,13173.135001115501
1712016574966,12888.72594054509
1712016575007,12784.654876704793
1712016575046,12784.654876704793
1712016575087,12784.654876704793
1712016575127,12784.654876704793
1712016575167,12784.654876704793
1712016575208,12677.026559246704
1712016575247,12335.754289670847
1712016575287,12324.736783164553
1712016575327,12324.736783164553
1712016575367,12324.736783164553
1712016575408,12324.736783164553
1712016575447,12324.736783164553
1712016575488,12324.736783164553
1712016575528,12324.736783164553
1712016575568,11586.133480478544
1712016575609,11113.845968741924
1712016575648,10534.927282109857
1712016575688,10215.766306821257
1712016575728,10134.441883288324
1712016575768,10054.269630613737
1712016575809,10054.269630613737
1712016575848,10054.269630613737
1712016575888,9801.845270922408
1712016575929,9801.845270922408
1712016575969,10134.441883288324
1712016576009,10488.09048054181
1712016576049,10601.26996474946
1712016576089,10601.26996474946
1712016576129,10601.26996474946
1712016576169,10601.26996474946
1712016576210,10488.09048054181
1712016576249,9363.537515794858
1712016576289,9267.708046754822
1712016576330,9204.51421168726
1712016576370,9035.854636823293
1712016576410,9035.854636823293
1712016576450,9035.854636823293
1712016576490,9035.854636823293
1712016576530,9035.854636823293
1712016576570,8608.596335830167
1712016576611,8178.073190230411
1712016576651,8178.073190230411
1712016576691,8552.820694646798
1712016576731,8552.820694646798
1712016576771,8552.820694646798
1712016576812,8552.820694646798
1712016576851,7195.01592922397
1712016576891,7173.5963011542335
1712016576931,5830.5433455179445
1712016576971,5668.667957596481
1712016577012,5421.622204533778
1712016577052,5138.977209683042
1712016577092,4994.310461720452
1712016577132,4994.310461720452
1712016577172,4994.310461720452
1712016577213,4511.064249123912
1712016577252,4409.548902706243
1712016577292,4210.009655580856
1712016577332,4210.009655580856
1712016577372,4210.009655580856
1712016577413,4210.009655580856
1712016577453,4210.009655580856
1712016577493,4210.009655580856
1712016577533,2471.6185067314655
1712016577573,2469.286094713956
1712016577614,1929.6474039391614
1712016577653,1865.1594794020057
1712016577693,1376.2630842207
1712016577733,1320.448276186362
1712016577774,1320.448276186362
1712016577814,1320.448276186362
1712016577854,1075.1380106969737
1712016577894,745.3987409453839
1712016577934,-559.5806835070252
1712016577974,-559.5806835070252
1712016578015,-559.5806835070252
1712016578054,-559.5806835070252
1712016578095,-559.5806835070252
1712016578135,-559.5806835070252
1712016578175,-1294.3193083116785
1712016578216,-2203.921410490293
1712016578255,-2234.134435889311
1712016578295,-2426.092209325172
1712016578335,-2476.4138411832973
1712016578375,-2899.676708121784
1712016578416,-3061.922625988722
1712016578456,-3061.922625988722
1712016578496,-3378.724473998416
1712016578536,-3650.8482124935836
1712016578576,-3680.844508457929
1712016578617,-3680.844508457929
1712016578658,-3650.8482124935836
1712016578699,-3061.922625988722
1712016578739,-2203.921410490293
1712016578779,-2203.921410490293
1712016578820,-2203.921410490293
1712016578860,-3680.844508457929
1712016578900,-5034.084055692889
1712016578940,-5238.4104698929
1712016578981,-5787.019802656025
1712016579022,-5820.5641675060615
1712016579061,-6197.501176016871
1712016579101,-6197.501176016871
1712016579142,-6197.501176016871
1712016579182,-6393.005784790963
1712016579223,-6607.44278594479
1712016579262,-6607.44278594479
1712016579303,-6393.005784790963
1712016579343,-5575.168664625846
1712016579383,-5575.168664625846
1712016579424,-5575.168664625846
1712016579464,-5575.168664625846
1712016579504,-7307.344673808198
1712016579545,-7369.798593115993
1712016579586,-8771.888694483321
1712016579626,-9053.780879110098
1712016579666,-9555.02878784202
1712016579706,-10083.016393713187
1712016579746,-10149.925468504429
1712016579786,-10149.925468504429
1712016579827,-10149.925468504429
1712016579867,-10083.016393713187
1712016579907,-9729.524523858912
1712016579947,-9053.780879110098
1712016579987,-8771.888694483321
1712016580028,-8333.87315552961
1712016580068,-8333.87315552961
1712016580108,-8333.87315552961
1712016580148,-8333.87315552961
1712016580188,-8333.87315552961
1712016580229,-8333.87315552961
1712016580268,-8629.978686776944
1712016580309,-9053.780879110098
1712016580349,-9325.12858846737
1712016580389,-9325.12858846737
1712016580430,-9325.12858846737
1712016580469,-9173.668502210174
1712016580510,-9173.668502210174
1712016580550,-9038.997662865557
1712016580590,-8629.978686776944
1712016580631,-8333.87315552961
1712016580671,-7744.307824706193
1712016580711,-6698.929336799309
1712016580751,-6036.509351844434
1712016580791,-5259.433182530571
1712016580832,-5259.433182530571
1712016580872,-5259.433182530571
1712016580912,-5259.433182530571
1712016580952,-5259.433182530571
1712016580993,-6036.509351844434
1712016581034,-7744.307824706193
1712016581073,-8629.978686776944
1712016581113,-8720.097793590743
1712016581154,-8720.097793590743
1712016581194,-8720.097793590743
1712016581235,-8720.097793590743
1712016581274,-8720.097793590743
1712016581314,-7744.307824706193
1712016581355,-7549.832441373728
1712016581395,-6224.373760462739
1712016581436,-6036.509351844434
1712016581475,-5259.433182530571
1712016581516,-4219.4846857516095
1712016581556,-3897.2456488758326
1712016581596,-3897.2456488758326
1712016581637,-3897.2456488758326
1712016581677,-3897.2456488758326
1712016581717,-3897.2456488758326
1712016581757,-6224.373760462739
1712016581797,-6978.176412694156
1712016581838,-6978.176412694156
1712016581878,-6978.176412694156
1712016581918,-6978.176412694156
1712016581959,-6978.176412694156
1712016581999,-6978.176412694156
1712016582040,-6978.176412694156
1712016582079,-6978.176412694156
1712016582120,-6224.373760462739
1712016582160,-5654.5358855417
1712016582200,-3897.2456488758326
1712016582241,-3503.405395325739
1712016582281,-3503.405395325739
1712016582321,-3503.405395325739
1712016582361,-3503.405395325739
1712016582401,-3503.405395325739
1712016582442,-3503.405395325739
1712016582482,-4795.56593870651
1712016582522,-5654.5358855417
1712016582562,-6978.176412694156
1712016582603,-7488.017344028689
1712016582644,-7488.017344028689
1712016582683,-7488.017344028689
1712016582724,-7488.017344028689
1712016582764,-7488.017344028689
1712016582804,-7488.017344028689
1712016582845,-7488.017344028689
1712016582884,-5948.598238628358
1712016582924,-5654.5358855417
1712016582965,-4795.56593870651
1712016583005,-4795.56593870651
1712016583046,-4795.56593870651
1712016583085,-4795.56593870651
1712016583125,-4795.56593870651
1712016583166,-4795.56593870651
1712016583207,-4795.56593870651
1712016583248,-5948.598238628358
1712016583287,-5997.723511587363
1712016583327,-7642.865151620936
1712016583367,-7642.865151620936
1712016583408,-7016.471712281462
1712016583449,-7016.471712281462
1712016583488,-7016.471712281462
1712016583528,-6831.513688455336
1712016583568,-6695.127018994652
1712016583608,-5997.723511587363
1712016583649,-5948.598238628358
1712016583689,-4628.233134357724
1712016583729,-4370.123799715191
1712016583769,-2566.8488517897204
1712016583810,-2150.2243603393435
1712016583850,-2150.2243603393435
1712016583890,-2150.2243603393435
1712016583931,-2150.2243603393435
1712016583971,-2150.2243603393435
1712016584011,-2150.2243603393435
1712016584052,-3453.276016216725
1712016584091,-3039.6292080720887
1712016584131,-2320.957327029668
1712016584172,-2150.2243603393435
1712016584212,-2150.2243603393435
1712016584253,-2117.3075115587562
1712016584293,-1993.738090458326
1712016584333,-1779.642708180938
1712016584373,-1333.9719180618413
1712016584413,-350.84272796241567
1712016584454,445.319387126714
1712016584494,839.6654129503295
1712016584534,1961.818227651529
1712016584574,2507.152047280222
1712016584614,2507.152047280222
1712016584656,2507.152047280222
1712016584695,2507.152047280222
1712016584734,839.6654129503295
1712016584773,447.1559687135741
1712016584812,445.319387126714
1712016584851,445.319387126714
1712016584890,445.319387126714
1712016584929,445.319387126714
1712016584968,445.319387126714
1712016585007,445.319387126714
1712016585046,447.1559687135741
1712016585085,455.21455674711615
1712016585124,2507.152047280222
1712016585163,2604.7429532972164
1712016585202,3107.6207699654624
1712016585241,3107.6207699654624
1712016585280,3107.6207699654624
1712016585320,3107.6207699654624
1712016585360,3107.6207699654624
1712016585400,3107.6207699654624
1712016585440,2923.6800875077024
1712016585480,2604.7429532972164
1712016585520,1331.9579140837304
1712016585560,1331.9579140837304
1712016585600,1331.9579140837304
1712016585640,1331.9579140837304
1712016585680,1331.9579140837304
1712016585720,1331.9579140837304
1712016585760,1331.9579140837304
1712016585800,2133.2481355816126
1712016585840,2604.7429532972164
1712016585880,2923.6800875077024
1712016585920,3107.6207699654624
1712016585960,3798.818417784758
1712016586000,3798.818417784758
1712016586040,3798.818417784758
1712016586080,3798.818417784758
1712016586120,3798.818417784758
1712016586160,3798.818417784758
1712016586200,2923.6800875077024
1712016586240,2133.2481355816126
1712016586280,1698.4626472257078
1712016586320,1698.4626472257078
1712016586360,1698.4626472257078
1712016586400,1698.4626472257078
1712016586440,1698.4626472257078
1712016586480,1698.4626472257078
1712016586520,1698.4626472257078
1712016586560,1698.4626472257078
1712016586600,2133.2481355816126
1712016586640,2407.3566340385005
1712016586680,2407.3566340385005
1712016586720,2407.3566340385005
1712016586760,2407.3566340385005
1712016586800,2407.3566340385005
1712016586840,2407.3566340385005
1712016586880,1698.4626472257078
1712016586920,1493.9782536383718
1712016586960,1087.2454269267619
1712016587000,-230.74169816356152
1712016587040,-266.44938466511667
1712016587080,-266.44938466511667
1712016587120,-266.44938466511667
1712016587160,-449.2057367619127
1712016587200,-906.296018992085
1712016587240,-1043.4786469973624
1712016587280,-1084.8885573069565
1712016587320,-906.296018992085
1712016587360,937.8600807888433
1712016587400,937.8600807888433
1712016587440,937.8600807888433
1712016587480,937.8600807888433
1712016587520,937.8600807888433
1712016587560,937.8600807888433
1712016587600,937.8600807888433
1712016587640,142.266072739847
1712016587680,-1084.8885573069565
1712016587720,-1246.7516755359247
1712016587760,-2414.350912520662
1712016587800,-1447.9698740006424
1712016587840,-1447.9698740006424
1712016587880,-1447.9698740006424
1712016587920,-1447.9698740006424
1712016587960,-1447.9698740006424
1712016588000,-1447.9698740006424
1712016588040,-1084.8885573069565
1712016588080,-602.9546464905143
1712016588120,142.266072739847
1712016588160,142.266072739847
1712016588200,142.266072739847
1712016588240,142.266072739847
1712016588280,142.266072739847
1712016588320,142.266072739847
1712016588360,-602.9546464905143
1712016588400,-1447.9698740006424
1712016588440,-1570.9479782339185
1712016588480,-1769.1976282410324
1712016588520,-1769.1976282410324
1712016588560,-1769.1976282410324
1712016588600,-1769.1976282410324
1712016588640,-1948.8622461920604
1712016588680,-2418.553594375029
1712016588720,-2809.9030945850536
1712016588760,-2809.9030945850536
1712016588800,-5735.400124852546
1712016588840,-7436.735035814345
1712016588880,-7436.735035814345
1712016588920,-7436.735035814345
1712016588960,-7436.735035814345
1712016589000,-7436.735035814345
1712016589040,-7541.099877425004
1712016589080,-8000.220245888457
1712016589120,-8101.717838461511
1712016589160,-8385.648797134403
1712016589200,-8554.079513544682
1712016589240,-9567.57906679064
1712016589280,-9866.26673850324
1712016589320,-9915.046120652929
1712016589360,-10311.247005232144
1712016589400,-10313.619401884265
1712016589440,-10341.536617490463
1712016589480,-15090.912837450393
1712016589520,-16582.195642492734
1712016589560,-16582.195642492734
1712016589600,-16582.195642492734
1712016589640,-16582.195642492734
1712016589680,-16582.195642492734
1712016589720,-17777.330045714974
1712016589760,-18098.409564377274
1712016589800,-18643.402010689024
1712016589840,-18760.483048356604
1712016589880,-19048.003399045207
1712016589920,-19261.226240775548
1712016589960,-19273.73173336126
1712016590000,-19322.907922635786
1712016590040,-19512.487815447617
1712016590080,-19539.323102382943
1712016590120,-24046.586762920953
1712016590160,-25163.80297606811
1712016590200,-25163.80297606811
1712016590240,-25163.80297606811
1712016590280,-25163.80297606811
1712016590320,-25163.80297606811
1712016590360,-25163.80297606811
1712016590400,-25194.609119943343
1712016590440,-27045.483116765972
1712016590480,-27429.823071121238
1712016590520,-27429.823071121238
1712016590560,-27429.823071121238
1712016590600,-27197.005580679048
1712016590640,-27045.483116765972
1712016590680,-25194.609119943343
1712016590720,-25163.80297606811
1712016590760,-24755.97556444537
1712016590800,-23977.773251587525
1712016590840,-23202.218954092823
1712016590880,-22677.08575116191
1712016590920,-21462.292042589746
1712016590960,-21356.752090872265
1712016591000,-20146.87608282361
1712016591040,-20129.91122459341
1712016591080,-17542.888609508052
1712016591120,-17542.888609508052
1712016591160,-17542.888609508052
1712016591200,-14873.435276428238
1712016591240,-14512.979959862307
1712016591280,-13998.04987695394
1712016591320,-13862.046308614314
1712016591360,-12847.628938873298
1712016591400,-12486.569380191155
1712016591440,-12368.033727349713
1712016591480,-11771.07978852
1712016591520,-10772.240104798228
1712016591560,-9543.889038152527
1712016591600,-9531.44222469721
1712016591640,-8029.785953974817
1712016591680,-7003.810425856151
1712016591720,-8029.785953974817
1712016591760,-8671.65864049783
1712016591800,-9126.681018928997
1712016591840,-9126.681018928997
1712016591880,-8860.737292024773
1712016591920,-8860.737292024773
1712016591960,-8860.737292024773
1712016592000,-8671.65864049783
1712016592040,-8351.327538046055
1712016592080,-7003.810425856151
1712016592120,-6972.876269138418
1712016592160,-5487.5215798085555
1712016592200,-4479.610373876989
1712016592240,-4387.471771445591
1712016592280,-2270.166193574667
1712016592320,-2270.166193574667
1712016592360,-2270.166193574667
1712016592400,-4387.471771445591
1712016592440,-5087.305679299403
1712016592480,-5368.867009869777
1712016592520,-5087.305679299403
1712016592560,-4687.503788447939
1712016592600,-4575.899970804341
1712016592640,-4430.203939518426
1712016592680,-4387.471771445591
1712016592720,-4338.644711825997
1712016592760,-3414.0273364270106
1712016592800,-2270.166193574667
1712016592840,-1799.4852242199704
1712016592880,-1778.314589606598
1712016592920,-1019.8948770891875
1712016592960,-210.5949025931768
1712016593000,-210.5949025931768
1712016593040,-210.5949025931768
1712016593080,-210.5949025931768
1712016593120,-1778.314589606598
1712016593160,-1799.4852242199704
1712016593200,-1905.7436842303723
1712016593240,-1877.9727274421602
1712016593280,-1799.4852242199704
1712016593320,-1799.4852242199704
1712016593360,-1799.4852242199704
1712016593400,-1583.7852229233831
1712016593440,-1389.8262790450826
1712016593480,-210.5949025931768
1712016593520,-111.98966059321538
1712016593560,1672.6048380360007
1712016593600,1857.7721335589886
1712016593640,2188.677609941922
1712016593680,2188.677609941922
1712016593720,2188.677609941922
1712016593760,2188.677609941922
1712016593800,2188.677609941922
1712016593840,1857.7721335589886
1712016593880,-111.98966059321538
1712016593920,-1389.8262790450826
1712016593960,-1389.8262790450826
1712016594000,-1389.8262790450826
1712016594040,-1389.8262790450826
1712016594080,-1389.8262790450826
1712016594120,-1557.4353952528909
1712016594160,-1343.0685335285962
1712016594200,-111.98966059321538
1712016594240,879.1425137352198
1712016594280,1857.7721335589886
1712016594320,2638.0214137155563
1712016594360,2638.0214137155563
1712016594400,2638.0214137155563
1712016594440,2638.0214137155563
1712016594480,2638.0214137155563
1712016594520,2638.0214137155563
1712016594560,879.1425137352198
1712016594600,-1343.0685335285962
1712016594640,-1531.3229784760624
1712016594680,-1531.3229784760624
1712016594720,-1343.0685335285962
1712016594760,-771.8513702135533
1712016594800,-771.8513702135533
1712016594840,-771.8513702135533
1712016594880,-440.1427138997242
1712016594920,117.20657704398036
1712016594960,879.1425137352198
1712016595000,2092.7834924217314
1712016595040,2638.0214137155563
1712016595080,3817.2597885560244
1712016595120,3942.951763638761
1712016595160,3942.951763638761
1712016595200,3942.951763638761
1712016595240,3942.951763638761
1712016595280,2756.218366355635
1712016595320,2092.7834924217314
1712016595360,1339.8658631588332
1712016595400,1903.2944616870955
1712016595440,2092.7834924217314
1712016595480,2092.7834924217314
1712016595520,2123.2499546725303
1712016595560,2756.218366355635
1712016595600,2921.246501701884
1712016595640,2962.9482800709084
1712016595680,4132.424139657058
1712016595720,4160.193136654794
1712016595760,5774.983583481517
1712016595800,6088.393734639045
1712016595840,7010.967415993102
1712016595880,7010.967415993102
1712016595920,7010.967415993102
1712016595960,7010.967415993102
1712016596000,6088.393734639045
1712016596040,4160.193136654794
1712016596080,4160.193136654794
1712016596120,4259.129810686223
1712016596160,4646.49679919472
1712016596200,4646.49679919472
1712016596240,4646.49679919472
1712016596280,4646.49679919472
1712016596320,4847.590633705258
1712016596360,5493.391290246043
1712016596400,6088.393734639045
1712016596440,7327.777455955744
1712016596480,7753.523691220209
1712016596520,7753.523691220209
1712016596560,7753.523691220209
1712016596600,7753.523691220209
1712016596640,7753.523691220209
1712016596677,7327.777455955744
1712016596717,5493.391290246043
1712016596757,4847.590633705258
1712016596797,4646.49679919472
1712016596838,4646.49679919472
1712016596877,4646.49679919472
1712016596917,4646.49679919472
1712016596957,4595.395041512325
1712016596998,4216.736416381784
1712016597038,4595.395041512325
1712016597078,5164.1349139800295
1712016597118,5493.391290246043
1712016597158,7075.9873170517385
1712016597198,7075.9873170517385
1712016597239,7075.9873170517385
1712016597278,7075.9873170517385
1712016597318,7075.9873170517385
1712016597359,5164.1349139800295
1712016597399,4023.0976183861494
1712016597440,3732.951641935855
1712016597479,3290.552078457549
1712016597519,3231.8091314379126
1712016597559,3231.8091314379126
1712016597600,3216.5843975809403
1712016597640,2826.6481661833823
1712016597680,2802.0775433829986
1712016597720,2777.728907963261
1712016597760,2777.728907963261
1712016597800,4023.0976183861494
1712016597841,4037.2837381022982
1712016597880,4037.2837381022982
1712016597920,4037.2837381022982
1712016597961,4037.2837381022982
1712016598001,4037.2837381022982
1712016598041,2777.728907963261
1712016598081,2536.0313767017797
1712016598121,1871.3880262873136
1712016598161,1567.8585558068007
1712016598201,1567.8585558068007
1712016598242,1567.8585558068007
1712016598282,1567.8585558068007
1712016598322,1480.2835314646363
1712016598362,1069.0054018627852
1712016598402,849.1225858395919
1712016598443,849.1225858395919
1712016598482,1480.2835314646363
1712016598522,1863.7420598166063
1712016598562,1863.7420598166063
1712016598602,1863.7420598166063
1712016598643,1863.7420598166063
1712016598683,1863.7420598166063
1712016598723,445.0831274613738
1712016598763,207.0597017146647
1712016598803,-111.21329662343487
1712016598844,-1512.0220385426655
1712016598883,-1688.0171979339793
1712016598924,-1688.0171979339793
1712016598964,-1688.0171979339793
1712016599004,-1688.0171979339793
1712016599045,-1694.4911711430177
1712016599084,-1607.0934659070335
1712016599124,-1512.0220385426655
1712016599164,-68.26242433022708
1712016599204,207.0597017146647
1712016599245,445.0831274613738
1712016599285,445.0831274613738
1712016599325,445.0831274613738
1712016599365,445.0831274613738
1712016599405,445.0831274613738
1712016599446,236.09189169760793
1712016599485,-68.26242433022708
1712016599526,-1607.0934659070335
1712016599566,-1663.5352488663048
1712016599606,-1607.0934659070335
1712016599647,-755.8093527406454
1712016599686,-755.8093527406454
1712016599726,-755.8093527406454
1712016599767,-755.8093527406454
1712016599807,-596.3249045945704
1712016599847,-68.26242433022708
1712016599887,236.09189169760793
1712016599927,1546.0484736887738
1712016599967,2207.536412109621
1712016600008,3083.6149364146404
1712016600048,4232.767003106885
1712016600088,3046.367099922616
1712016600128,2207.536412109621
1712016600168,236.09189169760793
1712016600208,-596.3249045945704
1712016600249,-755.8093527406454
1712016600288,-1051.1398013927974
1712016600328,-1051.1398013927974
1712016600369,-1051.1398013927974
1712016600409,-1051.1398013927974
1712016600449,-1631.222323117312
1712016600489,-1885.309870608151
1712016600529,-1885.309870608151
1712016600569,-1051.1398013927974
1712016600609,-495.2994037461467
1712016600650,-495.2994037461467
1712016600689,-495.2994037461467
1712016600729,-495.2994037461467
1712016600769,-495.2994037461467
1712016600809,-495.2994037461467
1712016600850,-1975.4848694587126
1712016600890,-2058.9088712893426
1712016600930,-2540.6726161045954
1712016600970,-2902.6667137686163
1712016601010,-2902.6667137686163
1712016601051,-2902.6667137686163
1712016601091,-2902.6667137686163
1712016601130,-2953.0203897906467
1712016601171,-3065.748423712328
1712016601211,-3065.748423712328
1712016601251,-2953.0203897906467
1712016601291,-2718.633792284876
1712016601331,-2718.633792284876
1712016601371,-2718.633792284876
1712016601411,-2718.633792284876
1712016601452,-2718.633792284876
1712016601491,-2718.633792284876
1712016601531,-2718.633792284876
1712016601572,-2718.633792284876
1712016601612,-2953.0203897906467
1712016601652,-3215.6612433046103
1712016601692,-4653.997625587974
1712016601732,-4423.325480722822
1712016601772,-3740.3587795197964
1712016601812,-3215.6612433046103
1712016601853,-3215.6612433046103
1712016601892,-3215.6612433046103
1712016601933,-3141.7571500861086
1712016601973,-3121.552714638412
1712016602013,-2718.633792284876
1712016602054,-1724.0914248758927
1712016602093,-1161.096756075509
1712016602133,-28.71845399029553
1712016602173,-28.71845399029553
1712016602213,-28.71845399029553
1712016602254,-28.71845399029553
1712016602294,-28.71845399029553
1712016602333,-747.4244709946215
1712016602374,-1724.0914248758927
1712016602414,-3121.552714638412
1712016602455,-3121.552714638412
1712016602494,-3121.552714638412
1712016602534,-3121.552714638412
1712016602574,-3121.552714638412
1712016602614,-3121.552714638412
1712016602655,-3141.7571500861086
1712016602695,-3141.7571500861086
1712016602735,-2060.8323964588344
1712016602775,-1724.0914248758927
1712016602815,-930.9060004716739
1712016602856,-930.9060004716739
1712016602895,-930.9060004716739
1712016602935,-930.9060004716739
1712016602975,-930.9060004716739
1712016603015,-930.9060004716739
1712016603056,-930.9060004716739
1712016603096,-2060.8323964588344
1712016603136,-3706.137141501531
1712016603176,-3972.777068789117
1712016603216,-3972.777068789117
1712016603257,-3972.777068789117
1712016603296,-3972.777068789117
1712016603336,-3972.777068789117
1712016603376,-4205.878018895164
1712016603416,-3706.137141501531
1712016603457,-2824.3164756023325
1712016603497,-2060.8323964588344
1712016603537,-930.9060004716739
1712016603577,-926.7748144911602
1712016603617,-456.6037728548981
1712016603658,-456.6037728548981
1712016603697,-456.6037728548981
1712016603738,-456.6037728548981
1712016603778,-926.7748144911602
1712016603818,-2824.3164756023325
1712016603859,-4060.5086373584345
1712016603898,-4272.364755388349
1712016603938,-4272.364755388349
1712016603978,-4272.364755388349
1712016604018,-4272.364755388349
1712016604059,-4272.364755388349
1712016604099,-4537.498163206037
1712016604139,-4537.498163206037
1712016604179,-4060.5086373584345
1712016604219,-3394.437811646145
1712016604260,-3394.437811646145
1712016604299,-3394.437811646145
1712016604339,-3394.437811646145
1712016604379,-3394.437811646145
1712016604419,-3604.1599954431877
1712016604460,-4060.5086373584345
1712016604500,-4541.596260134131
1712016604540,-5125.78071688721
1712016604580,-5254.384453799576
1712016604620,-5319.952703117393
1712016604661,-5319.952703117393
1712016604700,-5319.952703117393
1712016604740,-5319.952703117393
1712016604780,-6154.352198996581
1712016604821,-6196.353682254441
1712016604861,-8358.990264758468
1712016604901,-10819.541128551587
1712016604941,-10905.634180364665
1712016604981,-10905.634180364665
1712016605021,-10905.634180364665
1712016605062,-10905.634180364665
1712016605101,-12454.307986513712
1712016605141,-12584.088065057062
1712016605182,-13548.515271007549
1712016605222,-13889.377339703962
1712016605262,-13911.039044962265
1712016605302,-13988.826808659825
1712016605342,-14595.210819880944
1712016605382,-14766.309195419308
1712016605422,-15019.67310979776
1712016605463,-15286.532220602967
1712016605503,-15286.532220602967
1712016605543,-15286.532220602967
1712016605583,-14766.309195419308
1712016605623,-14595.210819880944
1712016605664,-13889.377339703962
1712016605703,-13648.0674515469
1712016605743,-13648.0674515469
1712016605784,-14766.309195419308
1712016605824,-15286.532220602967
1712016605864,-16713.969395978376
1712016605904,-16787.01695727883
1712016605944,-17526.137518665753
1712016605984,-17526.137518665753
1712016606024,-17526.137518665753
1712016606065,-17526.137518665753
1712016606105,-16787.01695727883
1712016606145,-16713.969395978376
1712016606185,-16704.37111115642
1712016606225,-15286.532220602967
1712016606266,-14367.022348132916
1712016606305,-13648.0674515469
1712016606345,-11891.104486728087
1712016606386,-11891.104486728087
1712016606426,-13284.259275273886
1712016606466,-14367.022348132916
1712016606506,-16704.37111115642
1712016606546,-16713.969395978376
1712016606586,-17684.87181135593
1712016606626,-17779.55486527644
1712016606667,-17779.55486527644
1712016606706,-17779.55486527644
1712016606747,-17779.55486527644
1712016606787,-17684.87181135593
1712016606827,-16704.37111115642
1712016606868,-15898.33188955905
1712016606907,-14367.022348132916
1712016606947,-13646.554141663946
1712016606987,-13284.259275273886
1712016607027,-13284.259275273886
1712016607068,-13284.259275273886
1712016607108,-13646.554141663946
1712016607148,-13717.638291185722
1712016607188,-15898.33188955905
1712016607228,-17684.87181135593
1712016607269,-17900.694979142398
1712016607308,-18621.538054726087
1712016607348,-18621.538054726087
1712016607388,-18621.538054726087
1712016607428,-18621.538054726087
1712016607469,-17900.694979142398
1712016607508,-17313.096011923626
1712016607548,-15898.33188955905
1712016607589,-15503.658731799573
1712016607629,-13717.638291185722
1712016607669,-13717.638291185722
1712016607709,-13717.638291185722
1712016607749,-13717.638291185722
1712016607789,-13717.638291185722
1712016607829,-13717.638291185722
1712016607870,-14688.025463487487
1712016607909,-15503.658731799573
1712016607949,-17313.096011923626
1712016607989,-17313.096011923626
1712016608030,-17313.096011923626
1712016608070,-17313.096011923626
1712016608110,-17313.096011923626
1712016608150,-17313.096011923626
1712016608190,-17313.096011923626
1712016608230,-17168.031836137176
1712016608271,-15503.658731799573
1712016608310,-15203.457151866052
1712016608350,-14688.025463487487
1712016608391,-14688.025463487487
1712016608431,-14688.025463487487
1712016608471,-14688.025463487487
1712016608511,-14688.025463487487
1712016608551,-14688.025463487487
1712016608591,-14688.025463487487
1712016608631,-15203.457151866052
1712016608672,-15204.974079460837
1712016608711,-15911.864394452423
1712016608751,-15204.974079460837
1712016608792,-15203.457151866052
1712016608832,-14739.285719536245
1712016608872,-14125.531827948056
1712016608912,-13663.431798100937
1712016608952,-13636.708693549037
1712016608992,-13531.253465048969
1712016609032,-12743.06765560247
1712016609073,-12105.883425228763
1712016609112,-11451.032400985714
1712016609153,-10510.94094215706
1712016609193,-10301.093429464847
1712016609233,-9135.618574033491
1712016609274,-9134.666829750873
1712016609313,-9134.666829750873
1712016609353,-9134.666829750873
1712016609393,-9134.666829750873
1712016609433,-5994.192287124693
1712016609474,-5886.142999686766
1712016609514,-5499.153531023301
1712016609554,-5057.947507976554
1712016609594,-5011.178695365787
1712016609634,-4728.785409538541
1712016609675,-4416.708027233835
1712016609714,-3919.9931761529297
1712016609754,-3712.7334432252683
1712016609794,-3452.106469616294
1712016609834,-1690.810337074101
1712016609875,-1421.105677220039
1712016609915,-216.12409796891734
1712016609955,-28.25063252542168
1712016609995,-28.25063252542168
1712016610035,-28.25063252542168
1712016610076,-28.25063252542168
1712016610115,-28.25063252542168
1712016610155,-216.12409796891734
1712016610195,-349.3870525783859
1712016610236,-349.3870525783859
1712016610276,-349.3870525783859
1712016610316,-349.3870525783859
1712016610356,-349.3870525783859
1712016610396,-216.12409796891734
1712016610436,-31.04736295901239
1712016610477,659.86670319736
1712016610516,1756.8692967379466
1712016610556,1943.946421759203
1712016610597,2113.633367133327
1712016610637,3980.4537048423663
1712016610677,4100.660615671426
1712016610717,4100.660615671426
1712016610757,4100.660615671426
1712016610797,4100.660615671426
1712016610837,4100.660615671426
1712016610878,3818.335147609003
1712016610917,2113.633367133327
1712016610958,2062.9674715613946
1712016610998,2062.9674715613946
1712016611038,2062.9674715613946
1712016611079,2229.512155275326
1712016611118,2229.512155275326
1712016611158,2340.5426254281774
1712016611199,3041.3685034345835
1712016611239,3818.335147609003
1712016611279,4100.660615671426
1712016611319,5386.026114886161
1712016611359,6130.35389909707
1712016611399,6569.1661338293925
1712016611439,6569.1661338293925
1712016611480,6569.1661338293925
1712016611519,6569.1661338293925
1712016611560,6569.1661338293925
1712016611600,6569.1661338293925
1712016611640,5386.026114886161
1712016611681,4324.433439606801
1712016611720,4324.433439606801
1712016611760,4324.433439606801
1712016611800,4324.433439606801
1712016611840,4324.433439606801
1712016611881,4324.433439606801
1712016611920,4324.433439606801
1712016611960,4324.433439606801
1712016612001,5386.026114886161
1712016612041,5711.356233627535
1712016612082,6569.1661338293925
1712016612121,7375.67212220002
1712016612161,7375.67212220002
1712016612201,7375.67212220002
1712016612241,7375.67212220002
1712016612282,7375.67212220002
1712016612322,6423.649037151597
1712016612362,5711.356233627535
1712016612402,4326.515748548321
1712016612442,4326.515748548321
1712016612483,5048.5839218320325
1712016612522,5711.356233627535
1712016612562,6217.371848301962
1712016612603,6227.50417233631
1712016612643,6258.554792670533
1712016612684,6423.649037151597
1712016612723,6454.465836094692
1712016612763,6721.038581261411
1712016612803,7646.501375393476
1712016612844,8938.154180430342
1712016612885,9106.529107050505
1712016612924,10350.050278474577
1712016612964,10350.050278474577
1712016613004,8938.154180430342
1712016613044,7287.225188721903
1712016613085,6721.038581261411
1712016613125,6454.465836094692
1712016613165,6454.465836094692
1712016613205,6454.465836094692
1712016613245,6454.465836094692
1712016613286,6454.465836094692
1712016613325,6454.465836094692
1712016613365,6721.038581261411
1712016613405,6996.836391564459
1712016613446,7287.225188721903
1712016613487,8682.91435145447
1712016613526,8682.91435145447
1712016613566,8682.91435145447
1712016613606,8682.91435145447
1712016613646,7287.225188721903
1712016613687,6996.836391564459
1712016613727,6044.3768195421435
1712016613767,4691.410689698532
1712016613807,4489.688369102776
1712016613847,4019.244550000876
1712016613888,3790.5388466310687
1712016613927,3790.5388466310687
1712016613967,3696.251758391969
1712016614007,3133.5341380122118
1712016614047,3133.5341380122118
1712016614088,4691.410689698532
1712016614127,5732.418145556003
1712016614167,6044.3768195421435
1712016614208,6044.3768195421435
1712016614248,6044.3768195421435
1712016614289,6044.3768195421435
1712016614328,5732.418145556003
1712016614368,3055.1601967038587
1712016614408,2472.1831566486508
1712016614448,2393.338106011506
1712016614489,2102.593820970971
1712016614528,2075.5356693156064
1712016614568,2075.5356693156064
1712016614608,2075.5356693156064
1712016614649,2075.5356693156064
1712016614690,1883.1355118546635
1712016614729,1626.0415560593829
1712016614769,1165.6723266504705
1712016614809,1165.6723266504705
1712016614849,1165.6723266504705
1712016614890,1165.6723266504705
1712016614929,1165.6723266504705
1712016614969,686.5346687859856
1712016615010,-166.15906542167068
1712016615050,-387.25243771541864
1712016615090,-1240.1296697743237
1712016615130,-1369.3951876289211
1712016615170,-1428.4300182182342
1712016615210,-1719.6932475208305
1712016615250,-1719.6932475208305
1712016615291,-1719.6932475208305
1712016615330,-1719.6932475208305
1712016615370,-1719.6932475208305
1712016615411,-1428.4300182182342
1712016615451,-858.0994919463992
1712016615491,-166.15906542167068
1712016615531,686.5346687859856
1712016615571,841.0274877706543
1712016615611,841.0274877706543
1712016615651,686.5346687859856
1712016615692,-858.0994919463992
1712016615731,-1719.6932475208305
1712016615772,-2010.1012525819242
1712016615812,-2023.6414790540002
1712016615852,-2023.6414790540002
1712016615893,-2023.6414790540002
1712016615932,-2023.6414790540002
1712016615972,-2023.6414790540002
1712016616012,-2297.360654382501
1712016616052,-2297.360654382501
1712016616093,-2010.1012525819242
1712016616133,-1558.637254908681
1712016616173,-1558.637254908681
1712016616213,-1558.637254908681
1712016616253,-1558.637254908681
1712016616294,-2297.360654382501
1712016616333,-3232.0329565200955
1712016616373,-3681.292639937252
1712016616414,-4065.9396884413436
1712016616454,-4066.5811945614405
1712016616495,-4141.705890697427
1712016616534,-4141.705890697427
1712016616574,-4141.705890697427
1712016616614,-4141.705890697427
1712016616654,-4239.07587822713
1712016616695,-4301.925121341366
1712016616735,-5405.283575250767
1712016616775,-5405.283575250767
1712016616815,-5405.283575250767
1712016616855,-5405.283575250767
1712016616896,-5405.283575250767
1712016616935,-5657.923840125091
1712016616975,-6347.987248797901
1712016617015,-7516.555699597113
1712016617056,-7886.4207916054875
1712016617097,-8462.806355415843
1712016617136,-8558.073582333978
1712016617176,-8599.406002473086
1712016617216,-9122.312824453227
1712016617256,-9349.79637552239
1712016617297,-9358.972961587366
1712016617337,-9358.972961587366
1712016617377,-9358.972961587366
1712016617417,-9027.24873567
1712016617457,-7886.4207916054875
1712016617498,-6794.578107199166
1712016617537,-6794.578107199166
1712016617577,-6794.578107199166
1712016617617,-6794.578107199166
1712016617658,-7567.4948225189
1712016617699,-9027.24873567
1712016617738,-10256.89209974045
1712016617778,-10728.431499862112
1712016617818,-10632.877037289552
1712016617858,-10256.89209974045
1712016617899,-9844.877381986938
1712016617939,-9844.877381986938
1712016617979,-9267.968165994622
1712016618019,-9027.24873567
1712016618059,-9002.16478980612
1712016618100,-7740.611097597517
1712016618139,-7567.4948225189
1712016618180,-6794.578107199166
1712016618220,-5825.438100549858
1712016618260,-5825.438100549858
1712016618301,-5825.438100549858
1712016618340,-5825.438100549858
1712016618380,-5825.438100549858
1712016618420,-7567.4948225189
1712016618460,-7669.068037441932
1712016618501,-7740.611097597517
1712016618541,-7669.068037441932
1712016618581,-7512.066678217612
1712016618621,-7512.066678217612
1712016618661,-7289.569081678987
1712016618702,-7227.95902377367
1712016618741,-5944.572642450221
1712016618782,-5825.438100549858
1712016618822,-4085.105468370486
1712016618862,-4040.8969334061258
1712016618903,-4000.134959930554
1712016618942,-2226.1000909702852
1712016618982,-1706.1048036953434
1712016619022,-1706.1048036953434
1712016619062,-1706.1048036953434
1712016619103,-3348.7666979376227
1712016619143,-4000.134959930554
1712016619183,-4040.8969334061258
1712016619223,-5944.572642450221
1712016619263,-5944.572642450221
1712016619304,-5944.572642450221
1712016619343,-5944.572642450221
1712016619384,-5944.572642450221
1712016619424,-5944.572642450221
1712016619464,-5944.572642450221
1712016619505,-5944.572642450221
1712016619544,-5967.347271563951
1712016619584,-5967.347271563951
1712016619624,-5967.347271563951
1712016619664,-5967.347271563951
1712016619705,-5967.347271563951
1712016619745,-5967.347271563951
1712016619785,-5967.347271563951
1712016619825,-5967.347271563951
1712016619865,-6879.142260343302
1712016619906,-7382.950232877862
1712016619945,-7382.950232877862
1712016619986,-7140.6214524861425
1712016620026,-6879.142260343302
1712016620066,-6213.64799764147
1712016620107,-5967.347271563951
1712016620146,-5932.498350161128
1712016620186,-5682.083973542787
1712016620226,-5302.486152809579
1712016620266,-4533.902002322022
1712016620307,-4445.497485666536
1712016620346,-3219.2154198498465
1712016620386,-2966.6793985143304
1712016620426,-1415.920109570492
1712016620467,-1128.9236257155426
1712016620507,-737.7435678937472
1712016620547,-737.7435678937472
1712016620587,-737.7435678937472
1712016620627,-426.17718841228634
1712016620667,-426.17718841228634
1712016620708,-137.0881903669797
1712016620746,-137.0881903669797
1712016620786,-137.0881903669797
1712016620827,-118.40679635759443
1712016620867,200.58594437036663
1712016620907,939.2161618983373
1712016620947,1304.3352127783
1712016620987,1472.0565146747977
1712016621027,3282.272056253627
1712016621067,3795.5884615103714
1712016621108,5290.18160098698
1712016621147,5290.18160098698
1712016621188,5290.18160098698
1712016621228,3282.272056253627
1712016621268,1472.0565146747977
1712016621309,939.2161618983373
1712016621348,728.3690074691549
1712016621388,200.58594437036663
1712016621428,200.58594437036663
1712016621468,200.58594437036663
1712016621509,200.58594437036663
1712016621549,200.58594437036663
1712016621588,200.58594437036663
1712016621629,728.3690074691549
1712016621669,939.2161618983373
1712016621710,1914.227139077615
1712016621749,1914.227139077615
1712016621789,1914.227139077615
1712016621829,1914.227139077615
1712016621869,1914.227139077615
1712016621910,1914.227139077615
1712016621949,728.3690074691549
1712016621990,139.88994603883475
1712016622030,-1060.4253282072023
1712016622070,-1292.2379433750175
1712016622111,-1542.7759109660983
1712016622150,-1542.7759109660983
1712016622190,-1542.7759109660983
1712016622230,-1542.7759109660983
1712016622271,-1542.7759109660983
1712016622311,-1542.7759109660983
1712016622351,-1542.7759109660983
1712016622391,-2991.64054247085
1712016622431,-2991.64054247085
1712016622471,-2991.64054247085
1712016622512,-2991.64054247085
1712016622551,-2991.64054247085
1712016622591,-3163.700684433803
1712016622632,-3530.6652666083537
1712016622672,-3709.2024480775
1712016622712,-4219.36973825749
1712016622752,-4763.341383472085
1712016622792,-5181.548280522227
1712016622832,-5328.090901734773
1712016622872,-6089.472380546853
1712016622913,-6451.404615610838
1712016622953,-6458.928893309087
1712016622993,-7020.684403221589
1712016623033,-11202.55884072883
1712016623073,-14961.074395125732
1712016623114,-16459.20277341269
1712016623153,-16459.20277341269
