Timestamp,Cleaned_PPG
1710832208331,0.0
1710832208371,0.0
1710832208414,0.0
1710832208451,0.0
1710832208492,0.0
1710832208531,0.0
1710832208572,0.0
1710832208612,0.0
1710832208652,0.0
1710832208693,0.0
1710832208732,0.0
1710832208772,0.0
1710832208813,0.0
1710832208853,0.0
1710832208894,0.0
1710832208933,0.0
1710832208973,0.0
1710832209013,0.0
1710832209054,0.0
1710832209095,0.0
1710832209134,0.0
1710832209174,0.0
1710832209214,0.0
1710832209254,0.0
1710832209295,0.0
1710832209335,0.0
1710832209375,0.0
1710832209415,0.0
1710832209455,0.0
1710832209496,0.0
1710832209535,0.0
1710832209575,0.0
1710832209616,2234639.0
1710832209656,2094950.8868347255
1710832209697,1960660.3371630758
1710832209736,1836680.7568518475
1710832209776,1722605.9021616674
1710832209816,1615684.165154761
1710832209856,1515915.3766290175
1710832209897,1422215.704371482
1710832209936,1334354.1904943462
1710832209976,1251884.2941381428
1710832210017,1174384.2998973504
1710832210057,1102565.7881760313
1710832210098,1036120.0795876319
1710832210137,973392.852311112
1710832210177,915033.5578739964
1710832210217,859233.1717702891
1710832210257,806240.5105570001
1710832210300,753672.937666032
1710832210337,703616.3203053991
1710832210378,660343.8560160615
1710832210418,619338.464902071
1710832210458,581305.4336387024
1710832210499,545250.1023154801
1710832210538,512985.51170801674
1710832210578,478835.5014516276
1710832210621,446120.8425890126
1710832210658,419487.13487975695
1710832210700,399300.0190503835
1710832210739,377012.987627462
1710832210779,355648.4458739259
1710832210819,334517.4974858861
1710832210859,314327.824680384
1710832210900,292544.1652104093
1710832210939,270106.13612322835
1710832210979,250928.34596540686
1710832211019,232727.84856502665
1710832211059,216437.60773394117
1710832211101,202095.68620641064
1710832211140,189971.6543673291
1710832211180,179038.27951360587
1710832211220,169300.79503088212
1710832211260,158948.21143761463
1710832211302,150408.45786840376
1710832211340,142312.95693508768
1710832211380,135024.95816119201
1710832211420,126777.05187335983
1710832211461,119894.47292127041
1710832211502,114060.53160218941
1710832211541,106665.31855973834
1710832211581,95408.12046552263
1710832211621,87609.9874632163
1710832211661,80188.29966867343
1710832211702,73905.86028548237
1710832211741,67754.03684930038
1710832211781,63881.255192842335
1710832211822,59952.994337523356
1710832211862,57700.16564239981
1710832211903,54439.39197204448
1710832211942,51809.30386053445
1710832211982,49103.981117543764
1710832212022,47425.917138233315
1710832212062,45781.06153786415
1710832212103,43805.8832964804
1710832212142,42388.971333082765
1710832212183,41892.30328012677
1710832212223,41258.79619246861
1710832212263,39585.206379240844
1710832212305,33152.00037148595
1710832212343,28333.169091708027
1710832212383,25343.32594782673
1710832212423,21809.754342973232
1710832212463,19522.317836935632
1710832212504,18082.3691273015
1710832212544,17937.83378917072
1710832212584,17701.97243817663
1710832212624,17137.797538467683
1710832212664,16771.686855669133
1710832212705,16810.337901939172
1710832212744,17526.537311369088
1710832212784,17683.3481988227
1710832212827,17890.472559617832
1710832212865,18571.7507734932
1710832212906,18481.373934710864
1710832212945,17824.104230910074
1710832212985,18776.403718243353
1710832213025,19411.87653499376
1710832213065,14633.407216011547
1710832213106,11262.31620782381
1710832213145,8745.248355728574
1710832213185,7994.821611255873
1710832213226,7235.55179005675
1710832213266,7110.426651432645
1710832213308,7131.303354152944
1710832213346,7034.221984398086
1710832213386,7050.450011996552
1710832213426,7433.224551189225
1710832213467,8163.555662852246
1710832213508,8669.262026359327
1710832213547,10220.485116666183
1710832213587,10759.072930854745
1710832213627,11815.304293245077
1710832213667,12672.384305633605
1710832213708,13367.029243595898
1710832213748,14156.3009797642
1710832213788,14858.106254490092
1710832213828,15569.619431866333
1710832213868,17097.50627888413
1710832213909,15247.226339975372
1710832213948,10438.880313714966
1710832213988,8883.785603548866
1710832214028,8380.571438634768
1710832214068,8359.82566007087
1710832214110,7819.401809823234
1710832214149,7902.737990162335
1710832214189,7574.926033121534
1710832214229,8266.5498262248
1710832214269,7617.84521094989
1710832214312,8512.54133715108
1710832214350,10296.259512520395
1710832214390,11872.610958057456
1710832214430,12533.39602691494
1710832214470,13536.380098162219
1710832214511,14392.238356799819
1710832214550,14687.535720201675
1710832214590,15147.415308202617
1710832214630,16316.455629372504
1710832214671,17380.921958778054
1710832214712,18293.28968730569
1710832214751,18572.36112705432
1710832214791,15702.6458331123
1710832214831,10354.87570735626
1710832214871,8868.43155151233
1710832214912,7941.42517073499
1710832214952,7794.142872845288
1710832214992,6990.612948893104
1710832215032,7496.544896856882
1710832215072,8468.802732576616
1710832215113,9453.442202601582
1710832215152,9929.08947538212
1710832215193,11457.468316958752
1710832215233,13224.953397516161
1710832215273,13416.408042976633
1710832215315,13719.189634461422
1710832215353,13091.698357916903
1710832215393,13189.103569042403
1710832215434,14020.500285978429
1710832215474,16337.764613675885
1710832215515,17442.087600730825
1710832215554,17261.627643837593
1710832215594,17697.47094878275
1710832215634,15311.992272322066
1710832215674,11456.689047149383
1710832215715,9944.387814700138
1710832215755,6848.822027418762
1710832215795,4488.936586655676
1710832215835,3082.8828603974544
1710832215875,3659.021305942908
1710832215916,2481.6291424571536
1710832215955,1787.6278370930813
1710832215995,2717.3062515431084
1710832216035,4199.241707406472
1710832216075,9275.517049576156
1710832216116,12349.979343840852
1710832216156,16037.274566532113
1710832216196,17848.519744487945
1710832216236,17828.61070969049
1710832216276,18912.16502674576
1710832216318,19736.265893247444
1710832216356,19062.785921690054
1710832216396,15991.062651285436
1710832216436,7832.23363277223
1710832216476,1244.839055028744
1710832216517,-3465.6500862482935
1710832216556,-5361.579084832221
1710832216597,-7058.504751576576
1710832216637,-5977.963506559376
1710832216677,-4552.982015513349
1710832216718,-3545.2670292202383
1710832216757,-5216.82521175174
1710832216797,-5466.507404168136
1710832216837,-3294.0591680100188
1710832216877,-2278.171387796756
1710832216918,-2322.518631744664
1710832216958,-2334.444433464203
1710832216998,-1922.054864263162
1710832217038,1186.9073399496265
1710832217078,-381.5241759605706
1710832217119,-4023.994857288897
1710832217158,-8460.349429403432
1710832217198,-8740.646977802739
1710832217238,-9399.240273213014
1710832217278,-10397.787123971619
1710832217322,-11342.552085266449
1710832217359,-14079.245610625483
1710832217399,-16155.092163269408
1710832217439,-17171.64983271528
1710832217479,-16585.82427135622
1710832217520,-14294.085800638422
1710832217559,-10854.819412180223
1710832217599,-8015.644825990312
1710832217639,-3224.0675365114585
1710832217679,2782.0180707839318
1710832217721,5496.562224431895
1710832217760,3256.1359662581235
1710832217800,1855.16269305069
1710832217840,1244.6195936133154
1710832217880,1026.157740003895
1710832217921,-266.07686691265553
1710832217960,2590.2160965101793
1710832218000,1058.5349662834778
1710832218040,-230.63433063915
1710832218081,262.26630199560896
1710832218122,-2319.833215031773
1710832218161,-242.82268464611843
1710832218201,5887.269312805496
1710832218241,4575.550131451804
1710832218281,-6068.429864149541
1710832218324,-6734.599203343969
1710832218361,-5897.70374453254
1710832218402,-19449.82462999411
1710832218442,-30658.059822842944
1710832218482,-28896.710840892047
1710832218523,-30385.72295229882
1710832218562,-38082.99758357834
1710832218602,-43054.71650529932
1710832218642,-43121.35842399858
1710832218683,-46406.11446643667
1710832218723,-50120.35872978903
1710832218763,-52380.35218049912
1710832218803,-53001.80656696111
1710832218843,-55192.61155120935
1710832218883,-55671.28783564363
1710832218924,-48427.607987929136
1710832218963,-49568.833737628534
1710832219003,-50793.534616823774
1710832219044,-50651.041065907106
1710832219084,-56296.6123368633
1710832219125,-63953.155399614014
1710832219164,-68987.52330522705
1710832219204,-71930.42064840905
1710832219244,-78277.5887859622
1710832219284,-78362.68486685166
1710832219327,-75458.23218789417
1710832219365,-74726.65276612528
1710832219405,-70317.03767254809
1710832219445,-73578.62687513512
1710832219485,-79124.98756038724
1710832219526,-73733.31266969489
1710832219565,-65104.44486910431
1710832219605,-61902.401539882645
1710832219646,-58607.39685259387
1710832219686,-53264.03480533417
1710832219727,-46300.543631796725
1710832219766,-47291.68728194479
1710832219806,-53017.71038463758
1710832219846,-62096.43805113714
1710832219886,-68024.21141983103
1710832219927,-76861.8531383602
1710832219966,-80807.41918220976
1710832220007,-82571.75375905633
1710832220047,-81113.3723543915
1710832220087,-79049.0737864403
1710832220128,-76937.29124390148
1710832220167,-74233.49901048001
1710832220207,-77139.81798783457
1710832220247,-73884.56666000001
1710832220287,-70521.09440182569
1710832220331,-65724.10632267734
1710832220368,-61663.32705403422
1710832220408,-55779.39203423774
1710832220448,-51949.163213821594
1710832220488,-48639.60156360315
1710832220529,-48611.00012866594
1710832220568,-55201.00094353035
1710832220609,-58802.913834198844
1710832220649,-59887.98017243482
1710832220689,-61769.30922267749
1710832220730,-57267.639972852776
1710832220769,-50901.681152052246
1710832220809,-52217.1150438129
1710832220850,-47657.0863953128
1710832220890,-45894.61151502817
1710832220931,-47315.128970114514
1710832220970,-43371.744383114856
1710832221010,-37964.58364873286
1710832221050,-31540.456389936153
1710832221091,-27699.916403580923
1710832221131,-21696.679683202412
1710832221171,-16249.538349444512
1710832221211,-12239.403109031264
1710832221251,-8815.869526567869
1710832221291,-14553.844537908211
1710832221332,-21606.605981077533
1710832221371,-26982.092224643333
1710832221412,-32195.824870157056
1710832221452,-36991.81362042087
1710832221492,-41971.52338062762
1710832221533,-44325.5805189237
1710832221572,-43071.74192934437
1710832221612,-40699.641363593284
1710832221652,-38822.72023903136
1710832221693,-36762.78104260983
1710832221734,-33763.62113778107
1710832221773,-28975.33258392848
1710832221813,-25202.231849902775
1710832221853,-23049.055794304935
1710832221893,-19629.865534791257
1710832221934,-14205.794632456498
1710832221973,-9285.581038199598
1710832222013,-7152.870340616209
1710832222053,-11828.147749336902
1710832222093,-15061.984409994446
1710832222134,-17728.891763692256
1710832222174,-19713.966829762794
1710832222214,-21114.521750144428
1710832222254,-21101.317908142693
1710832222294,-18728.189325417392
1710832222335,-16443.710946223233
1710832222374,-13805.015194414416
1710832222414,-10580.162932389416
1710832222454,-8024.702428296208
1710832222494,-4042.126092219958
1710832222536,-933.3830772989895
1710832222574,3153.5132905258797
1710832222615,7283.273918166524
1710832222655,11143.346748921555
1710832222695,16076.57198864338
1710832222736,19666.65534447087
1710832222775,22532.34150861134
1710832222815,20101.22614953667
1710832222855,14260.70153905917
1710832222896,9588.605100343004
1710832222936,7686.713659583591
1710832222976,6019.496853860328
1710832223016,6329.905612508766
1710832223056,5970.595259814989
1710832223096,7931.16134714894
1710832223137,12859.866464857478
1710832223176,15848.722085749265
1710832223216,18453.17152869841
1710832223256,22344.873076251708
1710832223296,25361.780911931535
1710832223339,29048.292565635405
1710832223377,33976.84206200298
1710832223417,40348.552037295885
1710832223457,46468.332941211294
1710832223497,52977.11736284476
1710832223538,54738.15195642505
1710832223577,58939.34676029906
1710832223617,63311.22347682668
1710832223657,65493.58224463742
1710832223697,66388.93108785618
1710832223738,68752.0152172274
1710832223777,69986.66703106323
1710832223818,70567.04730477137
1710832223858,69793.47774352506
1710832223898,70844.13916688599
1710832223939,71423.34254960762
1710832223978,71198.08062954806
1710832224018,71678.76845376426
1710832224058,71701.00154585065
1710832224098,71773.34861413925
1710832224139,71134.12347151362
1710832224178,67028.62920225505
1710832224219,61633.14286223473
1710832224258,59144.381303868024
1710832224299,57346.6262759394
1710832224339,55666.770343278535
1710832224379,53803.58475982398
1710832224419,52801.90891218558
1710832224459,52223.15022526868
1710832224499,51220.5084201647
1710832224540,50538.81621259451
1710832224579,51279.484538505785
1710832224619,51319.9529796252
1710832224659,50962.67711826647
1710832224700,51213.02813087404
1710832224740,52681.84569399338
1710832224780,51536.00005968986
1710832224820,52974.11044917349
1710832224860,51372.93854092155
1710832224900,44964.44451100053
1710832224941,42734.213162685744
1710832224980,40608.00739549473
1710832225020,38510.662812376395
1710832225060,37283.94276863756
1710832225100,36534.678863718174
1710832225141,37063.60673848912
1710832225181,36372.9961388316
1710832225221,35909.31400606036
1710832225261,35951.6115713492
1710832225301,36441.013675938826
1710832225342,36492.23731939681
1710832225381,36615.0722295912
1710832225421,36308.0973560079
1710832225461,36097.89328840468
1710832225501,36832.417326785624
1710832225542,37948.48683849443
1710832225582,36084.531340158544
1710832225622,31088.658554814756
1710832225662,29819.759944132995
1710832225702,29835.17552047223
1710832225743,29585.468251855113
1710832225782,30062.06949240528
1710832225822,30071.71184759494
1710832225862,30211.48907953454
1710832225903,30463.155181175098
1710832225943,30407.087987277657
1710832225983,31180.314104823396
1710832226023,31706.72356896056
1710832226063,32349.324607247487
1710832226103,33466.53638817929
1710832226144,33276.89285665611
1710832226183,33878.456419629045
1710832226223,34182.45677390741
1710832226264,31312.584778510965
1710832226304,27251.636806312017
1710832226346,25671.798713086173
1710832226384,25717.653250228148
1710832226424,24722.71288489364
1710832226464,24715.094415305648
1710832226504,23029.379413702525
1710832226545,23411.136464302428
1710832226584,23783.538435154594
1710832226625,23992.74036674993
1710832226665,24869.070879477076
1710832226705,26007.99508971721
1710832226746,27562.232050586492
1710832226785,27414.158384648617
1710832226825,27067.23889295943
1710832226865,27109.80076992605
1710832226905,27596.48439473333
1710832226946,22870.123183204792
1710832226985,17126.40986502217
1710832227025,16746.69356549438
1710832227066,14869.543688467704
1710832227106,14826.187621795572
1710832227147,14971.46566703543
1710832227186,16356.186596830375
1710832227226,18139.642412288114
1710832227266,19088.934021100402
1710832227306,21074.335327427834
1710832227347,23276.31660792604
1710832227387,25559.22291906178
1710832227427,29217.326747717336
1710832227467,29573.491017038934
1710832227507,30738.697169915307
1710832227548,30267.98359297728
1710832227587,29834.052312084008
1710832227627,24627.972888512537
1710832227668,19256.072728267405
1710832227708,17380.651460291818
1710832227748,15865.346178776585
1710832227788,16098.17933708895
1710832227828,15569.25456943363
1710832227868,14587.925880680792
1710832227908,13692.218203115743
1710832227949,14915.488314994145
1710832227989,15335.340282758232
1710832228029,16958.514409884345
1710832228069,16574.182793045416
1710832228109,16020.454592023976
1710832228150,16395.805495006964
1710832228189,14871.852058600634
1710832228229,21880.244805162773
1710832228270,21507.143257403746
1710832228310,22966.602616854012
1710832228350,15606.450584490784
1710832228390,6583.993667880073
1710832228430,773.1184702995233
1710832228470,-2243.575387851335
1710832228510,-7405.698676875327
1710832228551,-9410.6299376823
1710832228591,-9251.940385871567
1710832228631,-11505.600428514648
1710832228671,-11566.000705841929
1710832228711,-12519.82456821017
1710832228752,-10920.666446081828
1710832228791,-7572.115101647563
1710832228831,-3773.545879208483
1710832228871,-2218.6965846284293
1710832228912,-801.0668055228889
1710832228952,-5768.374145139474
1710832228992,-8958.856139667332
1710832229032,-12216.21702847397
1710832229072,-14424.462598849088
1710832229112,-15616.485088921152
1710832229153,-14089.024437597953
1710832229192,-12273.294040421024
1710832229232,-12532.099310656078
1710832229272,-11626.991953145713
1710832229312,-11344.68598186737
1710832229354,-8564.155395755544
1710832229393,-5283.809856987558
1710832229433,-4706.3303295499645
1710832229473,-2145.2039696089923
1710832229513,-7216.843608034775
1710832229554,-2764.8582463786006
1710832229593,-7984.774000480305
1710832229633,-10271.412015184294
1710832229673,-14431.54496720992
1710832229713,-16580.23094001226
1710832229754,-20112.29644839093
1710832229793,-19365.681999928784
1710832229833,-19380.13978619082
1710832229874,-18468.800810327753
1710832229914,-16419.394631819334
1710832229954,-16004.455188778229
1710832229994,-15451.031656320672
1710832230034,-13779.052166589536
1710832230074,-13587.87690531183
1710832230114,-13179.942204753403
1710832230155,-16157.185895516537
1710832230194,-20370.876794110052
1710832230234,-22445.5002286043
1710832230274,-36437.057610902935
1710832230314,-30489.7183663724
1710832230355,-14464.392531456891
1710832230395,-1563.0736122531816
1710832230435,9530.588781683706
1710832230475,15073.839768774807
1710832230515,19303.934616536833
1710832230556,22836.64618338598
1710832230595,5313.547235908918
1710832230635,10814.290045751259
1710832230675,8599.263027661946
1710832230716,21528.89156615315
1710832230756,23601.14298270736
1710832230796,29627.909137361217
1710832230836,27036.329646600876
1710832230876,23250.12737744488
1710832230916,17063.42213464994
1710832230957,16139.680912265554
1710832230996,14983.28383748047
1710832231036,15484.069856443442
1710832231077,13871.225578893907
1710832231117,13847.198808554094
1710832231157,12478.076355528552
1710832231197,12068.64862923557
1710832231237,12401.352421434596
1710832231277,14002.07914722152
1710832231317,14396.557272106409
1710832231358,15448.677835885435
1710832231397,15966.357509744354
1710832231437,20543.854457948357
1710832231477,24545.355394348968
1710832231518,24628.28367028758
1710832231558,34983.71911225561
1710832231598,29554.95996918436
1710832231638,22269.664464452304
1710832231678,13060.729779985733
1710832231718,206.79674522718415
1710832231759,-6975.629898144864
1710832231798,-13572.821107510012
1710832231838,-17832.141586990096
1710832231878,2377.802218582481
1710832231919,-1063.345246446319
1710832231959,1509.3354154108092
1710832231999,5354.158628006931
1710832232039,5842.852912445087
1710832232079,4289.815436406992
1710832232119,3638.47494174866
1710832232160,1680.8252675859258
1710832232199,1928.8754977025092
1710832232240,1818.136654629372
1710832232280,3170.565214700997
1710832232320,3602.7100553689525
1710832232362,4353.717354515567
1710832232402,4776.7614954560995
1710832232442,6040.95744522335
1710832232482,6215.069172703195
1710832232522,7867.272702928167
1710832232563,8530.91618095385
1710832232603,9104.598742404021
1710832232643,8448.59143210575
1710832232683,5722.479570510797
1710832232723,3826.932045403868
1710832232764,3340.523792606313
1710832232803,2583.948885609396
1710832232843,2205.2505791201256
1710832232884,2550.70110614039
1710832232924,3103.6814025780186
1710832232964,2840.4755082251504
1710832233004,3993.360510982573
1710832233044,4867.571125838906
1710832233084,5774.072427168954
1710832233124,6584.470465573482
1710832233165,7565.2670861035585
1710832233204,8904.088517655618
1710832233245,7935.207305762451
1710832233284,4651.648621156812
1710832233325,1890.8324852799997
1710832233366,-161.98149584420025
1710832233405,-61.10326188150793
1710832233445,-77.96872537303716
1710832233485,820.673046765849
1710832233525,1081.3143629869446
1710832233566,1543.5837099691853
1710832233605,1652.7178583415225
1710832233645,2481.9280352555215
1710832233686,3496.7259419979528
1710832233726,4264.434279264882
1710832233767,5880.075894777197
1710832233806,6799.387066229712
1710832233846,7770.7312551443465
1710832233886,7791.967240584549
1710832233926,5341.519839427434
1710832233967,2991.7760157971643
1710832234007,2269.9958211383782
1710832234047,1989.6026614452712
1710832234087,2191.5113489716314
1710832234127,2772.874545655679
1710832234168,2842.567307434976
1710832234208,3155.4312894684263
1710832234247,3842.1678752051666
1710832234288,4165.363952999469
1710832234328,4314.073472757358
1710832234369,5232.345143815037
1710832234408,6054.700441224035
1710832234448,6648.7300345553085
1710832234488,6611.297903954983
1710832234528,4883.2825686773285
1710832234569,1859.6809989325702
1710832234609,953.3346760421991
1710832234649,1955.4969212682918
1710832234689,2090.3351629041135
1710832234729,3942.8252175371163
1710832234770,5108.942829856649
1710832234809,7011.634512459859
1710832234849,8657.821336410008
1710832234889,10408.297320400365
1710832234930,11862.570771130268
1710832234970,12893.336535838898
1710832235010,14890.34553234186
1710832235050,16580.668717080727
1710832235090,16365.940680780448
1710832235130,11179.45381659735
1710832235171,7656.330467959866
1710832235211,6848.284812193364
1710832235251,7014.659597245511
1710832235291,6947.095932741184
1710832235331,8138.37016056478
1710832235373,8802.39521689713
1710832235411,9578.139593394008
1710832235451,9974.160529597662
1710832235491,11866.147949874867
1710832235532,13327.857047343627
1710832235572,14053.070489692967
1710832235612,14995.634301321115
1710832235652,15771.637191653252
1710832235692,13584.093711408786
1710832235732,7381.625113977585
1710832235773,4830.024543948006
1710832235812,3732.174225062132
1710832235852,3244.858983568847
1710832235892,2531.9537564534694
1710832235932,2258.7384295500815
1710832235973,3488.513224949129
1710832236013,4014.2578617362306
1710832236053,4815.922619752586
1710832236093,5558.888060680591
1710832236133,7039.794380712323
1710832236174,7491.249471124262
1710832236213,7897.820881207474
1710832236253,8497.875548640266
1710832236293,8551.816543834284
1710832236333,1921.5227523320355
1710832236374,-2280.39905062411
1710832236413,-3164.8300913041458
1710832236454,-4180.702871425077
1710832236494,-4218.22365805041
1710832236534,-3076.834284350276
1710832236575,-2292.210328848567
1710832236614,-1964.8973579863086
1710832236654,-1199.765782814473
1710832236694,-446.03164258692414
1710832236734,337.78408331237733
1710832236775,1372.9715333189815
1710832236814,2277.008702521678
1710832236855,3550.4837944721803
1710832236895,4600.50671622064
1710832236935,6179.108337961137
1710832236976,3438.3208301025443
1710832237015,-2102.6273545995355
1710832237055,-5014.000058917329
1710832237095,-6038.875364235137
1710832237135,-6197.662916549947
1710832237176,-5048.312498755753
1710832237215,-4148.797507823911
1710832237255,-3658.699359461665
1710832237295,-3236.7321896189824
1710832237336,-2193.3284922284074
1710832237376,-1005.6139631476253
1710832237416,-285.58216257113963
1710832237456,643.6847546249628
1710832237496,2347.5696455491707
1710832237536,3381.218955690041
1710832237577,3043.422109310515
1710832237616,3973.870920668356
1710832237656,4472.1114021847025
1710832237697,-58.35148069029674
1710832237737,-3588.273932147771
1710832237777,-3985.5260695391335
1710832237817,-4967.762162714265
1710832237857,-4672.55960226804
1710832237897,-4018.6083849403076
1710832237937,-2932.3042685892433
1710832237978,-3391.645701612346
1710832238017,-2036.7271562442183
1710832238057,-1069.9119699480943
1710832238097,849.1258046850562
1710832238138,2116.357176447287
1710832238178,3943.5213706274517
1710832238218,5197.830955663696
1710832238258,7395.009511640295
1710832238298,9256.616495084018
1710832238338,10853.795431681443
1710832238380,10120.420005772263
1710832238418,5721.287743566558
1710832238458,4445.25627033785
1710832238498,5361.606464184355
1710832238539,7355.918339972384
1710832238579,9268.040381795727
1710832238619,10484.589362741448
1710832238659,11687.596347892657
1710832238699,12611.631634235382
1710832238739,13494.475725199562
1710832238780,14772.109512353316
1710832238819,15399.938839818351
1710832238859,17048.057548349723
1710832238900,17181.13284395542
1710832238940,17082.015701059252
1710832238980,18099.307233280037
1710832239020,18214.691571853124
1710832239060,17697.031158391386
1710832239100,13400.435838054866
1710832239140,9152.46146184951
1710832239181,8534.05627048295
1710832239220,8832.263915762305
1710832239260,10092.16673917789
1710832239300,10254.785703564063
1710832239341,9726.424282041378
1710832239382,9273.68842474278
1710832239421,9977.652211484965
1710832239461,10299.073583653197
1710832239501,10289.905599900521
1710832239541,10380.011735379696
1710832239582,11036.384517448954
1710832239622,11458.25803496223
1710832239662,11628.930631835945
1710832239702,12151.620598674752
1710832239742,12274.603859410621
1710832239783,9070.34700135747
1710832239822,5264.228501268197
1710832239862,4830.66749837948
1710832239902,6482.404540694319
1710832239942,7826.684900254477
1710832239983,8225.592883695848
1710832240023,9361.077432333026
1710832240063,8751.31917191809
1710832240103,9393.28051500395
1710832240143,10415.323114219122
1710832240184,10805.537081430666
1710832240223,10990.855592418928
1710832240263,11167.953016696498
1710832240304,12257.362621596083
1710832240344,12845.96493598912
1710832240385,10306.721558817197
1710832240424,5584.009961302392
1710832240464,5214.588069457561
1710832240504,5675.980504805688
1710832240544,6149.799186272547
1710832240585,6625.250743759796
1710832240625,7402.017331638373
1710832240665,8127.504766188096
1710832240705,7725.858268197626
1710832240745,8360.006132894661
1710832240786,9484.659196135588
1710832240825,9836.801147019956
1710832240865,11050.93989265617
1710832240905,11987.897378467955
1710832240946,12897.827477200422
1710832240987,13074.903876767028
1710832241026,7080.543192666955
1710832241066,1828.5471188970841
1710832241106,-891.3376484485343
1710832241146,-2768.467649064027
1710832241187,-4907.288292625919
1710832241227,-4335.473448453471
1710832241267,-3636.824207568541
1710832241307,-3572.4888946549036
1710832241347,-3261.5135728078894
1710832241389,-2272.1041822992265
1710832241427,-1124.5839399090037
1710832241467,751.0157210468315
1710832241508,3572.6705045560375
1710832241548,4699.371532371268
1710832241589,6113.540372611489
1710832241628,7051.576745556667
1710832241668,633.1629250245169
1710832241708,-5950.429537094198
1710832241748,-11810.610369834118
1710832241789,-14681.212798044086
1710832241829,-17718.97739983909
1710832241869,-18242.421665654518
1710832241909,-17646.793374203146
1710832241949,-16634.313839566894
1710832241990,-14913.277265011333
1710832242030,-12612.347509790212
1710832242070,-8667.006035941653
1710832242110,-6323.723583025858
1710832242150,-3892.0969687919132
1710832242191,-3258.723170094192
1710832242230,-2141.1659235842526
1710832242270,-1345.1172180101275
1710832242310,-1610.7832451350987
1710832242350,-8665.64429486543
1710832242391,-15839.587916351855
1710832242430,-19143.285408398602
1710832242471,-22516.795114228502
1710832242511,-26405.404358184896
1710832242551,-26997.233240434434
1710832242591,-26324.14047420444
1710832242631,-25546.64984142687
1710832242671,-24512.181014464237
1710832242711,-23021.744102547877
1710832242751,-21139.44553257851
1710832242792,-19813.015138105024
1710832242831,-17734.241171388887
1710832242872,-16164.259923927486
1710832242911,-13772.44621448405
1710832242952,-11437.578249186277
1710832242993,-10544.276853666175
1710832243032,-17564.813104775734
1710832243072,-24479.415158157703
1710832243112,-28729.38936447352
1710832243152,-33023.11850596126
1710832243193,-36925.15459684562
1710832243232,-38465.38826151192
1710832243272,-37830.42194287712
1710832243312,-37974.51676643966
1710832243353,-36960.16247994453
1710832243393,-35062.410970433615
1710832243433,-33842.38116807956
1710832243473,-31190.059212588705
1710832243513,-28923.057658703998
1710832243553,-26334.05121773854
1710832243594,-23731.550411636475
1710832243633,-21505.680443178862
1710832243673,-19977.098671069834
1710832243714,-26842.974291196093
1710832243754,-35747.03717685398
1710832243794,-42112.327738164924
1710832243834,-49197.546033586375
1710832243874,-55412.46387168905
1710832243914,-58894.490065031685
1710832243954,-59450.755355377216
1710832243995,-58940.45840203622
1710832244034,-58435.76099628024
1710832244075,-56585.72773409309
1710832244115,-52896.516838591546
1710832244155,-49602.060940179974
1710832244196,-46201.24332992546
1710832244235,-42303.66062641516
1710832244275,-38844.9980816124
1710832244315,-35244.9148159083
1710832244355,-31653.7563435575
1710832244398,-27641.057265527546
1710832244435,-24002.48181677563
1710832244475,-28487.636769783217
1710832244515,-36927.58215313824
1710832244555,-43376.837789929006
1710832244596,-48221.9337418247
1710832244635,-52488.909239524975
1710832244675,-55885.559543018695
1710832244715,-54502.19710008381
1710832244755,-52010.32623647433
1710832244796,-49600.4327132944
1710832244836,-47240.06014132919
1710832244876,-43566.43382296804
1710832244916,-39101.42074706871
1710832244956,-35505.86445676256
1710832244997,-30449.557109760586
1710832245037,-25621.99954637373
1710832245076,-21770.42241455475
1710832245117,-16324.860108430497
1710832245157,-10948.194714988582
1710832245197,-6499.212519165594
1710832245237,-2710.6153053962626
1710832245277,242.32583548687398
1710832245317,-5783.430292262696
1710832245357,-12928.532019467093
1710832245398,-18233.26266994793
1710832245438,-21947.614782954566
1710832245478,-25517.8467792226
1710832245518,-26180.14138943702
1710832245558,-25566.097131864633
1710832245599,-23891.243771083653
1710832245638,-22062.81924885977
1710832245678,-19492.373610842973
1710832245718,-16256.789517835714
1710832245758,-12868.616549597122
1710832245799,-9838.77881027013
1710832245839,-7141.0838771359995
1710832245879,-4271.241903932765
1710832245919,-2035.0643935669214
1710832245959,1200.4084094744176
1710832246000,3504.1898533608764
1710832246039,6188.5448393095285
1710832246079,8735.002084383275
1710832246119,10797.576966137625
1710832246159,7012.883428638801
1710832246200,-191.9672235492617
1710832246240,-3488.7497248202562
1710832246280,-6111.992830151692
1710832246320,-8741.394910994451
1710832246360,-8880.835385598242
1710832246401,-8073.0658492762595
1710832246440,-8757.284698972944
1710832246481,-8650.614086071495
1710832246520,-7647.3906375691295
1710832246561,-7140.69141817186
1710832246602,-6062.888885801658
1710832246641,-5346.726547515485
1710832246681,-4279.270773570985
1710832246721,-3399.0904439380392
1710832246761,-1614.570329528302
1710832246802,202.3928644908592
1710832246842,1688.8523856629618
1710832246882,3675.9173005823977
1710832246922,4652.446691979654
1710832246962,479.98474784521386
1710832247003,-4425.222040396184
1710832247042,-6554.9987326823175
1710832247082,-7384.923213628121
1710832247122,-7618.536839079112
1710832247163,-6367.769888118841
1710832247203,-4042.819562557619
1710832247243,-1789.9999152501114
1710832247283,516.4062267532572
1710832247323,3604.7202962464653
1710832247363,6437.071903195232
1710832247405,8862.46363741206
1710832247443,11887.580318204127
1710832247484,14178.09307478834
1710832247524,16560.472095794044
1710832247564,18800.632499230094
1710832247605,20693.142740181647
1710832247644,19602.96351430472
1710832247684,13860.452764143236
1710832247724,10303.875397337135
1710832247764,8525.076630523428
1710832247805,6559.100405979902
1710832247845,5045.52233028831
1710832247885,5104.747477709781
1710832247925,5566.236697532237
1710832247965,5612.888914524578
1710832248006,6302.925036742352
1710832248045,7577.410285520367
1710832248086,8192.66350744944
1710832248126,10784.61073367158
1710832248166,12605.879487210885
1710832248207,13409.368066785857
1710832248246,15560.652733677067
1710832248286,17513.4706380344
1710832248326,19778.1908165738
1710832248366,19723.431161960587
1710832248408,14164.24946776824
1710832248447,9344.272522766143
1710832248487,6748.118830053601
1710832248527,5110.317264712416
1710832248567,4383.784475333989
1710832248608,4871.150170023087
1710832248647,6201.898845272604
1710832248687,7925.541244421154
1710832248727,9536.529663750902
1710832248767,10724.145236320328
1710832248808,12292.260737892706
1710832248847,13503.238228502218
1710832248888,15185.569124532398
1710832248928,17096.53198810108
1710832248968,18529.849216287024
1710832249009,20105.501546804793
1710832249048,21178.79677752545
1710832249088,22380.33105533477
1710832249128,21951.721197593026
1710832249168,16443.34593695309
1710832249209,12076.000709112268
1710832249249,10404.138977523893
1710832249288,8734.531908429228
1710832249329,7433.007378788199
1710832249369,7662.303368959576
1710832249409,7499.259302355349
1710832249449,7376.754173269495
1710832249489,8194.217878244352
1710832249529,8654.713598522358
1710832249569,10320.541528744157
1710832249610,11463.380977599882
1710832249649,12507.657041228376
1710832249690,13665.043564638123
1710832249730,15342.966888491996
1710832249770,15994.846956968773
1710832249810,15767.648009879515
1710832249850,16131.248660007026
1710832249890,16373.791643404402
1710832249930,13094.82626593206
1710832249970,9951.030488388613
1710832250011,8929.07029307168
1710832250050,8712.791537708603
1710832250091,8714.44380239863
1710832250131,9073.27389387926
1710832250171,9670.039186244365
1710832250212,10044.29877696
1710832250251,10110.246485336684
1710832250291,10916.982991379686
1710832250331,12708.313732733019
1710832250371,13821.507536584511
1710832250414,14559.463089467958
1710832250452,15045.32711358415
1710832250492,16547.838820453733
1710832250532,17427.33854737878
1710832250572,18911.2074286025
1710832250613,19478.485354088247
1710832250652,15252.490095268004
1710832250692,8981.118242101744
1710832250732,5809.31826187484
1710832250772,4033.479418198578
1710832250813,2373.972809343599
1710832250853,503.65853158943355
1710832250893,62.28596594557166
1710832250933,-386.2032272997312
1710832250973,-675.9727562386543
1710832251014,-103.16157880565152
1710832251053,571.884369940497
1710832251093,1762.2254139673896
1710832251134,3234.6220054761507
1710832251174,3766.8354643546045
1710832251214,5321.302730364259
1710832251254,6779.095879350789
1710832251294,7882.233282840345
1710832251334,10009.05593589088
1710832251374,11789.505704621784
1710832251415,8404.965580662712
1710832251454,2868.7382038440555
1710832251494,-559.3996535218321
1710832251535,-2095.538687660359
1710832251575,-3797.986398568377
1710832251615,-4831.13155953167
1710832251655,-4338.77469158452
1710832251695,-3214.202829872258
1710832251735,-2962.820869990159
1710832251775,-2523.263559317682
1710832251816,-1095.314979000017
1710832251855,98.44623256428167
1710832251895,2119.900988973677
1710832251935,3085.1453644009307
1710832251976,4796.753409889527
1710832252017,6682.246937057003
1710832252056,8531.184942439664
1710832252096,10245.256166087463
1710832252136,12628.040385464206
1710832252176,11920.707112985663
1710832252217,4104.962256127037
1710832252256,-2052.7428062856197
1710832252296,-4472.570574306883
1710832252337,-6377.784725958947
1710832252377,-7995.8048056769185
1710832252417,-7984.338579350151
1710832252457,-7153.984275595285
1710832252497,-6915.997880713083
1710832252537,-6274.435929993633
1710832252577,-4445.963189944625
1710832252618,-2806.5736567126587
1710832252657,-744.1487623713911
1710832252697,1545.266757816542
1710832252738,3335.1415096567944
1710832252778,5326.700284828432
1710832252819,6784.8288394855335
1710832252858,8339.528045773506
1710832252898,9516.551773704123
1710832252938,5101.278227999806
1710832252978,-3414.5344795710407
1710832253019,-7256.474637811538
1710832253058,-8151.034137181938
1710832253099,-9772.19504450867
1710832253139,-10342.10217446601
1710832253179,-10667.861766399816
1710832253220,-9595.835841011722
1710832253259,-9823.05577566754
1710832253299,-8771.018229207024
1710832253339,-7445.806506132707
1710832253379,-4948.282454671338
1710832253421,-2682.412818404846
1710832253460,-566.8277684431523
1710832253500,1463.554038757924
1710832253540,3610.7596601815894
1710832253580,5272.583896277007
1710832253621,6606.270284628496
1710832253660,6943.186871359125
1710832253700,-1026.1468524993397
1710832253740,-8959.223651901819
1710832253780,-13539.317362977192
1710832253821,-16635.76606917288
1710832253861,-20095.30737353256
1710832253901,-21935.68855398614
1710832253941,-22218.232403331436
1710832253981,-22445.943865282927
1710832254022,-22396.173498812597
1710832254061,-21443.058511450887
1710832254101,-19374.93334474368
1710832254142,-16774.76252957061
1710832254182,-14368.94787606923
1710832254222,-12857.657286405563
1710832254262,-10899.813217530027
1710832254302,-8864.17350403266
1710832254342,-6909.505284428131
1710832254382,-4490.090355239809
1710832254423,-6953.154605524614
1710832254463,-16042.848898050375
1710832254503,-22469.70189066883
1710832254543,-25607.983323412947
1710832254583,-28704.060219339095
1710832254624,-31041.273262538016
1710832254663,-30929.226032279432
1710832254703,-30319.72173113795
1710832254744,-29329.590904213954
1710832254784,-27206.20231308695
1710832254824,-24941.947694828734
1710832254864,-21587.51691349782
1710832254904,-17331.53011638485
1710832254944,-13546.370475592092
1710832254984,-11152.003691691905
1710832255025,-8268.247782547493
1710832255065,-4976.456472213846
1710832255105,-1372.01606553467
1710832255145,1776.5417924150825
1710832255185,-10968.961693906225
1710832255226,-15292.004391398747
1710832255265,-17012.828342193738
1710832255305,-18390.617813628167
1710832255345,-19079.09901323868
1710832255386,-18118.11156305857
1710832255426,-16836.623247127514
1710832255466,-15851.619895164855
1710832255506,-13554.983168678358
1710832255546,-10518.143049616367
1710832255586,-7584.618200835772
1710832255627,-4033.7984390687197
1710832255666,-836.8568837880157
1710832255706,1448.0959346648306
1710832255746,4360.534588998649
1710832255786,7163.658307087608
1710832255827,9491.990515388548
1710832255866,8066.877721024677
1710832255906,800.6664646756835
1710832255946,-4931.059796109796
1710832255987,-6589.686485879123
1710832256027,-7757.053672271315
1710832256067,-8800.39225418074
1710832256107,-7580.346402156167
1710832256147,-7427.161485028453
1710832256187,-7480.512445223052
1710832256228,-6932.453485376202
1710832256267,-5477.415380541235
1710832256307,-3428.5520784487016
1710832256348,-843.6637177928351
1710832256388,1394.1200891793706
1710832256430,3922.212034975644
1710832256470,6266.365344341844
1710832256510,9717.756180320866
1710832256550,12183.383609900251
1710832256590,7452.134469212033
1710832256631,-1824.8165124594234
1710832256670,-8369.066018868238
1710832256711,-12131.685771829449
1710832256750,-15314.707467693835
1710832256791,-18204.866803882644
1710832256832,-18744.410238442943
1710832256871,-18098.766961041838
1710832256911,-17444.13478019135
1710832256951,-15798.172517479397
1710832256991,-13821.899887213483
1710832257032,-11899.054411077406
1710832257071,-11206.326014828868
1710832257111,-9608.928087746259
1710832257151,-8582.069277960807
1710832257192,-6960.09211627394
1710832257232,-4704.616599599831
1710832257272,-2656.6826311559416
1710832257312,-4948.970469965134
1710832257352,-11327.883194264024
1710832257392,-16699.305662186816
1710832257433,-19960.215831653215
1710832257472,-22723.046183449682
1710832257512,-24184.68910268275
1710832257553,-23191.653160491027
1710832257592,-23657.0466769794
1710832257633,-22241.982511991635
1710832257673,-19997.00727019692
1710832257713,-17550.027184918523
1710832257753,-13915.173559536692
1710832257793,-10990.43022241909
1710832257834,-8401.720875016414
1710832257873,-5951.8558991365135
1710832257913,-3508.0476465793326
1710832257954,-627.8426914731972
1710832257994,1604.8623650986701
1710832258035,2420.094081010204
1710832258074,-2750.5057661365718
1710832258114,-8425.4082237673
1710832258154,-12198.868715728167
1710832258194,-15245.575658375863
1710832258235,-17432.82668454759
1710832258275,-17117.58848511707
1710832258315,-16118.520588463172
1710832258355,-15538.365023382474
1710832258395,-14611.243600141723
1710832258436,-12804.519112847745
1710832258475,-10170.57844799105
1710832258515,-6963.337880467065
1710832258555,-4014.559339625761
1710832258595,-1393.8835263052024
1710832258636,1110.161377191078
1710832258676,4240.3385749901645
1710832258716,7374.27452845918
1710832258756,10257.876264781691
1710832258796,9302.660049740225
1710832258837,1450.9314636206254
1710832258876,-3190.5206961147487
1710832258916,-6292.190396581776
1710832258957,-8922.342407577671
1710832258997,-10896.479754906148
1710832259038,-11164.72008860344
1710832259077,-10244.186520916875
1710832259117,-9718.123872999102
1710832259157,-8600.097543514334
1710832259197,-6626.040384733584
1710832259238,-5260.117458262481
1710832259278,-2460.4001054181717
1710832259318,16.634275706019253
1710832259358,1413.572463109158
1710832259398,3867.1436730995774
1710832259440,7517.678386727814
1710832259478,13969.269690089859
1710832259518,17902.7017839849
1710832259559,19168.946747181937
1710832259599,17368.65338250203
1710832259640,18324.686990928836
1710832259679,18629.92702677753
1710832259719,15561.338101872243
1710832259759,18670.309642176144
1710832259799,21245.206863370724
1710832259840,24985.30568310572
1710832259880,22528.03330101678
1710832259920,23745.139370793477
1710832259960,21712.921720798593
1710832260000,17270.44494502619
1710832260041,16294.88850276731
1710832260081,8833.2092999327
1710832260121,-645.6706091444939
1710832260161,-7647.3251755042
1710832260201,-8555.912494679913
1710832260242,-8384.076872996055
1710832260281,832.4387981602922
1710832260321,22213.879861818627
1710832260361,35219.717867820524
1710832260402,35381.79438294284
1710832260442,58084.772221945226
1710832260482,50279.21702969121
1710832260522,37153.76334771514
1710832260562,22087.301994354464
1710832260602,16371.314816378988
1710832260643,-2831.4429596522823
1710832260683,-8327.433482968714
1710832260723,-421.78460844699293
1710832260763,-15386.794395450037
1710832260803,-5502.625366431661
1710832260844,17975.729707706254
1710832260883,37871.16129890876
1710832260924,38814.86660178378
1710832260963,39398.062840894796
1710832261004,18991.32564343512
1710832261045,16569.888633412775
1710832261084,1848.0317299729213
1710832261124,794.045002724044
1710832261164,358.7414781753905
1710832261204,-5263.866366899572
1710832261245,-4218.483703009784
1710832261285,3502.8271563570015
1710832261325,-106.59386198036373
1710832261365,-4221.401244627312
1710832261405,-636.910052488558
1710832261446,-1067.9399430938065
1710832261485,5456.8609378468245
1710832261525,9152.272036240436
1710832261565,-2824.5226650298573
1710832261605,-27355.411856335588
1710832261646,-22463.37957262993
1710832261686,-8953.306694504805
1710832261726,-41575.59727124311
1710832261766,-48921.58590854611
1710832261806,-47240.82025036123
1710832261847,-39779.74632295314
1710832261886,-35966.94131400203
1710832261926,-14558.116177774034
1710832261966,-16608.59945333097
1710832262006,-2851.0563633306883
1710832262047,33687.39062162442
1710832262086,29327.811663975008
1710832262127,15246.734277012292
1710832262167,3400.73001360707
1710832262207,-7719.943017424084
1710832262248,-21028.105025209486
1710832262287,1465.4575994210318
1710832262327,-13868.086745318025
1710832262367,-5703.126040865667
1710832262407,-1573.6379608539864
1710832262449,15011.404631101526
1710832262488,31164.968201274518
1710832262527,37280.68372320337
1710832262567,25475.421999216545
1710832262608,25816.281364946626
1710832262648,37308.99649641849
1710832262688,22303.996764784213
1710832262728,12248.744148037396
1710832262768,-1399.6457862509415
1710832262808,-2884.8477417132817
1710832262849,16665.269495820627
1710832262888,39675.39219357725
1710832262928,30644.37636197917
1710832262969,4032.9173627933487
1710832263009,-2731.534096886404
1710832263049,-6521.469760101289
1710832263089,-6664.371350622736
1710832263129,-785.0624788138084
1710832263169,-2405.0424771709368
1710832263209,-516.6929743005894
1710832263250,16702.082797329873
1710832263289,2934.086497406941
1710832263330,-9367.68807678204
1710832263370,-4763.1962154647335
1710832263410,-4372.557146644685
1710832263451,-9665.359299522359
1710832263490,-2523.2667386373505
1710832263530,8998.209947292693
1710832263573,11028.298053636216
1710832263610,9754.944679752458
1710832263651,-9312.229653118644
1710832263691,-26510.144658886362
1710832263731,-40943.04720655456
1710832263771,-54909.75243581226
1710832263811,-57626.76278267335
1710832263852,-45599.73284588009
1710832263891,-44129.399937020615
1710832263931,-61396.4306081892
1710832263971,-56301.11097422801
1710832264011,-59192.28956394363
1710832264052,-43699.174666585866
1710832264092,-15522.897831351496
1710832264132,11933.795145690441
1710832264172,25753.27805949049
1710832264212,10160.098698852118
1710832264253,-2443.2298126826063
1710832264292,2386.6891509233974
1710832264332,5798.771572493017
1710832264372,-4679.977185712662
1710832264413,-17516.306129729375
1710832264453,-24130.24421894364
1710832264493,-29064.18542079348
1710832264533,-34821.935216930695
1710832264573,-39261.25735171186
1710832264613,-40510.792597875
1710832264654,-40305.27216049377
1710832264693,-38197.37201495934
1710832264733,-35060.93314842228
1710832264774,-33149.9255297184
1710832264814,-32976.384160412475
1710832264854,-47630.72467588447
1710832264894,-62406.17282503005
1710832264934,-68004.99576478638
1710832264974,-71991.24907231331
1710832265014,-75101.71396116214
1710832265055,-74101.60273319576
1710832265094,-71499.2412672732
1710832265135,-68832.78330245893
1710832265175,-65182.242723907344
1710832265215,-48808.07974287169
1710832265256,-45536.41654148046
1710832265295,-28877.360606535338
1710832265335,-27232.385119397193
1710832265375,-36365.91149996361
1710832265415,-48910.51907952782
1710832265458,-58790.6171244923
1710832265496,-45176.6954621966
1710832265536,-34490.35417456576
1710832265576,-39554.741439314326
1710832265616,-45510.11969251861
1710832265657,-43473.304394629784
1710832265696,-40044.99399773241
1710832265736,-38772.70610725321
1710832265779,-36878.387686342
1710832265817,-35641.3659173348
1710832265858,-31811.73887836514
1710832265897,-30313.97597551346
1710832265937,-26215.065247680992
1710832265977,-23745.69220515946
1710832266017,-21930.564274277072
1710832266058,-20973.648467962863
1710832266098,-27807.6630105176
1710832266138,-38094.35962219117
1710832266178,-45020.666831515264
1710832266218,-48014.77171973884
1710832266259,-48934.310751912184
1710832266298,-50921.06914039701
1710832266338,-53257.74663492991
1710832266378,-52925.058368166676
1710832266418,-50563.59834453487
1710832266459,-46710.468099533115
1710832266499,-41911.14791585738
1710832266539,-33887.71905290196
1710832266579,-28017.365833643125
1710832266619,-21753.89029506757
1710832266660,-14325.34351367876
1710832266700,-10672.298554453999
1710832266740,-15964.631327982992
1710832266780,-19793.29020606028
1710832266820,-20202.638850965537
1710832266861,-21672.536438243696
1710832266900,-22498.697557005566
1710832266941,-20918.503202241613
1710832266980,-18592.033496746095
1710832267021,-15620.91508495761
1710832267062,-12216.701886417344
1710832267101,-8029.687644738704
1710832267141,-7444.133659395156
1710832267181,-3427.2852225198876
1710832267221,-1870.5052088783123
1710832267262,1598.6138002614025
1710832267302,563.5387630099431
1710832267342,-2446.2477567112073
1710832267382,-12963.992486601463
1710832267422,-19216.193504608236
1710832267463,-24040.211127436254
1710832267502,-31349.75453820126
1710832267543,-39367.06713115983
1710832267583,-47302.22897806554
1710832267623,-51242.24586373055
1710832267664,-51529.522303505335
1710832267703,-48423.57121947617
1710832267743,-42545.58330382034
1710832267784,-39051.465722274035
1710832267824,-27565.99669525586
1710832267864,-22097.315534843598
1710832267904,-16833.98410582356
1710832267944,-8755.971766977338
1710832267987,-7231.927324160002
1710832268024,-6867.759003289277
1710832268065,-196.5507686836645
1710832268104,824.1778389038518
1710832268144,6095.720315220766
1710832268184,8904.989330161829
1710832268224,4895.446973145707
1710832268265,-478.91997971828096
1710832268305,-278.83974220161326
1710832268345,3525.2326343094464
1710832268385,7987.373506196309
1710832268425,12222.4950482836
1710832268467,12998.962871631607
1710832268504,15907.223206686322
1710832268544,15052.549285589252
1710832268584,14167.906265997095
1710832268625,6078.331455072621
1710832268665,-3506.597936617909
1710832268705,-12501.370356280822
1710832268745,-18110.71414965205
1710832268785,-23463.32776255114
1710832268825,-26289.58882781351
1710832268866,-20908.893935364205
1710832268905,-22237.24996756576
1710832268945,-22827.72268253099
1710832268986,-24397.465159745887
1710832269026,-26007.093536475673
1710832269066,-22604.75748492009
1710832269106,-15647.066668707877
1710832269146,-8089.916966160061
1710832269186,-7522.883770805318
1710832269226,-12764.209729718976
1710832269267,-16286.097927683033
1710832269306,-19148.13899093028
1710832269346,-23991.291060451884
1710832269386,-21096.971384288976
1710832269427,-25707.8042747702
1710832269467,-28010.972160705365
1710832269507,-23977.17555833794
1710832269547,-18748.496931426693
1710832269587,-17582.199560161447
1710832269627,-15436.350742611336
1710832269668,-10012.059035719838
1710832269707,-2627.684567190241
1710832269747,3720.9565605067182
1710832269787,6750.561977606732
1710832269828,9629.617229567375
1710832269868,8083.53003466595
1710832269908,3880.3016903407406
1710832269948,2867.8671139078215
1710832269988,3812.208395601716
1710832270028,2254.804263843922
1710832270069,3010.0578290484846
1710832270108,5758.157319822814
1710832270148,4307.799747018376
1710832270189,8518.337869712617
1710832270229,11769.064498812892
1710832270270,16137.101854456821
1710832270309,23649.841808244586
1710832270349,33403.60619075084
1710832270389,38312.655328033026
1710832270429,42283.19988483866
1710832270470,45466.01912895264
1710832270510,39299.218754252186
1710832270550,33629.36730250297
1710832270590,32459.572360370308
1710832270630,31103.1621437266
1710832270671,26667.252352520358
1710832270710,21871.72953534918
1710832270750,19508.7482952266
1710832270791,18196.976364081725
1710832270831,17704.22690489283
1710832270871,19134.672460420523
1710832270911,20860.057078722864
1710832270951,22752.43805617676
1710832270991,25215.217178661842
1710832271031,28287.07412435976
1710832271072,30327.138044662075
1710832271112,26613.96726209577
1710832271152,21185.704812298063
1710832271192,17429.01477677864
1710832271232,16741.77767102467
1710832271273,14693.66057858523
1710832271312,13299.111180655658
1710832271352,13351.61086398596
1710832271392,12409.616665677866
1710832271433,12644.743989685085
1710832271475,11911.426472180057
1710832271513,12165.731950475601
1710832271553,12568.544562608004
1710832271593,13035.029248855542
1710832271633,13583.1971569187
1710832271674,14592.855557151604
1710832271713,15365.590951475315
1710832271754,13868.142293166835
1710832271794,7229.489405261353
1710832271834,2176.9263828136027
1710832271875,67.18999147694558
1710832271914,-2230.41017742618
1710832271954,-4154.164779342711
1710832271995,-4093.851473040413
1710832272034,-4768.846885252977
1710832272075,-4901.2022343273275
1710832272115,-4584.784518575529
1710832272155,-3586.1667510750704
1710832272195,-1332.0341981127858
1710832272235,1436.592602227116
1710832272276,4744.400246554054
1710832272315,8334.368957585422
1710832272356,10608.721695846878
1710832272396,13383.75720529724
1710832272436,13861.495229949243
1710832272477,8568.999613519292
1710832272516,3255.242884559091
1710832272556,887.2781999700237
1710832272596,-1484.5345516214147
1710832272636,-2381.8000714196824
1710832272677,-2274.200292881578
1710832272717,-2254.1850925602484
1710832272757,-67.13612091448158
1710832272797,1994.937389328843
1710832272837,5487.930769367609
1710832272878,8723.503652123269
1710832272917,12762.650694477838
1710832272958,18929.77603790816
1710832272998,24711.17010674486
1710832273038,28123.79267991311
1710832273079,31142.986171807162
1710832273118,31335.423104922753
1710832273158,24741.10495533538
1710832273199,19117.213267902378
1710832273238,16900.764400811866
1710832273279,16162.68370496761
1710832273319,14912.938445533626
1710832273359,14106.900019983295
1710832273399,13861.407138166716
1710832273439,12411.948110084748
1710832273480,12033.747896301793
1710832273519,15221.721386688063
1710832273560,20526.25575510948
1710832273600,26258.71223781677
1710832273640,33757.270445597824
1710832273681,39675.751311342465
1710832273720,44773.49985138886
1710832273760,49032.117997496156
1710832273801,51763.158287719125
1710832273841,47793.6574698051
1710832273881,43522.94624985568
1710832273921,38227.930827864446
1710832273961,35734.94966321066
1710832274001,33910.77659634221
1710832274041,33107.263753348496
1710832274082,33764.338742396794
1710832274121,33965.572112384485
1710832274161,34041.81521505071
1710832274201,34362.33765984373
1710832274241,33562.12962979963
1710832274282,32754.159501755144
1710832274322,32573.506908287294
1710832274362,30690.809519491624
1710832274402,28472.526381227188
1710832274442,25202.677408344112
1710832274484,22444.041237252997
1710832274522,18013.52782667009
1710832274562,10231.052078632172
1710832274602,5916.881147456355
1710832274643,4434.72861459665
1710832274683,3072.73931034375
1710832274723,1664.7493432932533
1710832274763,1610.328335057944
1710832274803,1851.5289015453309
1710832274843,1021.5608946462162
1710832274884,1551.6728306631558
1710832274923,3521.997973789461
1710832274963,5092.7749567369465
1710832275003,6856.835661603371
1710832275043,8264.990379506955
1710832275084,9431.490817147307
1710832275124,10164.52416222333
1710832275164,11009.645146577619
1710832275204,13079.976610058453
1710832275244,13709.347132899333
1710832275285,10035.901257071178
1710832275324,5992.492828768212
1710832275365,4395.266224785242
1710832275404,3642.3610311313532
1710832275445,3289.239415856544
1710832275485,2627.0685890712775
1710832275525,3388.526445627678
1710832275565,3673.002835868392
1710832275605,4417.169635048136
1710832275645,5195.773882421665
1710832275686,6914.518257191172
1710832275725,10291.802708649077
1710832275765,13293.823032078799
1710832275806,15557.83024434885
1710832275846,18456.30877591297
1710832275886,21681.306686356664
1710832275926,23990.330263926648
1710832275966,26207.052699883003
1710832276006,26997.86233751243
1710832276046,23647.91504618898
1710832276087,20580.256637049373
1710832276126,19934.224294909276
1710832276166,19126.91995699238
1710832276207,17833.85752596706
1710832276247,17260.13638971746
1710832276287,16800.743706519715
1710832276327,16047.701898583211
1710832276367,15336.537881982047
1710832276407,15524.697881633416
1710832276447,15893.143544747028
1710832276488,16303.069189315662
1710832276528,16286.749799875543
1710832276568,16930.221154896077
1710832276608,17608.524151802994
1710832276648,17730.226789401844
1710832276689,19026.714304940775
1710832276728,19616.732366696
1710832276768,17226.622315024957
1710832276809,12173.054089099634
1710832276848,9856.588847886771
1710832276889,8811.766492144205
1710832276929,8246.369742537849
1710832276969,8351.637001472525
1710832277009,8674.773865730036
1710832277049,9445.180945836939
1710832277090,10386.73112531146
1710832277129,11619.48471408803
1710832277169,12878.971625356004
1710832277210,14463.014809519053
1710832277250,16136.407636571676
1710832277291,17004.267880144063
1710832277330,17708.77303795051
1710832277370,18709.1170732053
1710832277410,19270.18553579878
1710832277450,19779.80292070657
1710832277493,19891.977485860232
1710832277531,17192.645276261494
1710832277571,11451.658002120443
1710832277611,9387.438475052826
1710832277651,8451.850232581142
1710832277692,7864.209526692517
1710832277731,7672.283311520703
1710832277771,7606.220443548635
1710832277811,7999.8142200810835
1710832277852,7638.776077318471
1710832277892,7907.30497991899
1710832277932,9454.065240662545
1710832277972,10138.010150661692
1710832278012,11630.395940555725
1710832278052,13124.917624962982
1710832278093,13351.211332297418
1710832278132,14389.721539170481
1710832278172,15762.378067425452
1710832278213,14660.237596831284
1710832278253,8973.62752663996
1710832278293,6778.011558611412
1710832278333,5663.451771596912
1710832278373,4741.682816407178
1710832278413,4386.5658648293465
1710832278453,4106.712272663601
1710832278494,3463.0912182880566
1710832278533,2574.5112355314195
1710832278574,2814.5286193648353
1710832278614,3126.8678839909844
1710832278654,3241.010361719411
1710832278695,3422.3822686420754
1710832278734,3693.692047682591
1710832278774,3681.6578903403133
1710832278815,4447.170873390511
1710832278855,4016.8711947929114
1710832278896,-1598.8378406623378
1710832278935,-7095.843063218519
1710832278975,-10678.971208096482
1710832279015,-13651.973819663748
1710832279055,-16495.080681841355
1710832279096,-18545.629844605457
1710832279136,-19564.659558056854
1710832279176,-20513.7280006418
1710832279216,-20950.583769530058
1710832279256,-20857.506652067415
1710832279297,-20985.434343189932
1710832279336,-20288.431088747922
1710832279376,-18656.42265274329
1710832279417,-17561.84983411804
1710832279457,-17202.989373780787
1710832279497,-16701.835750656202
1710832279537,-14764.40477602696
1710832279577,-17964.528193833306
1710832279617,-24586.1831154041
1710832279657,-29108.935684585012
1710832279698,-32277.46997601865
1710832279738,-35044.036227280274
1710832279778,-37218.444122337736
1710832279818,-37731.303261170164
1710832279858,-37867.251980513334
1710832279899,-37075.17134710355
1710832279938,-36367.572389266454
1710832279979,-34473.49788559554
1710832280019,-32278.168250895105
1710832280059,-29944.63867757842
1710832280100,-28194.012040228583
1710832280139,-25137.07265123073
1710832280179,-22587.75346599752
1710832280219,-19917.284367908724
1710832280259,-17668.167308051605
1710832280300,-19310.347767094616
1710832280339,-24724.353996735066
1710832280379,-29112.915787963197
1710832280420,-31240.612208935432
1710832280460,-33838.889755637385
1710832280502,-35969.24098030664
1710832280540,-35984.694933904335
1710832280580,-34600.635844275355
1710832280620,-33875.98397535831
1710832280660,-32503.64259611629
1710832280701,-30951.150799110997
1710832280740,-28777.074798517395
1710832280780,-26301.77637869306
1710832280820,-24128.7379914606
1710832280861,-22332.686474505812
1710832280901,-19669.893377158325
1710832280941,-16992.509803584777
1710832280981,-14371.869417628273
1710832281021,-10962.102732220665
1710832281061,-7468.301172052044
1710832281102,-3597.2266426291317
1710832281141,-4051.544057943858
1710832281181,-7981.610994935501
1710832281221,-9941.715055887355
1710832281262,-11438.688953383826
1710832281302,-13702.851323180832
1710832281342,-16082.933483701665
1710832281382,-16544.350190348923
1710832281422,-15988.932247770252
1710832281462,-16174.018141177483
1710832281503,-15932.179288055748
1710832281542,-14428.80561023485
1710832281582,-12777.391879608389
1710832281623,-11315.899535660632
1710832281663,-8596.53494733246
1710832281703,-6419.361755975056
1710832281743,-3985.7558687478304
1710832281783,-1856.5627255337313
1710832281823,953.5008304454386
1710832281863,2888.0906216753647
1710832281904,5827.600355361123
1710832281943,8103.472569096601
1710832281984,6168.734546571039
1710832282023,3109.261674309382
1710832282064,2413.1733902166598
1710832282105,2493.868187825661
1710832282144,2424.1593528592493
1710832282184,3517.912360133836
1710832282224,4205.582049334655
1710832282264,5188.238238155842
1710832282305,5638.773009449476
1710832282345,6516.666432888713
1710832282384,6985.201566377189
1710832282425,8089.174074199516
1710832282465,9754.867674889509
1710832282505,11246.752064677421
1710832282545,12818.16112676356
1710832282585,14674.915123040322
1710832282625,16548.899684058037
1710832282665,18658.79647798324
1710832282706,19762.278881352628
1710832282745,17583.65569879813
1710832282786,14491.438355030958
1710832282826,12599.100771380588
1710832282866,10875.657211652724
1710832282907,9312.556687530596
1710832282946,7846.378936330322
1710832282986,7333.4620714224875
1710832283026,6535.376524242107
1710832283067,5976.54806503444
1710832283107,5461.994613361778
1710832283147,6311.431778791361
1710832283187,6813.4319385387935
1710832283227,8108.642841546331
1710832283267,8930.09235046478
1710832283308,9617.584340534173
1710832283347,9727.192080963403
1710832283387,9683.612186582293
1710832283428,10079.257225897862
1710832283467,10504.917389126029
1710832283510,9102.329004988773
1710832283548,4547.730655983323
1710832283588,1131.873277054634
1710832283628,-1362.9679064424708
1710832283668,-2955.293438489083
1710832283709,-5159.496211524587
1710832283748,-6229.6324879592285
1710832283788,-6548.7957787786145
1710832283828,-7038.289772790857
1710832283868,-7407.224965059198
1710832283909,-6617.9013588349335
1710832283949,-6180.528312565293
1710832283989,-5436.868126598187
1710832284029,-4182.66717942548
1710832284069,-3577.259408679791
1710832284110,-2796.2228026846424
1710832284150,-1297.681359040551
1710832284190,582.0811588221695
1710832284230,1999.9692866778933
1710832284270,3693.899890391156
1710832284311,5407.854432011489
1710832284350,4729.908219135832
1710832284390,3014.97918285802
1710832284430,1917.3635293825064
1710832284470,3327.328895500861
1710832284511,3487.8567764498293
1710832284551,3916.711081539979
1710832284591,5207.599931385834
1710832284631,7135.170288105728
1710832284671,9175.009953839937
1710832284712,10036.075334712397
1710832284751,11216.020942005096
1710832284791,11840.327278144425
1710832284831,11647.78338187933
1710832284872,12192.80007110699
1710832284912,12885.252069121692
1710832284952,13414.072183344979
1710832284992,13712.03724257648
1710832285032,14811.987919907551
1710832285072,15148.003460646374
1710832285113,15612.674727647565
1710832285152,15863.897290254477
1710832285192,15326.90812967997
1710832285233,14761.266766957007
1710832285273,14732.192324149422
1710832285314,13447.524237808306
1710832285353,9175.808712134138
1710832285393,4657.33140085591
1710832285433,2563.7452983492985
1710832285474,319.8069658074528
1710832285514,-1610.2271829000674
1710832285554,-2472.383724387735
1710832285594,-2044.8632556907833
1710832285634,-2064.4669687002897
1710832285674,-2527.885349193588
1710832285715,-1317.3857189626433
1710832285754,-483.5589266316965
1710832285794,341.93406466115266
1710832285835,1610.4484336916357
1710832285875,2611.372024906799
1710832285915,3514.7571887783706
1710832285955,3357.2792858760804
1710832285995,4258.157159153372
1710832286035,5439.044636410195
1710832286075,6487.799828460906
1710832286116,8103.105940395966
1710832286156,10192.519621586893
1710832286196,11453.19370205095
1710832286236,13710.325059535913
1710832286276,16157.412475401536
1710832286317,15035.79503160948
1710832286356,12718.626241737045
1710832286396,13161.52829101868
1710832286437,14370.808890084736
1710832286477,15518.12249649223
1710832286519,17873.458386988845
1710832286557,18869.9372914657
1710832286597,20585.463996181265
1710832286637,21526.25265278481
1710832286677,22936.668432999402
1710832286718,23641.55464383494
1710832286757,25488.83546342887
1710832286798,26800.272472859826
1710832286837,27544.469999653287
1710832286878,27895.953149883542
1710832286918,28398.60273892572
1710832286958,29302.008602545597
1710832286998,29821.18964437209
1710832287038,29760.82037806837
1710832287078,31366.644688285887
1710832287119,31620.031764204614
1710832287158,30116.35966352001
1710832287198,25665.08575367881
1710832287238,23577.92366316449
1710832287278,22284.162381001748
1710832287319,21031.12236200925
1710832287358,20235.837710775435
1710832287399,19478.62266197428
1710832287439,18464.694570325315
1710832287479,17998.961767394096
1710832287520,15891.471397605259
1710832287559,15434.081449896563
1710832287599,15002.028782723006
1710832287639,14797.34063817095
1710832287679,14247.83383377269
1710832287720,13551.71960105747
1710832287760,13520.240151457489
1710832287800,12744.801170521416
1710832287840,13223.583443805575
1710832287880,12829.571201706305
1710832287920,12766.456698328257
1710832287960,12865.3363931356
1710832288000,11207.058627861086
1710832288040,5432.481230914593
1710832288080,1898.5452030310407
1710832288121,-536.35724063823
1710832288160,-3196.0946955736727
1710832288200,-5714.2163987522945
1710832288241,-7587.936222982127
1710832288281,-8824.593787318561
1710832288321,-9499.196092254482
1710832288361,-11507.015157877468
1710832288401,-12351.657198457047
1710832288441,-12520.19759548176
1710832288481,-12448.152898869477
1710832288522,-12131.326414669864
1710832288561,-11882.125534406863
1710832288601,-11599.155147096142
1710832288641,-11797.799397289753
1710832288682,-11118.429488253314
1710832288722,-10435.390346516855
1710832288762,-9796.802264719736
1710832288802,-8463.091088599525
1710832288842,-7190.003793064039
1710832288882,-8129.183578114025
1710832288923,-13291.628289315384
1710832288962,-18293.023661508225
1710832289002,-21913.093009741977
1710832289042,-24585.05312615633
1710832289082,-27942.841364711523
1710832289123,-30323.759848921094
1710832289163,-30866.915621339343
1710832289203,-32120.666566264816
1710832289243,-31887.01791596599
1710832289283,-31748.917641403154
1710832289324,-31232.607283984777
1710832289363,-29882.64091476286
1710832289403,-28336.16035994049
1710832289443,-26261.10852282867
1710832289483,-25005.289768052287
1710832289525,-23325.362419404555
1710832289564,-21078.417331146076
1710832289604,-18065.94077897817
1710832289644,-15137.192156034056
1710832289684,-12633.32524776645
1710832289725,-10326.5447573727
1710832289764,-7737.803987231106
1710832289804,-10980.43179253675
1710832289844,-14637.81488710083
1710832289884,-16721.82215403486
1710832289925,-16999.654160099104
1710832289965,-19163.83808079362
1710832290005,-19937.219403902534
1710832290045,-19640.831654244103
1710832290085,-19218.164715069346
1710832290126,-18926.612639689818
1710832290165,-17537.29325567186
1710832290205,-15873.120558030438
1710832290245,-14398.14211443998
1710832290286,-12634.166069390252
1710832290326,-10596.995255465154
1710832290366,-9902.810641881544
1710832290406,-7624.867396993563
1710832290446,-5836.929721007124
1710832290486,-3515.000454076566
1710832290527,-1702.6728543099016
1710832290566,294.78806390659884
1710832290606,-490.5864858496934
1710832290647,-4795.472909170203
1710832290687,-7268.782233859412
1710832290727,-8644.772920332849
1710832290767,-9504.183198904153
1710832290807,-10366.041838116944
1710832290847,-9712.63528869953
1710832290887,-9706.025395224337
1710832290928,-9944.93495299248
1710832290967,-9032.261319190264
1710832291008,-8687.056551188463
1710832291048,-8458.893472342519
1710832291088,-8095.318338054465
1710832291129,-7777.5208624848165
1710832291168,-7316.746402953053
1710832291208,-7224.280314494856
1710832291249,-6325.207108489238
1710832291288,-5678.915396744385
1710832291329,-4394.813217877876
1710832291369,-3591.7735520075075
1710832291409,-5325.563187514199
1710832291449,-11234.74166767369
1710832291489,-15356.102557937615
1710832291530,-18578.960796295665
1710832291569,-21690.16585724638
1710832291610,-24862.352185329422
1710832291650,-25187.450639234157
1710832291690,-25470.148205209523
1710832291731,-26029.84593356424
1710832291770,-26224.846685266355
1710832291810,-25891.59303299198
1710832291850,-24939.495522247395
1710832291890,-23706.019524387782
1710832291931,-22816.459064091323
1710832291971,-21288.44918606826
1710832292011,-19791.2206944325
1710832292051,-18166.21604292281
1710832292091,-16025.640597667545
1710832292132,-14381.885143043008
1710832292171,-12504.72119578789
1710832292212,-10686.285380539484
1710832292252,-8792.134871467715
1710832292292,-8062.157409952488
1710832292333,-11754.770830608904
1710832292372,-15209.595668026712
1710832292412,-17304.135392892174
1710832292452,-19150.91283262195
1710832292492,-22079.846529053524
1710832292535,-23308.92035889486
1710832292572,-22899.107922058785
1710832292612,-22733.833164613694
1710832292652,-21699.639254350215
1710832292692,-20882.122562660836
1710832292733,-19342.224815178895
1710832292772,-18380.953516263515
1710832292812,-16933.16683998471
1710832292852,-14715.297545832582
1710832292893,-12954.732302000746
1710832292934,-11538.410939404741
1710832292973,-10006.028696160764
1710832293013,-8081.006943313638
1710832293053,-5240.005178456195
1710832293093,-3157.1998293143697
1710832293134,-1499.9907084915321
1710832293174,732.626948879566
1710832293214,3031.9945730981417
1710832293254,3614.606609368231
1710832293294,451.09970055054873
1710832293335,-3738.216407158412
1710832293374,-6039.687222049106
1710832293414,-7845.65286306059
1710832293454,-8484.625484665623
1710832293494,-8020.557793619111
1710832293535,-7321.947649456095
1710832293575,-6853.82473228313
1710832293615,-6460.780211338308
1710832293655,-5853.458210105309
1710832293695,-4988.102680876385
1710832293736,-4121.8821372964885
1710832293775,-2321.2278535205405
1710832293815,-958.3236714545637
1710832293855,350.1719354353845
1710832293896,2164.759142823983
1710832293936,2992.879582697293
1710832293976,4835.081389459781
1710832294016,6347.297782628331
1710832294056,8457.435557476943
1710832294096,9609.789850154193
1710832294137,11174.35761767882
1710832294176,10229.122891890816
1710832294216,7144.705800880678
1710832294256,5790.365646482678
1710832294296,5032.876461643726
1710832294337,3800.7989743780345
1710832294377,2697.3188058519736
1710832294417,3294.436668272596
1710832294457,4212.449131831992
1710832294497,4745.80377690075
1710832294538,5446.540998590644
1710832294577,6555.373650002992
1710832294617,7378.661729000974
1710832294657,8694.672413294902
1710832294697,9762.158264929662
1710832294738,10999.105824930128
1710832294777,12435.570678685093
1710832294818,13377.46767483186
1710832294858,15004.528334964998
1710832294898,16547.966477690265
1710832294939,18602.21508725197
1710832294978,19948.263808523072
1710832295018,21862.584979801904
1710832295058,23181.20338733145
1710832295098,21111.346678078873
1710832295139,17727.551345577696
1710832295178,16736.459530351683
1710832295218,16765.193362027407
1710832295258,16146.47041442804
1710832295299,16087.292910500197
1710832295340,15830.685109167127
1710832295379,16135.270060671028
1710832295419,16055.523598517291
1710832295459,15794.874638524372
1710832295499,16084.384828207083
1710832295541,16515.541963241063
1710832295580,17063.164764696732
1710832295619,17965.762048866134
1710832295660,18593.3889426901
1710832295700,19400.40065561072
1710832295740,19905.088471846422
1710832295780,20983.430663521634
1710832295820,21429.107825651765
1710832295860,21973.706921202596
1710832295900,22667.90578786703
1710832295941,19685.965179735562
1710832295980,17619.832006760873
1710832296020,16582.082568129757
1710832296061,16121.553306126501
1710832296101,14990.349191797432
1710832296142,14488.63133797329
1710832296181,14001.977560713654
1710832296221,12786.652710211463
1710832296261,12126.492223804351
1710832296301,11305.414864086313
1710832296342,10805.982866709586
1710832296382,10370.241708147107
1710832296422,10734.487221755553
1710832296462,9682.192003311822
1710832296502,8541.387312683277
1710832296543,7752.552962094545
1710832296582,7058.241381203756
1710832296622,6923.9822597720195
1710832296662,7235.973530915799
1710832296702,7068.893741931999
1710832296743,6215.381408617599
1710832296783,1111.9638248239644
1710832296823,-4150.997903398238
1710832296863,-7244.8527723965235
1710832296903,-10336.187771679834
1710832296944,-13592.01076249266
1710832296983,-16418.500075523276
1710832297023,-18023.306369837373
1710832297063,-19460.491273287684
1710832297104,-19913.276246743277
1710832297145,-20636.317589999642
1710832297184,-21559.498171096668
1710832297224,-21322.573253529146
1710832297264,-20532.009494175436
1710832297304,-19917.42688895669
1710832297345,-19928.052138837054
1710832297385,-19278.105295197805
1710832297425,-18789.53810484009
1710832297465,-17943.442664104514
1710832297505,-16789.700879717944
1710832297546,-15850.560895323055
1710832297585,-14747.463707757648
1710832297625,-13201.453185317107
1710832297665,-16980.218349979492
1710832297706,-21727.088402166963
1710832297747,-24981.917513242457
1710832297786,-28199.103185463697
1710832297826,-31201.311096932506
1710832297866,-33284.786142399535
1710832297906,-33791.042143419385
1710832297947,-33743.05405974481
1710832297987,-33942.51554854284
1710832298026,-33951.03864530916
1710832298067,-32704.278142220108
1710832298107,-31130.681860936806
1710832298148,-29752.083024424966
1710832298187,-28031.996945656836
1710832298227,-26751.308840085287
1710832298267,-24467.12050559325
1710832298307,-22725.80466341041
1710832298348,-20542.099296086235
1710832298388,-17839.517057066318
1710832298428,-15202.843953379663
1710832298468,-12545.191622321261
1710832298508,-10285.481757795904
1710832298550,-13128.455627797637
1710832298588,-17498.963510761037
1710832298628,-20032.342940373812
1710832298668,-21306.70605773013
1710832298709,-22876.92636164883
1710832298749,-23888.519040711457
1710832298789,-23899.478968637064
1710832298829,-22721.09196449467
1710832298869,-21427.4229961494
1710832298909,-20214.65997938672
1710832298950,-17938.887398908846
1710832298989,-15673.921635970008
1710832299030,-13182.538963343482
1710832299070,-10859.792583818547
1710832299110,-8115.259423231706
1710832299151,-6210.414017944131
1710832299190,-3478.1679748068564
1710832299230,-967.4847765006125
1710832299270,2077.7507312747184
1710832299311,4715.167975870892
1710832299351,5967.610682169907
1710832299391,1522.0282538153697
1710832299431,-1743.0315134418197
1710832299471,-2975.4297673597466
1710832299511,-3576.441205509007
1710832299552,-4554.344155648723
1710832299592,-4740.78177306056
1710832299632,-4117.456434896216
1710832299672,-4411.80423702253
1710832299712,-4053.150381139014
1710832299753,-3874.1569315080997
1710832299792,-2603.13192253164
1710832299832,-1008.0468792112079
1710832299872,640.5923721361905
1710832299912,2325.3329303239007
1710832299953,3159.644783198135
1710832299992,4147.065381960012
1710832300033,5617.711380364839
1710832300073,7114.516699790722
1710832300113,8800.98635201389
1710832300154,8547.877702666912
1710832300193,3652.5472547474783
1710832300233,-1333.4829861228354
1710832300273,-4567.687952239299
1710832300313,-6905.769919789862
1710832300354,-9838.180959494319
1710832300394,-11271.625688110944
1710832300434,-11055.884743025992
1710832300474,-11480.918355294503
1710832300514,-11327.420665812213
1710832300555,-10455.730368399061
1710832300594,-8890.788073429605
1710832300634,-8180.788779449649
1710832300674,-6582.086964645423
1710832300714,-5875.751199220307
1710832300755,-4773.999369224766
1710832300794,-3013.06626716163
1710832300834,-2099.897595763672
1710832300875,-122.4763431570027
1710832300915,1286.0084354407154
1710832300956,3052.5195595594123
1710832300995,4858.687938579358
1710832301035,3565.773432096932
1710832301075,-668.9914877763949
1710832301115,-3496.3290731408633
1710832301156,-5340.049160873983
1710832301195,-7079.550660840003
1710832301236,-8787.219258554047
1710832301276,-9148.82434106199
1710832301316,-8551.946573547553
1710832301357,-7816.798272931017
1710832301396,-7160.251661322545
1710832301436,-6849.2780271293595
1710832301476,-6041.875114038819
1710832301516,-4475.576613893267
1710832301558,-3503.7369233372156
1710832301597,-2593.1643163021654
1710832301636,-374.9804254625924
1710832301677,1048.593855177518
1710832301717,2459.525049797725
1710832301758,4905.416511809453
1710832301797,7517.653555514524
1710832301837,9522.425834103953
1710832301877,11258.349983862834
1710832301917,13364.716000245651
1710832301958,11683.828686505556
1710832301997,8930.077600854915
1710832302037,7344.161387662869
1710832302078,5462.606099683326
1710832302118,3824.341388087487
1710832302159,1575.972601781832
1710832302198,1102.206748532597
1710832302238,508.59292051312514
1710832302278,-471.9161285352893
1710832302318,-1038.9701075418852
1710832302359,-1089.0859203848522
1710832302399,-1089.9990296238102
1710832302439,-475.6301947310567
1710832302479,-311.0848373696208
1710832302519,523.122150039766
1710832302560,1706.9618105310947
1710832302599,2528.8574494104832
1710832302639,3746.0804755601566
1710832302679,5122.62481020391
1710832302719,6912.70741874096
1710832302760,8191.749265108723
1710832302800,10153.98179880809
1710832302840,11894.714515491854
1710832302880,11031.418500780594
1710832302920,7815.3866881036665
1710832302961,6796.715973940212
1710832303000,7043.168986289762
1710832303040,6727.325615680544
1710832303080,5904.479995672125
1710832303120,6944.8423199297395
1710832303161,7367.015070697293
1710832303201,8455.497810394038
1710832303241,9954.303433476016
1710832303281,11074.413692321396
1710832303321,11710.174493978731
1710832303362,13157.69200067548
1710832303401,14431.997616827954
1710832303441,16467.054886469617
1710832303481,17978.806484845467
1710832303522,19621.92794767418
1710832303562,21102.701921282103
1710832303602,22906.823842808604
1710832303642,25010.93390900409
1710832303682,26389.065837210044
1710832303722,26607.485583551927
1710832303763,24704.02636319818
1710832303802,22097.712468515616
1710832303842,20679.485085659195
1710832303883,20613.126054604538
1710832303923,20616.93512377236
1710832303964,20954.215752359014
1710832304003,21870.176376986317
1710832304043,22748.6666272562
1710832304083,22664.458526256494
1710832304123,23313.804491885472
1710832304164,23557.44594413857
1710832304204,24416.93180179526
1710832304244,25862.385150688002
1710832304284,26552.83431680384
1710832304324,27342.869802775094
1710832304365,28668.632748943055
1710832304404,30093.66953157843
1710832304444,31277.390227678
1710832304485,32663.391406197567
1710832304525,33111.48091417458
1710832304567,31369.364469476044
1710832304605,28653.302723298315
1710832304645,26273.29852233827
1710832304685,24953.08059850172
1710832304726,23792.784319848288
1710832304766,22106.035960711073
1710832304806,20673.84182063071
1710832304846,19502.958734523738
1710832304886,18233.311975407647
1710832304926,16252.777365492657
1710832304967,14928.549640077865
1710832305006,14111.053651191527
1710832305046,13128.553260687273
1710832305087,11971.125731366454
1710832305127,11002.421417703852
1710832305168,9525.4001077367
1710832305207,8824.113388181897
1710832305247,8147.828530548839
1710832305287,7779.2878415212035
1710832305328,7908.423640184104
1710832305368,8269.996538595064
1710832305408,5722.315255780704
1710832305448,2494.165459420299
1710832305488,674.8124693161808
1710832305528,-1484.0959811408538
1710832305569,-3470.5066406028345
1710832305608,-6006.328715587035
1710832305649,-6278.928769604303
1710832305689,-6462.66424391279
1710832305729,-6061.767288401956
1710832305770,-6784.045129456557
1710832305809,-7066.813327936921
1710832305849,-6391.169640252367
1710832305890,-6456.629169677384
1710832305930,-6214.5835895943455
1710832305970,-5640.791373775806
1710832306010,-5493.404311800841
1710832306050,-4498.609706604388
1710832306090,-3737.711632290855
1710832306130,999.5481355641969
1710832306171,4143.838226597756
1710832306210,8839.691513546975
1710832306250,10950.732855558163
1710832306291,11182.509571111295
1710832306331,11765.262650735676
1710832306371,12783.670799738728
1710832306411,13702.165213259403
1710832306451,12737.974081140012
1710832306491,12933.347100060666
1710832306531,14042.883067171555
1710832306572,15074.958148388658
1710832306611,15099.89002007898
1710832306651,15141.521382416831
1710832306691,14977.512811425608
1710832306731,15778.443601277191
1710832306772,17228.611265839078
1710832306812,18965.734036074486
1710832306852,19895.454933739267
1710832306892,21231.229037155863
1710832306932,22554.919144168496
1710832306973,23796.87921556318
1710832307012,24293.422911066096
1710832307052,22425.862559456844
1710832307092,19180.79284524778
1710832307132,16143.125573317055
1710832307173,14611.850192877464
1710832307212,12628.338398443535
1710832307253,11271.52515372727
1710832307293,10617.155149900354
1710832307333,8917.640083833598
1710832307374,7632.975562067702
1710832307413,6152.60943657672
1710832307453,5385.334125936963
1710832307493,3787.6851058639586
1710832307533,3248.280378858559
1710832307575,2038.7149745384231
1710832307614,1379.7210695198737
1710832307653,682.6903690374456
1710832307694,-326.1237377692014
1710832307734,-318.3972495277412
1710832307775,-431.123119357042
1710832307814,-376.18655381770805
1710832307854,-1219.1482277605683
1710832307894,-4182.7091830587015
1710832307934,-7005.461222843267
1710832307975,-7437.505350950174
1710832308015,-8220.842076281551
1710832308055,-9820.06261234777
1710832308095,-10497.798136744648
1710832308135,-9744.016032736748
1710832308176,-9659.726450796239
1710832308215,-10967.729394083377
1710832308255,-12362.14555558702
1710832308295,-13030.877209319733
1710832308336,-14182.501090134494
1710832308376,-14497.138968969695
1710832308416,-15782.071414832957
1710832308456,-16825.765107803978
1710832308496,-16688.21295827022
1710832308536,-16660.421131922863
1710832308577,-16184.39422783209
1710832308616,-14942.641571502667
1710832308656,-13238.816978627816
1710832308697,-13291.057868966367
1710832308737,-15298.176845466718
1710832308778,-16508.738113189116
1710832308817,-17262.96273333626
1710832308857,-17850.298825356178
1710832308897,-18782.54391470086
1710832308938,-18667.328523821663
1710832308978,-19307.201586539624
1710832309018,-19674.57843923359
1710832309058,-19448.05472415965
1710832309098,-18440.240666748723
1710832309138,-16396.85926369857
1710832309179,-14573.630209606374
1710832309218,-11935.230029701255
1710832309258,-10277.679250530899
1710832309298,-8841.750562167494
1710832309339,-7253.4590878745075
1710832309379,-5890.190806931816
1710832309419,-4658.455172485905
1710832309459,-3882.7792271994986
1710832309499,-6854.504347043578
1710832309539,-9270.98225281993
1710832309580,-10493.884053698042
1710832309619,-10719.530944310827
1710832309660,-12051.276532751974
1710832309700,-11425.177472133655
1710832309740,-10901.296947108582
1710832309781,-10532.333748248406
1710832309820,-10364.43449638458
1710832309860,-9664.15057715145
1710832309900,-9303.314428849146
1710832309940,-9476.329576891148
1710832309981,-8904.870922080241
1710832310021,-8576.652096000966
1710832310061,-7420.9226628076285
1710832310101,-6086.401785909198
1710832310141,-5153.306051477324
1710832310182,-4070.0484791679773
1710832310221,-3673.5958428559825
1710832310262,-6328.995226854924
1710832310302,-7628.973100090399
1710832310342,-7773.473712821957
1710832310383,-8108.348075025715
1710832310422,-7838.358221957926
1710832310462,-6855.963259124197
1710832310503,-5767.659166029887
1710832310543,-5021.777134892764
1710832310585,-4118.476082320092
1710832310623,-3372.6923442529514
1710832310663,-2128.839181772899
1710832310703,-1129.2026293994859
1710832310743,-676.185003427323
1710832310784,273.64774216269143
1710832310824,747.8327409867197
1710832310864,1833.0273892390542
1710832310904,3108.8772974838503
1710832310944,4556.628837137017
1710832310985,5926.390237828717
1710832311024,6454.973189093871
1710832311064,5454.519233487779
1710832311105,3441.641502223909
1710832311145,2580.47040211875
1710832311186,2673.863209146075
1710832311225,2600.8993262052536
1710832311265,3564.6161012721714
1710832311305,4856.489669799339
1710832311345,5635.802133774385
1710832311386,6079.288653590484
1710832311426,7398.368569931248
1710832311466,7747.035187316826
1710832311506,8593.119659786578
1710832311546,9389.032611821312
1710832311587,9583.468004467431
1710832311626,10620.92135550268
1710832311667,11465.971918139607
1710832311707,12364.469605659833
1710832311747,12577.485019539483
1710832311788,13137.180477825692
1710832311827,15573.815767477732
1710832311868,14686.81831155857
1710832311908,14205.48843943188
1710832311948,15537.728430767544
1710832311989,19833.9862363087
1710832312028,24684.52788896649
1710832312068,29696.319880808704
1710832312108,33457.157037125435
1710832312149,36792.60869623697
1710832312189,38690.998681132216
1710832312229,44201.52778751403
1710832312269,49219.07873106096
1710832312309,53391.45669192867
1710832312349,54919.17503710557
1710832312390,55554.973266873974
1710832312429,54882.094596608076
1710832312469,54276.622009454295
1710832312509,53706.76469824137
1710832312549,53172.19866709877
1710832312590,52169.59264097083
1710832312630,50224.10688877432
1710832312670,46230.01100621279
1710832312710,42109.52127000457
1710832312750,39738.42556513008
1710832312791,36604.07343912963
1710832312830,33795.26664288016
1710832312870,30141.579474659637
1710832312910,28154.99150571879
1710832312950,26228.78970813891
1710832312991,21899.32310531242
1710832313031,22431.261022648774
1710832313071,21687.001069621183
1710832313111,19151.025304263458
1710832313151,15717.294329535216
1710832313192,13924.992104247212
1710832313231,12764.368414131925
1710832313271,12882.709395227022
1710832313311,12004.074601287954
1710832313352,11217.629676480778
1710832313392,9979.670670944732
1710832313432,7824.143742884044
1710832313472,5216.849065984599
1710832313512,-354.1242583254352
1710832313552,-2651.537450367585
1710832313594,-3643.4437705129385
1710832313632,-3927.8913359260187
1710832313672,-4450.845751307439
1710832313712,-3091.6647144583985
1710832313753,-1631.1738825887442
1710832313793,65.54252529144287
1710832313833,2465.592379232403
1710832313873,6222.376991576515
1710832313913,7381.82871178817
1710832313953,9360.542390617076
1710832313994,11835.524398517795
1710832314033,12820.398748659994
1710832314073,11609.148945919238
1710832314113,10900.180025230162
1710832314153,10856.815994848497
1710832314194,9364.504639874678
1710832314234,11032.104339016601
1710832314274,14432.229241863359
1710832314314,10972.91295373533
1710832314354,6087.697446580045
1710832314395,4320.68994065607
1710832314434,4856.149349181913
1710832314474,1262.049821015913
1710832314514,-2342.8590483861044
1710832314555,-5958.430561653804
1710832314596,-7032.958575079218
1710832314635,-7730.585913299583
1710832314675,-9494.028511448298
1710832314715,-10698.1492262627
1710832314755,-12027.98999229353
1710832314796,-13187.421731205657
1710832314836,-14276.73221633304
1710832314875,-15080.898987235036
1710832314916,-16188.680700690486
1710832314956,-16894.122024149634
1710832314997,-18310.061895167455
1710832315036,-18506.578176512383
1710832315076,-17526.399070044048
1710832315116,-16907.88797232276
1710832315156,-20385.44735542219
1710832315197,-25793.118083450012
1710832315237,-30100.95913991984
1710832315277,-32571.060445822775
1710832315317,-35227.27429247601
1710832315357,-37160.964552739635
1710832315398,-39684.95782890171
1710832315437,-41049.88346405374
1710832315477,-41334.7415568186
1710832315517,-42763.61469547078
1710832315558,-43262.28317928314
1710832315598,-43250.148001719266
1710832315638,-42510.96890725335
1710832315678,-41806.07602415141
1710832315718,-40713.38767495891
1710832315758,-38846.15766253788
1710832315799,-35988.50260431506
1710832315839,-33584.485713335685
1710832315879,-32522.920008739457
1710832315919,-32714.460506726056
1710832315959,-32766.47213107813
1710832316000,-36172.16570876632
1710832316039,-40176.79723843699
1710832316079,-42719.69990366697
1710832316120,-44222.25904484
1710832316160,-45631.59322984889
1710832316201,-48431.7719764763
1710832316240,-53476.484289247775
1710832316280,-56326.5054653734
1710832316320,-56903.2195971692
1710832316360,-54632.01218538894
1710832316401,-51459.31789306365
1710832316441,-48450.4941740802
1710832316481,-45828.515343498904
1710832316521,-44964.76809456153
1710832316561,-43289.20419341372
1710832316603,-41223.064479032066
1710832316642,-38703.65983851743
1710832316682,-35299.73107904848
1710832316722,-32301.561251380248
1710832316763,-29922.628261458594
1710832316803,-28699.86404483393
1710832316843,-32104.449235295877
1710832316883,-39899.821549911285
1710832316923,-46211.13753254386
1710832316963,-49564.7148424373
1710832317004,-50588.65145458258
1710832317043,-51439.73341582203
1710832317084,-52720.77942001214
1710832317124,-52099.66366247926
1710832317164,-50913.04176502582
1710832317205,-48943.27503854153
1710832317244,-46055.24101027078
1710832317284,-41091.27849646518
1710832317324,-37324.152490740176
1710832317365,-33860.20818056259
1710832317406,-29980.600301472703
1710832317445,-26674.184168613516
1710832317485,-23530.916239326587
1710832317525,-19147.304282612866
1710832317565,-13705.205627796473
1710832317606,-7066.180218234891
1710832317646,-2962.2135889595374
1710832317686,-3986.4535821317695
1710832317726,-4641.871572178323
1710832317766,-4915.39057383989
1710832317807,-5226.519782352261
1710832317846,-6524.315836037975
1710832317887,-7101.484383761883
1710832317927,-8859.22906700871
1710832317967,-10331.382148128469
1710832318008,-10503.957667739596
1710832318047,-10004.32940999465
1710832318087,-9176.851714271586
1710832318128,-7352.7869263035245
1710832318168,-5900.029656094499
1710832318209,-3327.3416393445805
1710832318248,1370.2475501424633
1710832318288,7025.850998786744
1710832318328,12294.61462436174
1710832318368,16500.329029974062
1710832318409,14684.156646413263
1710832318448,12161.65438135434
1710832318488,11145.688464852516
1710832318529,11840.201643731678
1710832318569,12534.628962031566
1710832318609,12820.334618123714
1710832318649,13129.919549804647
1710832318689,12780.160949808545
1710832318729,11371.469477520557
1710832318769,10767.487595456187
1710832318810,11702.35185578093
1710832318849,11563.997536186827
1710832318889,11665.503325397382
1710832318930,11898.040331644472
1710832318970,12739.311936612241
1710832319010,13183.821364065167
1710832319050,14683.890768574085
1710832319090,14016.844974934123
1710832319130,9752.007248126902
1710832319170,5054.464482562384
1710832319211,3199.9786749179475
1710832319250,2004.4632768814918
1710832319291,-115.76859548757784
1710832319331,-909.0359590100124
1710832319371,-1183.6626972104423
1710832319412,-2142.809915396152
1710832319451,-1481.088485125918
1710832319491,-965.5690881926566
1710832319531,383.29098123149015
1710832319571,1629.9731182977557
1710832319613,3396.4523252851795
1710832319652,4880.722224507248
1710832319692,5730.987814336084
1710832319732,6502.564320389647
1710832319772,7918.598761216737
1710832319813,9261.68470602855
1710832319852,6097.879114000127
1710832319892,1689.1778714321554
1710832319932,-1321.460823724512
1710832319972,-3326.0308118842077
1710832320013,-3849.905305692926
1710832320052,-4304.410441047046
1710832320093,-3451.623030018527
1710832320133,-1587.4597981059924
1710832320173,166.06365813151933
1710832320214,1781.221296884818
1710832320253,3608.5051853568293
1710832320293,5880.408731078729
1710832320333,6526.73153792019
1710832320374,7736.052847836399
1710832320414,7921.044255412184
1710832320454,9133.443694750778
1710832320494,9550.718850185163
1710832320534,10084.482346143574
1710832320574,7826.133264133707
1710832320615,3646.5661927214824
1710832320654,326.53452781098895
1710832320694,-1748.6498650051653
1710832320734,-4260.26873007114
1710832320774,-6510.070960291196
1710832320815,-6383.979381699115
1710832320855,-5870.289283331949
1710832320895,-5273.930458397372
1710832320935,-4660.996086635627
1710832320975,-3881.6468233983032
1710832321016,-2250.491641510278
1710832321055,-1544.4834021844435
1710832321095,-576.2425269172527
1710832321135,877.298537864117
1710832321175,3555.052033143118
1710832321216,5943.504195362562
1710832321256,8360.781264571473
1710832321296,10523.521263515577
1710832321336,10455.416675291955
1710832321376,8966.018292160239
1710832321417,8415.594720901689
1710832321456,8401.268844726495
1710832321496,8274.70332190278
1710832321536,8907.298610834405
1710832321577,9473.544247000478
1710832321617,10749.67482854845
1710832321657,11689.917684441432
1710832321697,12918.971343557816
1710832321737,13973.975069556385
1710832321777,15053.338279926684
1710832321818,15779.805935471319
1710832321857,16887.2478370741
1710832321897,17558.39584935992
1710832321938,19022.64346801536
1710832321978,19738.02339096181
1710832322018,20449.187286392786
1710832322058,19451.229445654433
1710832322098,16838.284280882217
1710832322138,14584.769407836255
1710832322178,13604.180357981008
1710832322219,11821.542659559287
1710832322258,11203.09673909517
1710832322299,11096.759725758806
1710832322339,11664.089151441818
1710832322379,11701.4653797145
1710832322420,12109.082559307339
1710832322459,11925.795068078209
1710832322499,12116.443919718731
1710832322539,12329.298180719372
1710832322579,12808.770448508672
1710832322621,12285.292665458284
1710832322660,12801.84063771693
1710832322700,13239.484165596776
1710832322740,13751.057960510254
1710832322780,13461.767297237646
1710832322821,10144.404441902414
1710832322860,7218.330589806661
1710832322900,4957.190293057822
1710832322940,2662.817904196214
1710832322980,844.0757089282852
1710832323021,-709.8596262596548
1710832323061,-505.3044464662671
1710832323101,-454.55046730372123
1710832323141,463.71962089068256
1710832323181,1537.3304784898646
1710832323222,1963.2854623356834
1710832323262,2983.1585652828217
1710832323302,4224.135232760105
1710832323342,4715.799810039345
1710832323382,5542.594399777707
1710832323423,6512.578934425954
1710832323462,7298.290871630423
1710832323502,8416.111703715287
1710832323542,8961.472935055848
1710832323582,9521.704840592574
1710832323623,7952.30233511026
1710832323663,5738.621281242231
1710832323703,3897.0133352689445
1710832323746,2727.669552451931
1710832323783,1322.5356786493212
1710832323824,398.1605654815212
1710832323864,642.6276964202989
1710832323904,1773.1265005806927
1710832323944,2729.963250721339
1710832323984,3863.2641060308088
1710832324025,5186.296778503107
1710832324064,6557.803136439994
1710832324104,7916.004873035941
1710832324145,9075.862832794897
1710832324185,10196.74723318452
1710832324226,10593.59234298626
1710832324265,10934.119335802738
1710832324305,12324.300308644539
1710832324345,13013.573183425236
1710832324386,14672.896976594813
1710832324426,15505.070753611159
1710832324466,16372.481250158744
1710832324506,17677.163010139717
1710832324546,18400.328816528898
1710832324586,18235.64091342734
1710832324627,16957.493863383308
1710832324666,16277.661552079022
1710832324706,15337.026703649899
1710832324746,13970.760365805123
1710832324786,13120.725390155334
1710832324827,13101.670863606269
1710832324867,12873.242565045366
1710832324907,12522.178471809719
1710832324947,12428.940380586544
1710832324987,12310.501287267078
1710832325028,11910.377754887799
1710832325067,11370.28503064881
1710832325107,11718.992741423426
1710832325147,11774.184986786684
1710832325188,11770.980216917815
1710832325228,11677.039085059427
1710832325268,12326.260330555495
1710832325308,12977.823823116254
1710832325348,13352.582129430957
1710832325388,13456.93355876254
1710832325429,14323.80958441738
1710832325468,14831.399101753952
1710832325508,15209.670804770663
1710832325548,16138.748088008026
1710832325588,16498.483260326786
1710832325630,14532.126882968936
1710832325669,12029.20236662589
1710832325709,10755.710982573684
1710832325749,9643.51785899233
1710832325789,8290.516106336145
1710832325829,7495.28506762255
1710832325869,6615.3755325586535
1710832325909,5942.65384577075
1710832325952,5296.449103002902
1710832325989,5295.093214071589
1710832326030,4532.031093405094
1710832326069,4645.3565965848975
1710832326109,5062.367971930187
1710832326150,4992.1256436230615
1710832326190,5589.841937645804
1710832326231,6475.693957362324
1710832326270,7056.114118424244
1710832326310,8474.684301936068
1710832326350,9541.585700844415
1710832326390,10038.424117081799
1710832326431,10915.89245379623
1710832326470,11458.675006600097
1710832326511,10332.91907814052
1710832326551,7046.09855147358
1710832326591,4825.515717248432
1710832326632,3771.9600181514397
1710832326671,2643.3222854444757
1710832326711,1626.3969076550566
1710832326751,660.3629219844006
1710832326791,796.5928987124935
1710832326832,271.4782708454877
1710832326872,-726.3442800836638
1710832326911,-1173.9841733155772
1710832326952,-947.383573803585
1710832326992,-1144.8200336890295
1710832327032,-690.8862187368795
1710832327072,-471.4724108548835
1710832327112,-97.87642142502591
1710832327152,275.6683998350054
1710832327192,214.27699068095535
1710832327233,376.9591965470463
1710832327272,180.9341530855745
1710832327313,598.5799546460621
1710832327353,787.4746857485734
1710832327393,-1367.1540165776387
1710832327434,-4477.8271478759125
1710832327473,-7322.813016737346
1710832327513,-9481.994349066168
1710832327553,-11725.485426693223
1710832327593,-13996.72057837667
1710832327634,-15214.005057818256
1710832327674,-15371.284088066779
1710832327714,-16312.496323004365
1710832327754,-16187.444847978186
1710832327794,-16404.922715718625
1710832327835,-16003.557250324404
1710832327874,-16280.534146259772
1710832327914,-16066.966813143808
1710832327955,-15710.817779893987
1710832327995,-15211.163177523762
1710832328035,-13966.017031843308
1710832328075,-13331.697373971343
1710832328115,-12314.455482596997
1710832328158,-11216.233884937828
1710832328195,-9824.141545059858
1710832328236,-8762.641174625838
1710832328275,-7625.961591837695
1710832328316,-8122.977710783016
1710832328355,-11237.371388019994
1710832328396,-13444.4853336534
1710832328437,-15227.947253686376
1710832328476,-16659.22026539035
1710832328516,-18076.23420135607
1710832328556,-18999.74210200971
1710832328596,-19234.574843614595
1710832328639,-19567.43629324017
1710832328675,-19291.212126460392
1710832328715,-19814.695350378053
1710832328755,-19448.26788137597
1710832328795,-18926.51505636284
1710832328836,-18417.221520625986
1710832328875,-17308.171570690814
1710832328915,-17000.714673456037
1710832328955,-16320.0904940248
1710832328995,-15047.464691021945
1710832329036,-14240.128886283375
1710832329076,-12625.206807679264
1710832329116,-11486.146425818093
1710832329156,-10214.608014077414
1710832329196,-8757.212433177046
1710832329237,-7377.330504377373
1710832329276,-8809.877045510337
1710832329316,-12351.362403796054
1710832329357,-13672.395301415352
1710832329397,-14761.12041842658
1710832329438,-15512.145077465335
1710832329477,-15911.725944757694
1710832329517,-15862.358595537022
1710832329557,-15550.253958808258
1710832329597,-15096.854149479885
1710832329638,-13916.776873380411
1710832329678,-12809.835263166577
1710832329718,-11468.404159433441
1710832329758,-9983.862092406489
1710832329798,-8186.119154015556
1710832329839,-6243.139242371079
1710832329878,-4305.399824065855
1710832329918,-2422.372884090524
1710832329959,55.655414721462876
1710832329999,2456.35297751287
1710832330040,4458.457165433327
1710832330079,6888.919131277362
1710832330119,9366.13864952419
1710832330159,9356.959370661993
1710832330199,6833.635821168777
1710832330240,4776.62193819182
1710832330280,3979.9637125094887
1710832330320,4045.716630034847
1710832330360,3146.344485900132
1710832330400,3690.866225671023
1710832330441,4021.8486080623697
1710832330481,3793.213888418395
1710832330521,3805.8170535836834
1710832330561,3975.007008818211
1710832330601,4736.685560990591
1710832330642,4760.756090592826
1710832330681,5475.388678169809
1710832330722,6003.370951116551
1710832330762,7079.720575828804
1710832330802,7869.414372624829
1710832330843,8786.314685687423
1710832330882,9420.482513367198
1710832330922,9895.063821241725
1710832330962,5449.271516785491
1710832331002,2547.5226567860227
1710832331043,862.566535863094
1710832331083,-819.8308956830297
1710832331123,-2272.1304695010185
1710832331163,-3771.9760530903004
1710832331203,-4593.745349552948
1710832331243,-5304.280276742298
1710832331283,-5973.882650056155
1710832331323,-5706.512030259008
1710832331363,-5758.030530081131
1710832331403,-5173.516047762241
1710832331444,-3998.8280508783646
1710832331483,-2600.5612869497854
1710832331523,-1940.2981910980307
1710832331564,-471.47726252954453
1710832331604,597.1120534606744
1710832331646,1852.7009371372405
1710832331684,923.0738681913354
1710832331724,-2219.973062509671
1710832331764,-5852.6468231917825
1710832331804,-8108.008439810015
1710832331845,-10204.328645362752
1710832331884,-13332.430325933732
1710832331925,-14992.410391198238
1710832331965,-15443.990494578611
1710832332005,-15805.680309041403
1710832332046,-16111.190820583375
1710832332085,-16126.086079239845
1710832332125,-15648.560649267165
1710832332165,-15095.651935974602
1710832332205,-14631.257557732053
1710832332246,-13940.224416770507
1710832332285,-13881.803430675995
1710832332325,-13460.022554146592
1710832332366,-12609.583048895467
1710832332406,-11602.512883168645
1710832332446,-10746.841990476009
1710832332486,-9439.387353982544
1710832332526,-10699.193843449699
1710832332566,-13999.160748877563
1710832332606,-16150.841288569616
1710832332647,-17939.943432561588
1710832332686,-19456.047310311114
1710832332726,-20894.36476552859
1710832332767,-21628.764285380486
1710832332807,-20410.180345547386
1710832332847,-19867.26912725903
1710832332887,-19318.18337033596
1710832332927,-18162.40548172407
1710832332967,-16228.925628444646
1710832333007,-15056.399045846425
1710832333048,-13118.186450554524
1710832333087,-12189.417569083162
1710832333128,-10887.535118072527
1710832333168,-8823.363093079068
1710832333208,-6757.387111011194
1710832333249,-4832.265687193256
1710832333288,-3034.7347053810954
1710832333328,-1485.120381115703
1710832333368,-420.941824585665
1710832333408,-1808.5550246001221
1710832333449,-4094.5786841460504
1710832333489,-5537.749321849085
1710832333529,-5988.691399869509
1710832333569,-6179.039499847451
1710832333609,-7174.432249046862
1710832333649,-6627.198105585761
1710832333689,-5876.83014425775
1710832333729,-4570.426495097112
1710832333769,-3961.621872517746
1710832333809,-3442.837115628645
1710832333850,-2841.7233009180054
1710832333889,-2294.431896007154
1710832333930,-1251.1747495452873
1710832333970,343.70103263342753
1710832334010,1598.307637871243
1710832334050,3288.983878006693
1710832334090,4862.775129233021
1710832334130,6988.195537858177
1710832334170,9829.318428116385
1710832334210,12257.297249341616
1710832334251,14846.46207399061
1710832334290,17375.634684186894
1710832334331,15861.337046127068
1710832334371,14803.187888137763
1710832334411,14727.294733248185
1710832334452,14481.73544164258
1710832334491,14167.944495202508
1710832334531,14701.72062843619
1710832334571,16275.554516447242
1710832334611,17399.917585524032
1710832334654,18543.8887669337
1710832334692,19408.005490490235
1710832334732,19955.443413574714
1710832334772,20987.88413407281
1710832334812,22037.576122995466
1710832334853,23024.49744429253
1710832334892,24516.684930418618
1710832334932,25608.173303551972
1710832334972,26763.953656029887
1710832335012,27666.2064750907
1710832335053,28028.05924759712
1710832335093,28959.297257601982
1710832335133,29118.889391511213
1710832335173,26857.317855750443
1710832335213,25321.29147357866
1710832335254,24314.887163570616
1710832335294,23345.578787414357
1710832335333,22597.55695169652
1710832335374,21885.638187355828
1710832335414,21880.553817999316
1710832335454,21434.04459071136
1710832335494,21279.18706814875
1710832335534,21291.702429778175
1710832335574,20858.193966004765
1710832335614,21402.583481009817
1710832335655,22613.49453796423
1710832335695,22983.517589292955
1710832335734,23090.474011186976
1710832335775,22846.421876851935
1710832335815,22966.887763918843
1710832335856,21913.07828622125
1710832335895,21825.18984710914
1710832335935,21629.17289435398
1710832335975,18245.43378662225
1710832336016,15653.868197672069
1710832336056,14042.277727673762
1710832336096,11697.393887499813
1710832336136,10185.558514419012
1710832336176,8196.45569756208
1710832336216,7041.419042577501
1710832336257,6356.916238468606
1710832336296,6344.643499016296
1710832336336,6453.167969586793
1710832336376,6056.736796978163
1710832336416,5673.406517479802
1710832336457,5661.491267942125
1710832336497,6174.336054391693
1710832336537,6307.967695846222
1710832336577,6980.719382383395
1710832336617,7317.818905920256
1710832336658,8281.318120338954
1710832336697,8777.651837902376
1710832336738,10031.623233306222
1710832336778,11577.220942817861
1710832336818,12040.84113376867
1710832336859,11749.696061979048
1710832336898,8821.41000673105
1710832336938,7055.940746836364
1710832336979,6228.51801162865
1710832337018,5538.3487610323355
1710832337059,4774.938681575004
1710832337099,4177.262407866539
1710832337139,4807.004018436419
1710832337179,4316.156190582085
1710832337219,3541.528598809149
1710832337260,3206.9351377100684
1710832337299,2967.4851249139756
1710832337340,2577.974338297965
1710832337380,3122.7590106863063
1710832337420,3181.7311369422823
1710832337461,3618.4529950092547
1710832337500,3966.1773088537157
1710832337540,4302.728988354094
1710832337581,4867.386534318328
1710832337620,5316.809720418882
1710832337663,5903.513736703899
1710832337701,6175.3790235868655
1710832337741,7085.224931024015
1710832337781,6905.044835139997
1710832337821,4463.071861778386
1710832337862,1573.219138068147
1710832337901,141.48648982448503
1710832337941,-481.6259106239304
1710832337981,-1568.9977334653959
1710832338021,-2618.506936443504
1710832338062,-2725.0548353474587
1710832338101,-2636.3547082515433
1710832338141,-3220.8103332994506
1710832338182,-2447.6998165179975
1710832338222,-1995.0525913243182
1710832338262,-516.2283976133913
1710832338302,318.2072437289171
1710832338342,1616.5390510912985
1710832338382,2777.7721291910857
1710832338422,3634.47205469897
1710832338463,4901.0019076941535
1710832338502,6136.021011803765
1710832338543,8195.575142723974
1710832338583,9671.143476888537
1710832338623,11214.559331700206
1710832338664,12845.35968292877
1710832338703,12150.324686601758
1710832338743,9044.819206760265
1710832338783,6400.098420456052
1710832338823,5243.950770094059
1710832338864,3649.5452719675377
1710832338904,2383.197944233194
1710832338943,1475.7877686498687
1710832338984,139.78707982040942
1710832339024,-1415.4578897925094
1710832339064,-2280.4061121637933
1710832339104,-1839.2476735743694
1710832339144,-778.0568579379469
1710832339184,547.4763913275674
1710832339224,1313.2596115740016
1710832339265,2185.821843446698
1710832339304,2840.567758801859
1710832339344,3464.8092443747446
1710832339385,4845.887889767997
1710832339425,6237.045996928588
1710832339465,7479.815831957385
1710832339505,8514.755150509533
1710832339545,5534.323142525274
1710832339585,1041.359278941527
1710832339625,-2410.219585996121
1710832339666,-4921.701915890444
1710832339705,-7677.61260609515
1710832339746,-10049.968880360946
1710832339786,-11422.108984987251
1710832339826,-12945.233217701782
1710832339867,-13603.459464211017
1710832339906,-13858.757994724903
1710832339946,-13813.752466995269
1710832339986,-13309.256150599569
1710832340026,-12949.540382782929
1710832340067,-12284.394877444021
1710832340107,-12112.892930645496
1710832340146,-11476.398266206961
1710832340187,-11008.182218539994
1710832340227,-10483.703581133392
1710832340268,-9765.436153312214
1710832340307,-9034.252663550666
1710832340347,-8022.246604274027
1710832340387,-8130.973995844368
1710832340427,-12396.021163031459
1710832340468,-16959.832672832068
1710832340508,-19055.935568147805
1710832340548,-20800.96875491715
1710832340588,-23219.116194540635
1710832340628,-24927.21541734459
1710832340670,-25463.181832174305
1710832340712,-25701.806795732584
1710832340752,-25904.463536303025
1710832340792,-26396.058934137225
1710832340833,-26038.13457554672
1710832340873,-25688.67232678621
1710832340913,-25205.935908035608
1710832340953,-24323.66236363491
1710832340993,-22912.99186886754
1710832341033,-21527.10400656797
1710832341074,-19995.167613106314
1710832341113,-17931.960357071832
1710832341153,-16808.77876436198
1710832341194,-15409.405178120825
1710832341234,-13222.615178517997
1710832341275,-14097.845819360344
1710832341314,-17272.33534525032
1710832341354,-20293.437046227045
1710832341394,-21697.777468938613
1710832341434,-22792.18914978206
1710832341475,-24040.87949621631
1710832341514,-24298.39450538298
1710832341555,-24382.91389715066
1710832341595,-24657.65981102013
1710832341635,-24853.119554660516
1710832341676,-24155.73271963792
1710832341715,-23169.986732968362
1710832341755,-21905.666457884014
1710832341795,-20504.329831439536
1710832341835,-18525.831732661463
1710832341876,-16889.63486058009
1710832341916,-14988.927955171559
1710832341956,-13492.041669982253
1710832341996,-10954.7860357631
1710832342036,-9213.934106010245
1710832342077,-11513.768566777464
1710832342116,-15621.455678235507
1710832342156,-18133.946358754067
1710832342196,-18869.96032990911
1710832342236,-19769.785643938463
1710832342277,-20733.349515794776
1710832342317,-20624.585968247382
1710832342357,-20003.185270664515
1710832342397,-19702.850492738187
1710832342437,-18585.39293739572
1710832342478,-17744.14523720462
1710832342518,-16952.984860063065
1710832342557,-15026.707462687045
1710832342598,-13773.513352242764
1710832342638,-12447.483900188003
1710832342678,-11119.00378298061
1710832342718,-9665.755204076879
1710832342758,-7834.65388651425
1710832342798,-7830.024406902026
1710832342838,-10598.110557725187
1710832342879,-13205.640290829353
1710832342919,-13983.169598653214
1710832342959,-14398.157218006207
1710832342999,-15311.223498634063
1710832343039,-15351.559154204559
1710832343080,-14913.601159222191
1710832343120,-14670.794321845286
1710832343160,-13610.046679526335
1710832343200,-12230.91851939098
1710832343240,-10714.886542402208
1710832343281,-9474.893822949147
1710832343320,-8178.814067950007
1710832343360,-6775.53259615181
1710832343400,-4833.769885529764
1710832343441,-2798.118225055281
1710832343482,-1175.4508458366618
1710832343521,771.2732246895321
1710832343561,3453.5585976883303
1710832343601,1436.347376150079
1710832343641,-59.24491786817089
1710832343684,-338.4926275247708
1710832343722,-213.67854306241497
1710832343762,-50.51951054809615
1710832343802,232.7399163050577
1710832343842,614.6082388982177
1710832343883,1075.7229962777346
1710832343922,1356.020273197908
1710832343963,2728.384613400791
1710832344003,5650.43569109845
1710832344043,7402.759853609372
1710832344084,9136.534447669983
1710832344123,10356.980883250479
1710832344163,12117.661398818716
1710832344203,14500.073702350724
1710832344243,15460.796991260722
1710832344284,17442.428342158906
1710832344323,18085.966176689602
1710832344363,16679.092845946085
1710832344404,15421.724320244044
1710832344444,15645.953190040309
1710832344485,15304.875433394453
1710832344524,15940.667829484213
1710832344564,16983.84366217139
1710832344604,17890.16849379684
1710832344644,19036.331046435516
1710832344685,19341.00262650661
1710832344724,20284.818326549605
1710832344765,21199.297177019995
1710832344805,22223.698237987235
1710832344845,22051.446134020807
1710832344886,23651.963736557867
1710832344925,24790.20702034468
1710832344965,26154.32824693923
1710832345005,27661.598125990713
1710832345045,28412.113458177308
1710832345086,27785.977106979582
1710832345125,25464.705862623872
1710832345166,23455.021402912214
1710832345206,23115.85859064106
1710832345246,22031.062694058754
1710832345287,21805.901287455577
1710832345326,21369.197333021788
1710832345366,21419.874240715522
1710832345406,20894.939410577528
1710832345446,20293.413046883652
1710832345487,19134.388971602777
1710832345527,19289.832736308454
1710832345567,19184.378519858466
1710832345607,19269.12726271851
1710832345647,19079.301370552042
1710832345688,19683.60966927465
1710832345727,19353.62954579573
1710832345767,19957.942044305615
1710832345807,19111.695263750385
1710832345847,15698.559955723118
1710832345888,12439.858451943379
1710832345928,10469.91963963164
1710832345968,8785.89493676275
1710832346008,7482.1869324431755
1710832346048,6597.779648978729
1710832346089,6908.716445393395
1710832346128,6676.926555280574
1710832346168,5857.329448551172
1710832346208,5131.17161940597
1710832346249,4764.5470182201825
1710832346289,4401.557759943418
1710832346329,4412.73259035754
1710832346369,3703.479677860625
1710832346409,3565.8221399928443
1710832346449,3731.2678667218424
1710832346490,2984.727039789781
1710832346529,3501.244481534697
1710832346569,1429.2047520549968
1710832346609,-2043.8265455472283
1710832346649,-4546.265817132546
1710832346692,-6240.653934899019
1710832346730,-7678.712584438268
1710832346770,-8923.378760055173
1710832346810,-9406.702579407254
1710832346850,-9320.524240772706
1710832346891,-9251.925724080065
1710832346930,-8866.013307656394
1710832346970,-8266.028391692787
1710832347010,-7386.295071204659
1710832347050,-6392.048823354766
1710832347091,-5831.00148790516
1710832347131,-5206.237517828122
1710832347171,-4147.900520381983
1710832347211,-3110.3904139483348
1710832347251,-2042.3616083096713
1710832347292,-839.9646482274402
1710832347331,-678.1396554936655
1710832347371,-4145.274605704937
1710832347411,-7471.02320088353
1710832347451,-9359.752794489032
1710832347492,-10503.52542130882
1710832347532,-12010.850613546092
1710832347572,-12579.345576403197
1710832347612,-12142.850091255736
1710832347652,-11747.092383800773
1710832347693,-11217.8750292263
1710832347732,-10380.851556420326
1710832347772,-9521.061835558154
1710832347813,-8979.314769473393
1710832347852,-8121.148401239654
1710832347893,-7277.68257944379
1710832347933,-6077.750162770506
1710832347973,-4806.746431054315
1710832348013,-3865.095678929705
1710832348053,-2234.2031137263402
1710832348094,-699.9997481433675
1710832348133,292.32903034612536
1710832348174,802.2838612375781
1710832348214,-3148.4129377556965
1710832348254,-6464.7849485091865
1710832348295,-7672.304544695653
1710832348334,-8653.226933097001
1710832348374,-9196.52466685418
1710832348414,-8613.533979736967
1710832348454,-8369.531287049409
1710832348495,-8147.967083482305
1710832348535,-7383.03698320291
1710832348575,-6463.864916041959
1710832348615,-4983.213432145305
1710832348655,-4201.090920693474
1710832348696,-2610.65459652734
1710832348735,-1342.5337334675714
1710832348776,-144.85709558962844
1710832348816,1546.3832224418875
1710832348856,2998.11381525849
1710832348897,4745.730181328254
1710832348936,6091.883454127237
1710832348976,7855.69546324783
1710832349016,8680.276454980718
1710832349056,6926.041889597662
1710832349097,5275.037652174011
1710832349137,5252.3494607573375
1710832349177,5709.890848183772
1710832349217,6042.428560739849
1710832349257,6568.61097310856
1710832349298,7068.773529730737
1710832349337,7535.077975022141
1710832349378,8076.316357142758
1710832349417,9905.786391792819
1710832349458,10512.826635027304
1710832349499,12308.309156802949
1710832349538,14120.971140351845
1710832349578,15508.09582369076
1710832349618,16883.73683151533
1710832349658,18070.759277262958
1710832349701,18967.332029952435
1710832349739,20755.955150974914
1710832349779,21873.94445501687
1710832349819,20468.70932650147
1710832349859,17676.71191158425
1710832349900,16220.317486561136
1710832349940,16021.82096209214
1710832349980,15812.057893847348
1710832350020,15890.805689581437
1710832350060,16090.443225633819
1710832350101,15500.103124763351
1710832350140,15617.206810239237
1710832350180,14733.127525694668
1710832350221,14984.959238554351
1710832350261,14865.71270956751
1710832350302,14862.57607792085
1710832350341,14776.859993344173
1710832350381,14873.540078962222
1710832350421,14359.572542909067
1710832350461,14645.751593275229
1710832350502,14654.902084318688
1710832350541,12534.126103887334
1710832350581,9229.893830942921
1710832350621,6925.957919614855
1710832350661,5686.409420866286
1710832350702,3822.728412080556
1710832350742,2848.4896789342165
1710832350782,2129.7040242226794
1710832350822,1510.6695775964763
1710832350862,1032.8811148614623
1710832350903,695.3892066052649
1710832350942,704.3427278648596
1710832350982,818.1517432718538
1710832351022,94.67787384311669
1710832351062,652.5102817304432
1710832351103,1103.2711287005804
1710832351142,1899.6420994731598
1710832351183,1633.6626565598417
1710832351223,2518.5417045047507
1710832351263,2197.3119590939023
1710832351304,-1435.1339186734986
1710832351343,-5190.968521828996
1710832351383,-7489.822186826961
1710832351423,-9030.490070319735
1710832351463,-10604.141797600314
1710832351504,-11351.792166049127
1710832351544,-11371.44051842275
1710832351584,-11751.423534936272
1710832351624,-11508.092002368998
1710832351664,-11676.70535629848
1710832351705,-11278.538471475942
1710832351744,-11207.80062602926
1710832351784,-11082.26232716022
1710832351824,-11190.643584225094
1710832351864,-10518.944685917813
1710832351905,-10094.038319480605
1710832351945,-9674.873058021767
1710832351985,-8811.141254378483
1710832352025,-7991.8955979710445
1710832352065,-9654.605197544908
1710832352105,-13998.070255926345
1710832352145,-16423.188825460616
1710832352185,-18050.693308874266
1710832352225,-20140.123243434122
1710832352265,-21933.78646979551
1710832352306,-22111.33241997054
1710832352345,-22556.045747230062
1710832352386,-22669.433485368732
1710832352426,-22739.571309618885
1710832352466,-22143.31892039627
1710832352507,-21308.228106303606
1710832352546,-20350.368391899392
1710832352586,-19105.745491458103
1710832352626,-17568.560880070552
1710832352666,-16572.42034560931
1710832352709,-15018.29147547041
1710832352744,-13068.424744715448
1710832352784,-11805.071327473968
1710832352824,-10587.96170971496
1710832352864,-9381.576443836559
1710832352905,-11916.705102183856
1710832352944,-15033.734534177464
1710832352984,-16770.154876852408
1710832353024,-17425.670379220974
1710832353064,-18488.853157376405
1710832353105,-19332.432324434398
1710832353145,-18869.247874193592
1710832353185,-18198.612303828355
1710832353225,-17304.156411034055
1710832353265,-16244.791524929926
1710832353306,-15292.776577709708
1710832353345,-13151.514959312277
1710832353385,-10877.667377896141
1710832353425,-9253.333236505743
1710832353466,-7403.342213944998
1710832353506,-5437.012948145624
1710832353546,-3114.489543495467
1710832353586,-988.8017203484196
1710832353626,1231.680960197933
1710832353666,3660.2892519666348
1710832353707,6343.892731716158
1710832353746,8703.572070912458
1710832353787,7756.697651745286
1710832353827,5059.243486159714
1710832353867,4873.912861933
1710832353908,4684.147769629024
1710832353947,5276.934771927539
1710832353987,4792.995323879644
1710832354027,5558.999786834931
1710832354068,6572.606053987984
1710832354108,7399.773927000118
1710832354148,8109.222018327564
1710832354188,9580.196288104868
1710832354228,10377.687005479354
1710832354268,11298.860209354432
1710832354309,12512.418702671304
1710832354348,14008.290835895576
1710832354388,15707.730377142085
1710832354429,16601.75263594743
1710832354469,17555.66459656926
1710832354509,18429.92321982514
1710832354549,19351.260337322485
1710832354589,16820.371817315463
1710832354629,13842.769233486615
1710832354669,11526.28685909696
1710832354710,10362.815070201876
1710832354750,9478.545555648394
1710832354790,9073.515565654961
1710832354830,8793.694238615222
1710832354870,8730.021516179666
1710832354911,8663.615073666442
1710832354950,8677.188046766445
1710832354990,8157.11487159133
1710832355031,8020.383064909605
1710832355071,8322.510056257946
1710832355111,9167.701173381414
1710832355151,9091.773559628054
1710832355191,10072.692773004062
1710832355231,10858.058950881474
1710832355271,12055.595528917387
1710832355312,12024.754926570691
1710832355351,9382.343603889924
