Timestamp,Cleaned_PPG
1712190136968,0.0
1712190137005,0.0
1712190137045,0.0
1712190137086,0.0
1712190137127,0.0
1712190137166,0.0
1712190137206,0.0
1712190137246,0.0
1712190137286,0.0
1712190137327,0.0
1712190137366,0.0
1712190137406,0.0
1712190137447,0.0
1712190137487,0.0
1712190137528,0.0
1712190137567,0.0
1712190137607,0.0
1712190137647,0.0
1712190137687,0.0
1712190137729,0.0
1712190137768,0.0
1712190137808,0.0
1712190137848,0.0
1712190137888,0.0
1712190137929,0.0
1712190137969,0.0
1712190138009,0.0
1712190138049,0.0
1712190138089,0.0
1712190138130,0.0
1712190138169,0.0
1712190138209,0.0
1712190138249,1957439.0
1712190138290,1828931.6624515515
1712190138331,1705539.681308874
1712190138370,1587936.5539470355
1712190138410,1475458.7449997787
1712190138450,1371192.4472576058
1712190138490,1274903.39695339
1712190138532,1185369.0094149318
1712190138571,1102365.4023510446
1712190138611,1028024.2148075409
1712190138651,961248.0730816787
1712190138691,904201.3726749648
1712190138732,853558.33953042
1712190138773,805030.592849711
1712190138812,759624.6798250142
1712190138852,721367.8197203188
1712190138892,678737.7187368958
1712190138933,630546.0812041485
1712190138972,582380.2968562194
1712190139012,537058.7115630731
1712190139052,497210.8856565347
1712190139092,462660.2148991681
1712190139133,430785.68099575816
1712190139175,403000.4228671617
1712190139213,373840.25132595166
1712190139253,339988.44228222826
1712190139293,292815.11333849
1712190139334,269704.5895601297
1712190139373,247424.61045567878
1712190139413,227478.65866288776
1712190139453,210222.86858890834
1712190139493,196774.25783935515
1712190139535,183668.31667397777
1712190139573,169103.43257135525
1712190139614,146416.8411850629
1712190139654,125263.55817044433
1712190139694,109528.22017332632
1712190139735,97773.44153453456
1712190139774,88303.47017660504
1712190139814,78140.97926831059
1712190139854,66152.08791402122
1712190139894,53717.73224790767
1712190139935,45591.22584244725
1712190139975,37820.10488214204
1712190140015,31328.39861244429
1712190140055,28833.15665050363
1712190140095,28132.559391465737
1712190140136,27344.803317434853
1712190140175,27585.157745665405
1712190140215,28606.00034128595
1712190140255,24094.8412254164
1712190140295,16636.314150601625
1712190140336,8087.730598284397
1712190140376,-222.93558214325458
1712190140416,-7556.81991377892
1712190140456,-14223.762776302872
1712190140496,-19733.08172810031
1712190140537,-16671.009987864178
1712190140576,454.5064622182399
1712190140616,-4172.207411944633
1712190140656,-4025.3773430101573
1712190140696,-2398.072374679614
1712190140737,-1166.3466188157909
1712190140776,454.83971299557015
1712190140817,2988.9114722961094
1712190140857,5668.608761715703
1712190140897,6272.56310849241
1712190140938,-1090.1868847818114
1712190140977,-10781.99555850448
1712190141017,-16753.907176170032
1712190141057,-20180.50555150956
1712190141097,-22096.44369447697
1712190141138,-21999.436272170162
1712190141178,-21307.863049830776
1712190141218,-21672.87227705447
1712190141258,-22293.186607465614
1712190141298,-21985.281647878466
1712190141339,-19502.249709384516
1712190141381,-16808.97551799123
1712190141418,-12927.97596874414
1712190141459,-9527.120806626044
1712190141499,-5232.144244173542
1712190141540,-2131.2891624059994
1712190141579,44.91570824990049
1712190141619,-6521.679556161631
1712190141659,-15967.417460946366
1712190141699,-21306.985094895354
1712190141740,-23439.973515495658
1712190141781,-23918.111498133745
1712190141820,-22372.560415304266
1712190141860,-20926.66950315237
1712190141900,-20206.2661377755
1712190141941,-19740.187064067693
1712190141980,-17285.097712284885
1712190142020,-13636.134857130935
1712190142060,-9273.92762240721
1712190142100,-4717.927525780629
1712190142142,-809.5830580804031
1712190142181,3226.6452886457555
1712190142221,7667.189107902814
1712190142261,10646.836437203921
1712190142301,6899.879655676428
1712190142342,-2463.4192720477004
1712190142381,-9180.248745191842
1712190142422,-11766.573949377052
1712190142462,-12840.594673334155
1712190142502,-11291.190119948704
1712190142543,-9339.80070796702
1712190142582,-7860.098647022853
1712190142622,-6974.863332333043
1712190142662,-4049.629405394895
1712190142702,-794.423581188079
1712190142743,3734.2864338248037
1712190142783,7575.468209966086
1712190142823,12923.24068475468
1712190142863,17256.63894056296
1712190142903,22356.928408445325
1712190142944,27357.910544476006
1712190142983,28958.984255744144
1712190143024,24000.633130257018
1712190143063,17989.833654564107
1712190143104,14807.98562874808
1712190143145,13784.946189876646
1712190143184,13800.532514092047
1712190143224,15326.174533140613
1712190143264,15891.163931994699
1712190143304,15457.86855988577
1712190143345,15086.44137278595
1712190143385,15242.781202085083
1712190143425,16373.847737951903
1712190143465,17951.687136833556
1712190143505,19122.283354474
1712190143546,20684.351498252945
1712190143585,22182.3967427155
1712190143625,24168.98599519767
1712190143665,24308.12617067946
1712190143705,18141.474157204153
1712190143747,10616.204924504505
1712190143786,6607.93033222435
1712190143826,5517.23301963415
1712190143866,5731.5353467660025
1712190143906,7353.719698366011
1712190143947,8044.280088653555
1712190143987,8606.120099598076
1712190144027,9241.325749180978
1712190144067,11973.85673928936
1712190144107,14237.051565521862
1712190144148,17453.84011058323
1712190144187,20633.28392506484
1712190144227,23735.316783424933
1712190144267,27230.296315369196
1712190144307,30711.3211238652
1712190144349,30615.691256616497
1712190144388,25045.76994128106
1712190144428,19034.313084323425
1712190144468,14999.715982400812
1712190144508,9786.221569771413
1712190144549,6945.6902692122385
1712190144589,3689.4980720884632
1712190144629,-479.3145825630054
1712190144669,563.1517588398419
1712190144709,10095.188613761216
1712190144750,15551.437071977649
1712190144791,22113.96978727728
1712190144829,28500.97117423173
1712190144870,34486.38454675861
1712190144910,39109.1042794236
1712190144951,44568.174048785586
1712190144990,50443.26244812459
1712190145030,54146.71211364167
1712190145070,52730.67915844335
1712190145110,46856.26545573352
1712190145151,46312.37928159186
1712190145190,44219.05933642527
1712190145230,43899.69747272832
1712190145270,43566.41494585434
1712190145311,43695.60098102153
1712190145351,44064.428429310676
1712190145391,44972.32007041527
1712190145431,45691.34478525445
1712190145471,46702.295169835445
1712190145511,45453.747085037176
1712190145552,44998.803473250475
1712190145591,44805.31931412569
1712190145631,44214.301832113415
1712190145672,43941.78727858886
1712190145711,41941.72112277849
1712190145753,37705.49524478614
1712190145792,35383.03035614267
1712190145832,31237.87242448423
1712190145872,29335.23139897315
1712190145912,34425.67961989483
1712190145953,35572.14700393798
1712190145992,28967.045535188634
1712190146032,26708.335475170985
1712190146072,20456.6445263552
1712190146113,18140.952179551823
1712190146154,18809.334686291637
1712190146193,21818.372936439235
1712190146233,23162.162613840774
1712190146273,22970.285611598287
1712190146313,23800.4410292767
1712190146354,24034.585361184087
1712190146393,30525.791890434455
1712190146433,20327.210836590268
1712190146473,18686.533122408204
1712190146514,13355.32238598098
1712190146554,11272.221689096885
1712190146594,10606.124671208207
1712190146634,7915.516825218685
1712190146674,4894.064138877671
1712190146714,3459.0523820591625
1712190146755,2855.303405866027
1712190146794,5706.643359393347
1712190146834,8692.436318425927
1712190146875,12003.5576260034
1712190146915,15831.233943415806
1712190146956,19160.991265599616
1712190146995,19856.822647214867
1712190147035,17820.29164002184
1712190147075,12505.484756829683
1712190147115,9420.645545518491
1712190147156,8054.512292773463
1712190147195,7431.680780205876
1712190147236,9772.972991977818
1712190147276,11342.239029518096
1712190147316,13361.849599423818
1712190147357,16682.813495352864
1712190147396,17844.759609659202
1712190147436,17640.55526300473
1712190147476,17029.52891276544
1712190147516,16640.766573770903
1712190147557,17022.882700138027
1712190147597,15558.34766276367
1712190147637,13930.83607124514
1712190147677,5806.6636392246
1712190147717,2776.694426896982
1712190147758,-6266.207300476264
1712190147799,-7274.076155530056
1712190147837,-8116.177551531466
1712190147877,-8810.168038932607
1712190147917,-7388.324948364403
1712190147959,-7139.236811762443
1712190147998,-8138.891098021995
1712190148038,-8154.3803568955045
1712190148078,-7886.396662584506
1712190148118,-8170.002866992727
1712190148159,-7368.176078126766
1712190148198,-7165.0928028135095
1712190148238,-5498.011357035954
1712190148278,-2395.7373346905224
1712190148319,-421.4790160115808
1712190148360,-4084.71008161176
1712190148399,-12769.176935576368
1712190148439,-17521.18625393696
1712190148479,-19971.101725396235
1712190148519,-21481.006525001954
1712190148560,-21061.443966470426
1712190148599,-21731.26511799358
1712190148640,-23127.983661494683
1712190148680,-22622.1647258366
1712190148720,-21181.840418453794
1712190148761,-20614.6995132186
1712190148800,-17935.512403898872
1712190148840,-15122.755639856681
1712190148880,-13020.390357102733
1712190148921,-10967.55876394175
1712190148962,-9609.962469859049
1712190149002,-10216.832139453385
1712190149042,-16928.755594887072
1712190149082,-21784.094323580153
1712190149122,-22352.67869607685
1712190149162,-21024.85469094338
1712190149202,-19268.942045631586
1712190149242,-16848.05393027072
1712190149282,-16056.700460007647
1712190149322,-16116.812006135238
1712190149362,-14628.561562213581
1712190149402,-11996.526548076188
1712190149442,-9903.388463430107
1712190149482,-6596.615495347418
1712190149522,-4643.570599025115
1712190149562,-2643.6227033385076
1712190149602,-1167.2682012268342
1712190149642,-3027.1551569462754
1712190149682,-9062.807358189952
1712190149722,-15131.524145597126
1712190149762,-17638.801443130942
1712190149802,-17407.32732973108
1712190149842,-16796.285826247185
1712190149882,-15339.735602608882
1712190149922,-15528.978940145811
1712190149962,-16469.855295797344
1712190150002,-16526.094936007168
1712190150042,-13823.877635693876
1712190150082,-12379.486147963908
1712190150122,-9691.448244634084
1712190150162,-7405.803317663958
1712190150202,-4431.206374362577
1712190150242,-1876.2951591880992
1712190150282,-6488.690794822294
1712190150322,-14013.685265067033
1712190150362,-17936.093976981938
1712190150402,-20440.77065727627
1712190150442,-20725.194644431816
1712190150482,-19483.02307625045
1712190150522,-18578.807605038164
1712190150562,-18589.17161721643
1712190150602,-18425.96723506879
1712190150642,-17489.108959762612
1712190150682,-15449.930275987834
1712190150722,-12952.513952424051
1712190150762,-10531.117891405709
1712190150802,-7650.318077671807
1712190150842,-4821.357872367604
1712190150882,-8236.212379911449
1712190150922,-15273.613080711802
1712190150962,-19309.020864791237
1712190151002,-21180.285613122396
1712190151042,-21371.672690453008
1712190151082,-20725.919220091542
1712190151122,-19967.303849002812
1712190151162,-20531.295194887323
1712190151202,-20067.858794610715
1712190151242,-18925.976222469937
1712190151282,-17258.441911984002
1712190151322,-14802.899072326254
1712190151362,-12131.439609075664
1712190151402,-9648.067531490698
1712190151442,-6740.927725883666
1712190151482,-5159.011081927456
1712190151522,-9921.430697862525
1712190151562,-15825.685940340161
1712190151602,-19369.566604827996
1712190151642,-21411.447311942466
1712190151682,-21864.12812290527
1712190151722,-21023.961841750657
1712190151762,-20748.877570615616
1712190151802,-20684.110026874114
1712190151842,-20126.480776444077
1712190151882,-18721.76453004335
1712190151922,-16092.17186074378
1712190151962,-13106.770514492644
1712190152002,-9832.753120330628
1712190152042,-6386.539913772605
1712190152082,-3060.2310774491634
1712190152122,-323.07089859526604
1712190152162,-2078.770083682146
1712190152202,-8007.132330417167
1712190152242,-12951.395222494146
1712190152282,-14562.773698669393
1712190152322,-15004.769122082507
1712190152362,-14251.071441950044
1712190152402,-13690.38895598217
1712190152442,-13857.086749367649
1712190152482,-13568.097820254043
1712190152522,-11976.442086592317
1712190152562,-8766.665327670751
1712190152602,-5522.647475364385
1712190152642,-2540.6933887687046
1712190152682,427.54379805456847
1712190152722,3430.5602588457987
1712190152762,6200.756657116581
1712190152802,8043.214798647445
1712190152842,3982.9352987646125
1712190152882,-1517.2667958028615
1712190152922,-4573.433034067275
1712190152962,-5743.427034586202
1712190153002,-5816.307656892575
1712190153042,-4916.804211300332
1712190153082,-4340.044585485011
1712190153122,-8352.80553592625
1712190153162,-4489.758288331563
1712190153202,-1747.6899348653387
1712190153242,1886.1716529205441
1712190153282,4584.064050166868
1712190153322,6585.103898579953
1712190153362,8241.021898592822
1712190153402,10311.875437328126
1712190153442,12893.991952665616
1712190153482,14460.190969474148
1712190153522,11639.53071200801
1712190153562,6636.812963063829
1712190153602,3421.479220015928
1712190153642,2212.1358804528136
1712190153682,2444.0303065320477
1712190153722,4247.066708081402
1712190153762,5964.1447957369965
1712190153802,7829.399755635532
1712190153842,11356.520905103302
1712190153882,17192.43608331727
1712190153922,24377.67663516407
1712190153962,31355.905962302815
1712190154002,36106.555876001716
1712190154042,39313.98325124942
1712190154082,41374.65491372743
1712190154122,41316.91143035656
1712190154162,40153.86519885273
1712190154202,34707.43897885922
1712190154242,29620.404996622587
1712190154282,25900.85765300598
1712190154322,24228.398150626337
1712190154362,23032.762946526054
1712190154402,26253.86959561496
1712190154442,21917.928166438825
1712190154482,19844.29976721527
1712190154522,18076.109431585297
1712190154562,18605.010563496966
1712190154602,19753.24499929836
1712190154642,21852.381076285616
1712190154682,23629.06486613606
1712190154722,24536.68695758935
1712190154762,26340.320974181872
1712190154802,27581.853519802913
1712190154842,25684.218027434777
1712190154882,20236.310854820535
1712190154922,15769.128740460612
1712190154962,13291.1448428859
1712190155002,11907.124415287282
1712190155042,10661.663372998359
1712190155082,10329.063251220854
1712190155122,9410.32950961776
1712190155162,9374.205461494625
1712190155202,9125.556780610466
1712190155242,9410.675723381108
1712190155282,10506.610586990137
1712190155322,13105.66519033257
1712190155362,13869.56523901457
1712190155402,15030.91624538228
1712190155442,15399.219531012466
1712190155482,16283.404956293292
1712190155522,15766.537330559455
1712190155562,11279.529896057444
1712190155602,6010.118623933289
1712190155642,3235.793193885591
1712190155682,1235.2585447048768
1712190155722,271.0493089915253
1712190155762,-591.2091740160249
1712190155802,-1358.519355847966
1712190155842,-1916.1180101940408
1712190155882,-1986.9648069445975
1712190155922,-742.0673997874837
1712190155962,406.3547080978751
1712190156002,2236.783929549856
1712190156042,3285.730433966033
1712190156082,5042.191463366849
1712190156122,6597.855210304027
1712190156162,8211.79230082524
1712190156202,10269.371164204087
1712190156242,11116.998690087814
1712190156282,8244.817095491802
1712190156322,4767.483790338505
1712190156363,2401.6934775228146
1712190156404,1971.419704684522
1712190156445,1237.4326978959143
1712190156486,2028.7113376231864
1712190156527,2107.56248010695
1712190156568,1792.9994184095412
1712190156609,926.8229164914228
1712190156650,1589.22698360309
1712190156691,3316.2705938369036
1712190156732,4164.464503439609
1712190156773,5440.883750455221
1712190156814,6204.8585174076725
1712190156855,7214.104245682713
1712190156896,8680.257458840962
1712190156937,9678.534274128499
1712190156978,10869.311774932547
1712190157019,8328.698364503682
1712190157060,3971.9510568934493
1712190157101,1389.766987819923
1712190157142,-156.70513631263748
1712190157183,-286.9617488835938
1712190157224,-206.33997459337115
1712190157265,-522.7089908693451
1712190157306,-1254.4298719451763
1712190157347,-1659.332721253857
1712190157388,-1662.8998076026328
1712190157429,-849.1113529945724
1712190157470,764.9311963806394
1712190157511,2185.8069852585904
1712190157552,4076.5298601689283
1712190157593,5461.522598798852
1712190157634,6463.252969617024
1712190157675,8030.392965446692
1712190157716,7259.341370895039
1712190157757,3001.0754709946923
1712190157798,-1414.1259593092836
1712190157839,-3394.6813366659917
1712190157880,-4185.177449824987
1712190157921,-3951.1853843391873
1712190157962,-4209.964327038266
1712190158003,-5134.715555052506
1712190158044,-5672.426545040682
1712190158085,-5647.359331661835
1712190158126,-4641.067562347744
1712190158167,-3208.5714183626696
1712190158208,-1438.517866872251
1712190158249,-43.154458824545145
1712190158290,1606.37285415316
1712190158331,3230.981222866103
1712190158372,4841.6117868570145
1712190158413,5625.174313716823
1712190158454,3193.0413779066876
1712190158495,-2615.6284228805453
1712190158536,-7794.784652289236
1712190158577,-10492.691343910294
1712190158618,-12457.388285338413
1712190158659,-13063.381056681275
1712190158700,-13596.718254091218
1712190158741,-14514.85016691219
1712190158782,-15081.071783064399
1712190158823,-15661.828306598123
1712190158864,-15167.590494844131
1712190158905,-14207.30988039053
1712190158946,-12761.09022893128
1712190158987,-10965.883654038655
1712190159028,-9504.541109407088
1712190159069,-8162.087879653554
1712190159110,-4921.155965702143
1712190159151,-2165.1249867212027
1712190159192,-617.3618748607114
1712190159233,-3070.925276900176
1712190159274,-2673.7522310575005
1712190159315,7002.623929638416
1712190159356,17853.558765578084
1712190159397,23218.739664531546
1712190159438,22547.453560811467
1712190159479,25248.254145637853
1712190159520,34811.06230879715
1712190159561,44660.02915795939
1712190159602,43583.94769802457
1712190159643,54028.05881773727
1712190159684,66237.42725799233
1712190159725,66083.1884666998
1712190159766,60863.30828795838
1712190159807,54043.62483402202
1712190159848,29423.587546217488
1712190159889,380.9038644025568
1712190159930,-11153.520306550432
1712190159971,-14565.976649306482
1712190160012,-16018.563613896258
1712190160053,-17180.809489123523
1712190160094,-17963.92485146504
1712190160135,-20391.99535748968
1712190160176,-22529.185431364225
1712190160217,-23199.60474680923
1712190160258,-25519.658496676013
1712190160299,-32008.689376297873
1712190160340,-33660.40535889752
1712190160381,-37346.68501281878
1712190160422,-40046.14252444636
1712190160463,-41093.05515398248
1712190160504,-45377.2324969694
1712190160545,-50751.11310980562
1712190160586,-57527.670515243895
1712190160627,-69641.95043903613
1712190160668,-79440.30576050188
1712190160709,-82923.25223452738
1712190160750,-79527.85173242772
1712190160791,-76741.45698782522
1712190160832,-82306.71720385039
1712190160873,-90928.01722626202
1712190160914,-88453.65747556183
1712190160955,-98080.62683087355
1712190160996,-108822.80043912213
1712190161037,-103884.58676127018
1712190161078,-94779.01156402263
1712190161117,-83359.9920470533
1712190161156,-56737.89662737772
1712190161195,-34612.762678419705
1712190161234,-30724.9643165078
1712190161273,-38848.09180756286
1712190161312,-46976.633785291575
1712190161351,-53544.95151996752
1712190161390,-58414.120364661096
1712190161429,-59379.63962690183
1712190161468,-58965.30874886131
1712190161507,-55796.18901012
1712190161546,-51861.279866778525
1712190161585,-43443.529571945546
1712190161624,-41269.953187773004
1712190161663,-30278.834129373776
1712190161702,-20879.89565075212
1712190161741,-11269.444954063278
1712190161780,867.2437901222147
1712190161819,9372.332753756782
1712190161858,15337.509648606181
1712190161897,15896.25818111049
1712190161936,9873.624303346034
1712190161975,3288.310779810883
1712190162014,-1759.7404104894958
1712190162053,-4459.415272696875
1712190162092,-7362.938945709029
1712190162131,-8775.062609146815
1712190162170,-5682.131976802833
1712190162209,-2995.8058123367373
1712190162249,-1402.0959145203233
1712190162289,-2352.1642506662756
1712190162329,-1745.2729731327854
1712190162369,-1352.610067221569
1712190162409,-1111.824289274402
1712190162449,1327.4995065610856
1712190162489,3786.9975821925327
1712190162529,5340.596174696693
1712190162569,3812.9649275799748
1712190162609,745.7954445360228
1712190162649,1844.7062182775699
1712190162689,2659.5270621576346
1712190162729,4032.3638339245226
1712190162769,2820.7025933458935
1712190162809,2697.663840452675
1712190162849,609.7661765522789
1712190162889,1830.115736398846
1712190162929,-1993.110297905514
1712190162969,-3803.766377893742
1712190163009,-5898.377134468872
1712190163049,-8205.541925952071
1712190163089,-6940.652162964689
1712190163129,-6114.201240083668
1712190163169,-1550.3546050493605
1712190163209,263.6032289543655
1712190163249,-2631.711405460257
1712190163289,-5868.635303430026
1712190163329,-7160.262662054505
1712190163369,-4749.103068561759
1712190163409,1102.2967555285431
1712190163449,4347.875642812811
1712190163489,5912.367597654695
1712190163529,6863.635321321897
1712190163569,10715.177916499553
1712190163609,15390.944143047323
1712190163649,18612.267582631204
1712190163689,19395.547787631396
1712190163729,19308.662036926253
1712190163769,20211.242477769963
1712190163809,20625.360849915072
1712190163849,17801.513382574078
1712190163889,13076.497065924108
1712190163929,8719.306412291015
1712190163969,8185.284117379924
1712190164009,9779.759065320017
1712190164049,11191.47363697202
1712190164089,12627.536304332782
1712190164129,13804.032482296694
1712190164169,15041.7369951359
1712190164209,16564.953875717474
1712190164249,17158.457153095165
1712190164289,18862.235157745192
1712190164329,18656.323215243407
1712190164369,20016.11174685089
1712190164409,21797.331465160474
1712190164449,22336.828728575725
1712190164489,19384.7704123836
1712190164529,15261.07512725424
1712190164569,12809.380441769259
1712190164609,12081.38616316393
1712190164649,12378.517610441195
1712190164689,11953.085673761554
1712190164729,11080.782165124547
1712190164769,12132.030342397047
1712190164809,14397.2778466905
1712190164849,15620.592827160377
1712190164889,15237.834717931459
1712190164929,16907.08987691067
1712190164969,19368.823202692904
1712190165009,21961.69883036404
1712190165049,23384.083899135003
1712190165089,25167.31075389101
1712190165129,24091.227368051186
1712190165169,20548.701758877374
1712190165209,16935.155140258837
1712190165249,15415.835670112865
1712190165289,15513.91684521758
1712190165329,15645.275212571956
1712190165369,15334.251247379929
1712190165409,15721.784826006275
1712190165449,16057.952759050298
1712190165489,15915.979809485842
1712190165529,16374.368094724603
1712190165569,17086.434682544088
1712190165609,18365.091959937476
1712190165649,19362.26356071513
1712190165689,20139.87811621651
1712190165729,20655.922552251955
1712190165769,18678.205341794062
1712190165809,14610.788522181101
1712190165849,11133.920822671615
1712190165889,10041.394641425228
1712190165929,9768.533992933575
1712190165969,9956.753319903044
1712190166009,10326.68447026168
1712190166049,9509.201410012087
1712190166089,8825.594059362775
1712190166129,8313.860103481915
1712190166169,9153.283179315738
1712190166209,9985.87095963629
1712190166249,10837.862257504836
1712190166289,11343.957234309986
1712190166329,12215.46789926989
1712190166369,12356.157828892814
1712190166409,9289.635972970631
1712190166449,5084.747740044724
1712190166489,2779.9382073157467
1712190166529,2009.6004052115604
1712190166569,1379.315649165772
1712190166609,1453.1547538270243
1712190166649,1525.3696778859012
1712190166689,570.9381488459185
1712190166729,65.03621440241113
1712190166769,241.09130422351882
1712190166809,1072.551646735752
1712190166849,1536.4798424567562
1712190166889,2402.4116189691704
1712190166929,3393.186482325662
1712190166969,4063.795989952516
1712190167009,3912.8286871770397
1712190167049,-44.56376630719751
1712190167089,-4476.893353824038
1712190167129,-7062.492755556246
1712190167169,-8317.130644912831
1712190167209,-8308.822598940693
1712190167249,-8315.744362532627
1712190167289,-8501.797057536198
1712190167329,-9925.015259276144
1712190167369,-10565.085226389114
1712190167409,-10286.812327480875
1712190167449,-9627.455125006381
1712190167489,-9094.10026359465
1712190167529,-8469.024341681972
1712190167569,-7616.922791035147
1712190167609,-7291.157525411341
1712190167649,-7062.718935566023
1712190167689,-11622.354561166372
1712190167729,-16155.621962418314
1712190167769,-18568.763176657725
1712190167809,-19610.14744786732
1712190167849,-19388.06111054332
1712190167889,-18985.367787517374
1712190167929,-19213.65396947018
1712190167969,-19931.731095674913
1712190168009,-20162.767062323866
1712190168049,-19895.185857630102
1712190168089,-19372.43666245835
1712190168129,-18327.990878728684
1712190168169,-17423.99478753819
1712190168209,-16016.037746575428
1712190168249,-15150.748726817546
1712190168289,-15667.268356728135
1712190168329,-20873.024935376132
1712190168369,-25722.252886357717
1712190168409,-27776.615811241325
1712190168449,-28172.831338264747
1712190168489,-27504.539002199657
1712190168529,-27255.52140096086
1712190168569,-28003.536152652232
1712190168609,-28210.450715258252
1712190168649,-28008.402022723574
1712190168689,-27381.025934843812
1712190168729,-26173.49170657806
1712190168769,-24816.21981254616
1712190168809,-23288.821897181217
1712190168849,-21461.387039978057
1712190168889,-20244.70877210237
1712190168929,-22743.415455242386
1712190168969,-28117.613264201675
1712190169009,-32337.93261100445
1712190169049,-32949.828500959324
1712190169089,-32372.521466493607
1712190169129,-31178.44748068787
1712190169169,-30756.483417283744
1712190169209,-31795.281225305516
1712190169249,-32497.45750620705
1712190169289,-31675.312452851795
1712190169329,-30351.376135634724
1712190169369,-28527.26136363065
1712190169409,-26668.914946430363
1712190169449,-24815.407680884004
1712190169489,-23122.95775803551
1712190169529,-23474.729228486074
1712190169569,-28590.187486698385
1712190169609,-32739.699842375237
1712190169649,-33546.75679358328
1712190169689,-33167.3308552783
1712190169729,-31368.816811568104
1712190169769,-30608.0777272759
1712190169809,-30398.314903128892
1712190169849,-30631.452680022456
1712190169889,-30752.265373879578
1712190169929,-29352.380443900824
1712190169969,-27362.732189362403
1712190170009,-25652.479243237525
1712190170049,-23400.73370269523
1712190170089,-21801.502168864245
1712190170129,-22011.361603518017
1712190170169,-26307.5956537365
1712190170209,-31096.158444169443
1712190170249,-32263.554644105956
1712190170289,-31421.611631487962
1712190170329,-30087.85319094034
1712190170369,-29220.824531968683
1712190170409,-28716.608329609968
1712190170449,-28674.96920028841
1712190170489,-28374.870818289928
1712190170529,-26619.43310595397
1712190170569,-24564.59672777378
1712190170609,-21768.458671586122
1712190170649,-18932.29426704673
1712190170689,-16304.907510255463
1712190170729,-16164.105492665432
1712190170769,-19988.259793763515
1712190170809,-23922.91958250897
1712190170849,-25139.12079127389
1712190170889,-23943.33318674704
1712190170929,-21786.96516834991
1712190170969,-19794.778780533932
1712190171009,-19076.445145976963
1712190171049,-18490.32916167425
1712190171089,-17689.61587278056
1712190171129,-15575.376941550756
1712190171169,-13319.715352348983
1712190171209,-10865.881072098622
1712190171249,-8088.55664353678
1712190171289,-6118.908889279002
1712190171329,-5558.642385040643
1712190171369,-8893.293138869107
1712190171409,-14807.021307691932
1712190171449,-18029.04907904123
1712190171489,-17902.080121027306
1712190171529,-17211.253460926935
1712190171569,-15337.86493198853
1712190171609,-14037.40413046442
1712190171649,-12908.673288630554
1712190171689,-11821.341646477813
1712190171729,-10307.27122487803
1712190171769,-7544.733010665979
1712190171809,-4782.975978108821
1712190171849,-2503.637735313736
1712190171889,-551.633383390028
1712190171929,950.3868343408685
1712190171969,1526.3677475051954
1712190172009,-2214.615213178564
1712190172049,-6369.564905284904
1712190172089,-8972.096048502252
1712190172129,-9170.812980643706
1712190172169,-8153.239823298063
1712190172209,-6970.545837628655
1712190172249,-5577.040144545957
1712190172289,-4507.102296858793
1712190172329,-3387.797236741055
1712190172369,-1944.1344616836868
1712190172409,487.60164368571714
1712190172449,3010.814149701968
1712190172489,5199.933344752528
1712190172529,7105.143222015351
1712190172569,9140.811687199865
1712190172609,10283.28100810456
1712190172649,8026.421473948052
1712190172689,3935.8893824175466
1712190172729,953.5448102508672
1712190172769,8.215241685509682
1712190172809,1013.9666241370142
1712190172849,2076.4361816027667
1712190172889,2928.277869862737
1712190172929,2987.631591118872
1712190172969,3295.183566960506
1712190173009,4151.321605801582
1712190173049,5909.953362448141
1712190173089,7463.222574518062
1712190173129,9577.134362117853
1712190173169,11642.312332098838
1712190173209,13066.544828702463
1712190173249,14057.054920890834
1712190173289,13785.283027928323
1712190173329,10341.882594614988
1712190173369,7116.768995006569
1712190173409,5561.200686409138
1712190173449,5791.296118383529
1712190173489,7011.67545124772
1712190173529,7753.277835351415
1712190173569,7980.398154628463
1712190173609,7970.992450251477
1712190173649,8885.068609773181
1712190173689,9801.206180264242
1712190173729,11738.299105216283
1712190173769,13868.895145304268
1712190173809,15319.21381630795
1712190173849,17062.79003878194
1712190173889,18370.233492865227
1712190173929,18896.02353432728
1712190173969,17400.224874227773
1712190174009,13958.923280521296
1712190174049,11620.72591350926
1712190174089,10473.509817019105
1712190174129,11071.122562477365
1712190174169,11711.816426795209
1712190174209,11958.8358752036
1712190174249,11775.128388579935
1712190174289,11842.193833609344
1712190174329,12011.840866981773
1712190174369,12645.665020511486
1712190174409,13724.406064809533
1712190174449,14389.80549920816
1712190174489,15280.777933491627
1712190174529,15948.331982670818
1712190174569,16531.95359654911
1712190174609,17496.997436170466
1712190174649,16067.733476274647
1712190174689,12502.187897407683
1712190174729,8457.306211285992
1712190174769,6890.437961142743
1712190174809,6520.8346823120955
1712190174849,6896.996337326011
1712190174889,7275.6827268502675
1712190174929,7472.940882024122
1712190174969,7499.164577247109
1712190175009,7625.327501365915
1712190175049,8298.966720363824
1712190175089,9329.705645530019
1712190175129,10886.680746410508
1712190175169,12125.158858272946
1712190175209,13244.165080795065
1712190175249,13686.270119535271
1712190175289,14462.953763280064
1712190175329,15182.266580420779
1712190175369,14656.970740127843
1712190175409,11010.216453481931
1712190175449,7068.9930190509185
1712190175489,4522.22274841927
1712190175529,3379.574443232501
1712190175569,3511.8398513933644
1712190175609,3811.7547255335376
1712190175649,3855.5502899163403
1712190175689,3467.8257638923824
1712190175729,3800.3940448502544
1712190175769,4882.36978590861
1712190175809,6549.180509147234
1712190175849,8321.059602234978
1712190175889,8882.83840541076
1712190175929,9896.639525571838
1712190175969,10488.668993241154
1712190176009,11325.263538644649
1712190176049,11910.599620637018
1712190176089,12545.555174291367
1712190176129,10368.163400470745
1712190176169,6196.408175332239
1712190176209,2084.4732654755935
1712190176249,233.22499753325246
1712190176289,-430.80208044406027
1712190176329,-586.9043268491514
1712190176369,-131.81863358151168
1712190176409,-747.3329046692234
1712190176449,-1192.0642356274184
1712190176489,-1277.3457812757697
1712190176529,3.494914571288973
1712190176569,1277.8185452171601
1712190176609,2466.0138581246138
1712190176649,2618.6512083769776
1712190176689,3598.921463073697
1712190176729,3999.710499322973
1712190176769,5131.687136674998
1712190176809,6086.922655716073
1712190176849,6586.0002051987685
1712190176889,3775.6485657030717
1712190176929,-1529.7111081043258
1712190176969,-4785.65605489444
1712190177009,-5808.373577090679
1712190177049,-6124.118179154582
1712190177089,-6058.342586166924
1712190177129,-6332.524845272303
1712190177169,-6206.140937430318
1712190177209,-6747.613644758239
1712190177249,-6755.865090053529
1712190177289,-5601.376243907725
1712190177329,-4094.3503057656344
1712190177369,-3173.3438978011254
1712190177409,-2319.1874990314245
1712190177449,-1995.3585165438708
1712190177489,-662.1643653344363
1712190177529,359.98644074751064
1712190177569,1454.4272849350236
1712190177609,1138.2227985817008
1712190177649,-3012.025553237647
1712190177689,-8403.250149905682
1712190177729,-10728.679619816132
1712190177769,-11210.324611943215
1712190177809,-11091.022980397334
1712190177849,-10653.724194402806
1712190177889,-10337.557183083612
1712190177929,-10890.375643671025
1712190177969,-11148.864252307685
1712190178009,-10275.644753437024
1712190178049,-9063.011766827432
1712190178089,-6965.316242192872
1712190178129,-6102.378366861492
1712190178169,-4997.697153958026
1712190178209,-3903.844365718309
1712190178249,-2995.4689438913483
1712190178289,-2125.8434001342393
1712190178329,-1518.6070058615878
1712190178369,-4940.832668618299
1712190178409,-9803.265521827154
1712190178449,-13001.477330244612
1712190178489,-13640.208827394294
1712190178529,-12158.715221753577
1712190178569,-11118.80620385008
1712190178609,-10344.789584765676
1712190178649,-9939.927075258223
1712190178689,-9297.026532368502
1712190178729,-7628.461656016298
1712190178769,-5548.837818046566
1712190178809,-3038.721774855163
1712190178849,-837.598614233546
1712190178889,885.8065531733446
1712190178929,2154.3166559799574
1712190178969,4237.851045595482
1712190179009,6060.365064112004
1712190179049,5640.7855425728485
1712190179089,1545.07428368181
1712190179129,-4011.5061392721254
1712190179169,-7288.182791811414
1712190179209,-8260.193235280458
1712190179249,-8139.808544958243
1712190179289,-7520.637396460632
1712190179329,-8133.086846481543
1712190179369,-9206.199787107296
1712190179409,-8232.126815334894
1712190179449,-6907.234628940467
1712190179489,-5641.246938310098
1712190179529,-5354.13886271324
1712190179569,-3717.430936889723
1712190179609,-3744.065798000898
1712190179649,-2761.7115305468906
1712190179689,-1268.3598858620971
1712190179729,-1652.3378160893917
1712190179769,-5402.356439584633
1712190179809,-10656.886425476754
1712190179849,-14631.793275961187
1712190179889,-17121.317697052844
1712190179929,-18005.590368735837
1712190179969,-17724.07541632373
1712190180009,-16675.5409617275
1712190180049,-16355.451144113671
1712190180089,-16323.83258784376
1712190180129,-15232.904305039207
1712190180169,-15217.148206522223
1712190180209,-14445.568327229237
1712190180249,-13951.464836604195
1712190180289,-13766.238952953834
1712190180330,-13636.725723401178
1712190180371,-13896.031418196624
1712190180412,-12471.218071839307
1712190180453,-16216.661851881072
1712190180494,-22392.48069793312
1712190180535,-27032.910142454784
1712190180576,-29194.01802673051
1712190180617,-29450.657270964235
1712190180658,-28540.50714538712
1712190180699,-29831.534029194852
1712190180740,-30313.981180261122
1712190180781,-30761.84355675755
1712190180822,-29880.681954534957
1712190180863,-27650.860485892277
1712190180904,-19168.150766000617
1712190180945,-8924.16988029168
1712190180986,-1412.2846886604093
1712190181027,6673.906742760912
1712190181068,14714.588022504002
1712190181109,20049.913002540357
1712190181150,21350.94052705355
1712190181191,20689.302208597772
1712190181232,21306.175258788513
1712190181273,21585.819449155824
1712190181314,22920.346360265976
1712190181355,24969.631389781134
1712190181396,26004.40755460644
1712190181437,24722.7370670354
1712190181478,24754.27722910419
1712190181519,24414.927556327544
1712190181560,24516.489676039433
1712190181601,23956.11700657755
1712190181642,23870.16002505296
1712190181683,24273.39147321554
1712190181724,24029.937656234484
1712190181765,24953.220069307135
1712190181806,22040.476903876523
1712190181847,15466.55875554867
1712190181888,10777.664102911483
1712190181929,7830.51319302991
1712190181970,5843.5480170268565
1712190182011,6094.393629181664
1712190182052,5041.841711628484
1712190182093,4522.90916634677
1712190182134,4483.612742391881
1712190182175,5044.5810544393025
1712190182216,5029.254098442849
1712190182257,5240.322251309641
1712190182298,6929.708941477351
1712190182339,7284.840651490726
1712190182380,8262.001195052639
1712190182421,9332.343021872919
1712190182462,7320.931744484929
1712190182503,1223.9845524886623
1712190182544,-4172.129494383
1712190182585,-6143.804791649338
1712190182626,-7314.376650824677
1712190182667,-7459.120414807927
1712190182708,-7107.941624877043
1712190182749,-7207.604546911316
1712190182790,-7876.533984601498
1712190182831,-7263.27044847887
1712190182872,-6381.65596020571
1712190182913,-4816.049308091635
1712190182954,-3598.8531296772417
1712190182995,-1618.398733514361
1712190183036,-393.6782038405072
1712190183077,-482.4778794767335
1712190183118,-1718.595787967788
1712190183159,-6315.022670109291
1712190183200,-11221.880963858683
1712190183241,-13519.6679494516
1712190183282,-14281.160549892578
1712190183323,-15006.543296352029
1712190183364,-15320.082304148935
1712190183405,-16105.48173639737
1712190183446,-16379.980500337202
1712190183487,-15824.275166540872
1712190183528,-14808.57863083342
1712190183569,-12498.30704273004
1712190183610,-10488.285399458371
1712190183651,-7797.546045857016
1712190183692,-5835.89936346421
1712190183733,-4019.5943494373932
1712190183774,-4304.694780177902
1712190183815,-8238.71876701992
1712190183856,-12846.339253892656
1712190183897,-16088.566559265833
1712190183938,-16578.254041161388
1712190183979,-16511.609444111586
1712190184020,-15997.212683551945
1712190184061,-15669.6009837538
1712190184102,-15751.353542638943
1712190184143,-15113.624518065015
1712190184184,-13540.336803762475
1712190184225,-11366.390884607565
1712190184266,-8521.819707091432
1712190184307,-6099.531426812056
1712190184348,-4290.997086900519
1712190184389,-1918.3262408077717
1712190184430,-1112.596206234768
1712190184471,-4834.9880480272695
1712190184512,-9875.191397033632
1712190184553,-12933.617088186089
1712190184594,-13677.282961232122
1712190184635,-13900.098151479382
1712190184676,-12642.916940770578
1712190184717,-11589.893744431902
1712190184758,-11242.354733543005
1712190184799,-10586.73249110044
1712190184840,-8798.97724816436
1712190184881,-7024.203074301127
1712190184922,-4593.189476642292
1712190184963,-2750.456865930697
1712190185004,-898.994504104834
1712190185045,952.3313476890326
1712190185086,2858.757519772975
1712190185127,3004.87264801492
1712190185168,-425.4597629131749
1712190185207,-5188.9422896665055
1712190185246,-8616.295660526725
1712190185285,-9690.993192847352
1712190185324,-9976.584404360969
1712190185363,-8390.456556765595
1712190185402,-7407.735731377732
1712190185441,-7395.2002072890755
1712190185480,-7128.603161937557
1712190185519,-5684.799967958359
1712190185558,-4347.555783224991
1712190185597,-2211.868955938611
1712190185636,239.66286195488647
1712190185675,2236.1939723521937
1712190185714,3282.8627036926337
1712190185753,5710.31887493073
1712190185792,7157.897645669989
1712190185831,5544.711056177737
1712190185870,670.0166661276016
1712190185909,-4376.5059169866145
1712190185948,-6708.927497479599
1712190185987,-7455.456937498413
1712190186026,-6701.654101422755
1712190186065,-5836.675502830185
1712190186104,-5374.158770316979
1712190186143,-5189.323581248056
1712190186182,-4402.968585808761
1712190186221,-2961.212380053941
1712190186260,-779.8412076798268
1712190186299,951.7306840682868
1712190186338,2455.6696826610714
1712190186377,4155.349609619938
1712190186416,5685.852959698299
1712190186456,7358.4019597326405
1712190186496,8814.69216473028
1712190186536,7857.927877294831
1712190186576,3836.711059537949
1712190186616,-1820.0918500423431
1712190186656,-4181.235300981207
1712190186696,-4418.745093695819
1712190186736,-3372.7542529399507
1712190186776,-2894.547711403575
1712190186816,-2488.3242788165808
1712190186856,-2901.5003390356433
1712190186896,-2296.278189284727
1712190186936,-1404.8089886405505
1712190186976,546.5019170693122
1712190187016,2262.8852299731225
1712190187056,3713.477025732398
1712190187096,5616.466936092824
1712190187136,6720.202798478305
1712190187176,8561.615002033534
1712190187216,10203.985771985259
1712190187256,10032.588949642144
1712190187296,6124.651792154647
1712190187336,1095.6334066553973
1712190187376,-1673.4457107027993
1712190187416,-2332.876050075516
1712190187456,-2255.6753770960495
1712190187496,-1599.2139413319528
1712190187536,-1022.1132073248737
1712190187576,-1300.1320722331293
1712190187616,178.2418913373258
1712190187656,1616.4396888208576
1712190187696,3317.373074332252
1712190187736,4595.585161637282
1712190187776,5981.064318498597
1712190187816,7196.158404646674
1712190187856,7931.526653396897
1712190187896,9239.200790282572
1712190187936,10544.42627303605
1712190187976,8253.280930907931
1712190188016,2892.9627354731783
1712190188056,-1137.2492793293204
1712190188096,-2358.288594348356
1712190188136,-2038.0866566593759
1712190188176,-1937.4080240530893
1712190188216,-1670.4254312943667
1712190188256,-1991.3352364869788
1712190188296,-2722.009152384009
1712190188336,-2614.7945994716138
1712190188376,-1475.5364358285442
1712190188416,45.78413044055924
1712190188456,1244.8366165654734
1712190188496,2177.6535344321746
1712190188536,2885.376006626524
1712190188576,3568.116867426783
1712190188616,4357.669879138935
1712190188656,6108.149944702163
1712190188696,6283.239075646736
1712190188736,2755.2869401632342
1712190188776,-2335.865314556053
1712190188816,-5279.151027405867
1712190188856,-5390.032505701762
1712190188896,-4506.386095099384
1712190188936,-3250.4329028548673
1712190188976,-2836.4062913339585
1712190189016,-2646.778843553737
1712190189056,-2022.6239337432198
1712190189096,-1024.3520571924746
1712190189136,994.0231925607659
1712190189176,3318.9612665432505
1712190189216,4459.437418525806
1712190189256,5783.892932941206
1712190189296,7124.3424939184915
1712190189336,8440.543544630986
1712190189376,9761.205319595523
1712190189416,10134.375122715719
1712190189456,7030.199820986483
1712190189496,1392.8540331171826
1712190189536,-2426.5375624166336
1712190189576,-3535.861152240075
1712190189616,-2562.3087578262202
1712190189656,-1562.0484617659822
1712190189696,-799.3179748635739
1712190189736,-1151.844554164214
1712190189776,-1079.3751145664137
1712190189816,-91.53089932119474
1712190189856,2078.5083322273567
1712190189896,4228.7664688471705
1712190189936,6025.146826225566
1712190189976,7689.909085692838
1712190190016,8785.186878391309
1712190190056,9880.335961959558
1712190190096,10613.208974778652
1712190190136,8057.00603158609
1712190190176,1856.961207125336
1712190190216,-3672.990744273644
1712190190256,-5877.689048484433
1712190190296,-6628.231254430255
1712190190336,-6709.078572699567
1712190190376,-6587.645899189636
1712190190416,-7300.808062261902
1712190190456,-8264.340412756428
1712190190496,-8193.825356880901
1712190190536,-7135.540558632929
1712190190576,-5869.643230236601
1712190190616,-4151.497565014288
1712190190656,-3037.947696232004
1712190190696,-1730.8338833651505
1712190190736,-327.8087011803873
1712190190776,1402.9159700591117
1712190190816,2635.282185915159
1712190190856,-340.46722961682826
1712190190896,-6797.080416358309
1712190190936,-12389.798826916842
1712190190976,-14182.914649205282
1712190191016,-14620.930684445892
1712190191056,-14376.165137642529
1712190191096,-13979.713668407407
1712190191136,-13778.443950997433
1712190191176,-13967.027840243187
1712190191216,-13386.255282124504
1712190191256,-11521.985252324957
1712190191296,-9421.275208781473
1712190191336,-7078.90389664378
1712190191376,-5068.855858040042
1712190191416,-3387.994278023485
1712190191456,-1942.5347585643176
1712190191496,-831.2818820783868
1712190191536,905.7582843741402
1712190191576,-522.6246189093217
1712190191616,-5824.973334792769
1712190191656,-12123.62446806021
1712190191696,-15150.266227993648
1712190191736,-15752.833855122328
1712190191776,-15051.108747158665
1712190191816,-14353.424753359985
1712190191856,-13376.234614274465
1712190191896,-13084.57954918663
1712190191936,-12611.598187678494
1712190191976,-11090.788277552696
1712190192016,-8944.859352383995
1712190192056,-6548.120862849988
1712190192096,-4725.8786935461685
1712190192136,-2940.1035272360314
1712190192176,-1114.5360809941776
1712190192216,882.4863877687603
1712190192256,2555.5507066017017
1712190192296,2970.108550007688
1712190192336,-338.95241293590516
1712190192376,-5927.981247589923
1712190192416,-9860.97517929785
1712190192456,-10577.920535351848
1712190192496,-10172.348032426322
1712190192536,-9079.741170158144
1712190192576,-8011.953927056398
1712190192616,-7494.6635342966765
1712190192656,-7280.646738568321
1712190192696,-5734.43548757839
1712190192736,-3254.308461318491
1712190192776,-410.7567335346248
1712190192816,1402.6853858316317
1712190192856,3338.582838958828
1712190192896,5141.246837375918
1712190192936,6846.814408425242
1712190192976,8472.1027989937
1712190193016,9711.599277909845
1712190193056,7625.021405536681
1712190193096,2617.08875628002
1712190193136,-1681.8789740107022
1712190193176,-2590.26528917579
1712190193216,-1975.609522649087
1712190193256,-801.3571275696158
1712190193296,533.233958975412
1712190193336,313.5754375248216
1712190193376,708.1221165626775
1712190193416,1815.8718415086623
1712190193456,3704.1095135957003
1712190193496,6302.73630148964
1712190193536,8431.948249649256
1712190193576,10212.883247775026
1712190193616,11726.878569117282
1712190193656,13330.51511718682
1712190193696,14808.365213952959
1712190193736,15170.412659850204
1712190193776,11488.780492843129
1712190193816,5904.830082671717
1712190193856,2351.1261744019575
1712190193896,1403.1478086556308
1712190193936,1952.9306515897624
1712190193976,2259.1016249866225
1712190194016,2631.111147666583
1712190194056,2081.3843581385445
1712190194096,1615.15811118274
1712190194136,2526.9342638859525
1712190194176,3892.2511812071316
1712190194216,5916.5329875065945
1712190194256,7202.30365586956
1712190194296,8613.522673120955
1712190194336,10190.850259325467
1712190194376,10997.835614318494
1712190194416,12467.68585529551
1712190194456,13489.543981983326
1712190194496,10965.143221406266
1712190194536,5703.588084707037
1712190194576,873.7871125482488
1712190194616,-612.2831363324076
1712190194656,-1144.9452966689132
1712190194696,-787.8009480526671
1712190194736,-109.0473392130807
1712190194776,-278.328727287706
1712190194816,-543.488916286733
1712190194856,376.2227391717024
1712190194896,1754.4027628120966
1712190194936,2919.5885349190794
1712190194976,4859.451521552866
1712190195016,6696.493986261077
1712190195056,8065.851125171408
1712190195096,9176.971406877507
1712190195136,9974.39971441566
1712190195176,11246.557202285156
1712190195216,10106.484741126187
1712190195256,6146.95174355153
1712190195296,856.6205660603009
1712190195336,-2148.1493512443267
1712190195376,-2230.6544912061654
1712190195416,-2011.4395881018136
1712190195456,-1342.4541688750032
1712190195496,-983.5105666036252
1712190195536,-1212.0994920353405
1712190195576,-1000.9003340045456
1712190195616,-678.6866356744431
1712190195656,1352.2202675780281
1712190195696,3305.332658567466
1712190195736,4713.371048026718
1712190195776,5957.084025953198
1712190195816,6835.4661688050255
1712190195856,7595.67718996387
1712190195896,9124.223519541323
1712190195936,10211.447160532
1712190195976,8583.190902305068
1712190196016,3718.08734689001
1712190196056,-990.8722278184723
1712190196096,-3151.9569278331473
1712190196136,-3405.0303140645847
1712190196176,-2824.923820435535
1712190196216,-1983.3292276109569
1712190196256,-2168.7110835027415
1712190196296,-2597.4651674963534
1712190196336,-2580.77157148323
1712190196376,-1594.1301991499495
1712190196416,457.8761881655082
1712190196456,1971.4263301999308
1712190196496,3654.0291523279157
1712190196536,4542.250834623817
1712190196576,5553.500047547743
1712190196616,6497.392223202158
1712190196656,7972.911826412659
1712190196696,9034.09270059457
1712190196736,7153.418007379863
1712190196776,2299.2258300543763
1712190196816,-1734.2525183381513
1712190196856,-3310.624102345202
1712190196896,-2983.8353530454915
1712190196936,-1962.5245577401947
1712190196976,-1303.6643523629755
1712190197016,-1932.0425206525251
1712190197056,-2265.5347226355225
1712190197096,-2150.2563397889026
1712190197136,-724.2365754572675
1712190197225,624.8751972247846
1712190197265,2268.40710286214
1712190197305,3678.0501790086273
1712190197345,4740.5552534125745
1712190197386,5754.101244878024
1712190197425,7563.007061359473
1712190197465,8687.827723586233
1712190197506,7937.669840715826
1712190197546,3972.7366830187384
1712190197587,-508.20399457309395
1712190197626,-2545.4643489841837
1712190197666,-2229.514797227457
1712190197706,-584.1612487197854
1712190197746,-204.95448525552638
1712190197787,-64.85346046928316
1712190197827,-219.23977822484449
1712190197867,-14.544280413305387
1712190197907,730.612400745973
1712190197947,2690.046016818378
1712190197988,3841.696841121884
1712190198027,5428.860865618102
1712190198067,6605.510864857119
1712190198108,6688.1421564519405
1712190198148,7654.829812181182
1712190198189,8728.741832781816
1712190198228,7478.078075390076
1712190198268,1717.7864357666112
1712190198308,-4784.051657904871
1712190198348,-7723.507137431763
1712190198389,-8869.235758496681
1712190198429,-8884.145825000945
1712190198469,-8335.873193594627
1712190198509,-8434.363411200233
1712190198549,-9383.579269611044
1712190198590,-9573.613968436606
1712190198629,-8883.215209764894
1712190198670,-7210.802609020378
1712190198710,-5580.8705293468665
1712190198750,-3928.985493598273
1712190198791,-2084.89620187087
1712190198830,-1489.8538285573013
1712190198870,-5.81550954375416
1712190198910,1354.0176126877777
1712190198951,64.34299960150383
1712190198991,-5645.840640417766
1712190199031,-11683.423294476233
1712190199071,-15147.30934161297
1712190199111,-16685.848170146346
1712190199151,-16107.876391445054
1712190199192,-15980.594238330144
1712190199231,-16273.158989840653
1712190199271,-16198.763377181953
1712190199312,-15215.241054279264
1712190199352,-13712.617545321584
1712190199392,-10943.202460892033
1712190199432,-9110.400706624147
1712190199472,-7725.445732793771
1712190199512,-6474.184906450799
1712190199552,-4643.467462857254
1712190199593,-2995.8291226141155
1712190199632,-5086.80038219993
1712190199673,-10967.093384664273
1712190199713,-16526.7276214147
1712190199753,-18904.55033934163
1712190199794,-18614.545159720583
1712190199833,-17214.208075910807
1712190199873,-16371.149662920274
1712190199913,-15720.279981790576
1712190199953,-16024.882164164446
1712190199994,-15100.401997910812
1712190200033,-13733.963072969345
1712190200073,-11463.725833764067
1712190200114,-8723.960017568199
1712190200154,-7030.667637703009
1712190200195,-5300.965442589484
1712190200234,-3448.4309488125145
1712190200274,-2015.96454397263
1712190200314,334.3614568137564
1712190200354,-879.4700063564815
1712190200395,-6690.4247479406185
1712190200434,-12612.169782356825
1712190200475,-14881.300835784525
1712190200515,-14629.997917001601
1712190200555,-13127.654226441868
1712190200596,-12093.993191135349
1712190200635,-11718.020757098682
1712190200675,-12143.290083304979
1712190200715,-12056.651966694975
1712190200755,-10186.606285596266
1712190200796,-7475.518210646231
1712190200836,-5331.723135428503
1712190200876,-3343.8365951036103
1712190200916,-1381.8618450958747
1712190200956,306.1428176162299
1712190200997,2111.4334670950193
1712190201036,3971.07503132266
1712190201076,1261.6214459631592
1712190201116,-5183.249755694065
1712190201156,-9842.191506377887
1712190201197,-11496.691012633964
1712190201237,-10716.23723455565
1712190201277,-8998.505370947998
1712190201317,-7641.553339553066
1712190201358,-7780.9196370081045
1712190201398,-7865.6829569707625
1712190201438,-6982.406396125443
1712190201478,-5093.8941008828115
1712190201518,-3074.452425654279
1712190201558,-579.3210616004653
1712190201599,808.8717376578134
1712190201638,2633.0319588570856
1712190201678,4406.956628241111
1712190201719,5400.444413802354
1712190201759,5694.194326879224
1712190201800,1210.7105462253094
1712190201840,-6350.929779581726
1712190201880,-11775.191693973262
1712190201920,-13558.619891567621
1712190201960,-13324.84736579191
1712190202001,-12192.955255500041
1712190202040,-11396.244088054402
1712190202081,-11569.337635216769
1712190202121,-11515.023101849016
1712190202161,-10889.047613742528
1712190202202,-9158.741570285056
1712190202241,-6855.66810583137
1712190202281,-4401.257875010138
1712190202322,-2457.0089277117513
1712190202362,-550.1120971611235
1712190202402,1138.9327567929868
1712190202442,2644.971983860014
1712190202482,3547.4611567230895
1712190202522,-1288.7887271116488
1712190202562,-8451.812434110092
1712190202603,-13117.286493969383
1712190202642,-14183.228307954967
1712190202683,-14203.303206405137
1712190202723,-13138.217292160029
1712190202763,-11736.7752065463
1712190202804,-11540.928055248223
1712190202843,-11420.311444748193
1712190202883,-9844.918330701767
1712190202923,-7707.221083412413
1712190202963,-5500.007413719315
1712190203004,-2767.916727568023
1712190203044,-1005.0367045323364
1712190203084,865.9397234879434
1712190203124,2249.9101560376585
1712190203164,4780.834142110543
1712190203205,4719.9231725838035
1712190203244,-1044.1612153341994
1712190203285,-7899.669431797694
1712190203325,-11577.54998800531
1712190203365,-12032.472568643047
1712190203406,-11449.084388069343
1712190203445,-10137.277348447125
1712190203485,-9352.409025154542
1712190203526,-9117.374166697264
1712190203566,-8751.666284134146
1712190203607,-7398.824946125504
1712190203646,-5216.022204395849
1712190203686,-2333.917990950402
1712190203726,-190.1584799438715
1712190203766,1487.6166309870314
1712190203807,3349.863765371265
1712190203847,5177.2514810175635
1712190203887,7111.382387667894
1712190203927,6128.4572029821575
1712190203967,699.4898805506527
1712190204008,-5617.858817589702
1712190204047,-8570.877114532981
1712190204087,-8202.54931668844
1712190204128,-6790.72425386752
1712190204168,-5595.099787908839
1712190204209,-4921.227519792505
1712190204248,-4975.958588094683
1712190204288,-4550.5459466963075
1712190204328,-2580.8142770845443
1712190204369,-265.23532174294814
1712190204409,1831.3869725707918
1712190204449,3248.8449763101526
1712190204489,4657.960536064114
1712190204529,6244.262270961888
1712190204569,7827.708358750213
1712190204610,9051.0089759978
1712190204649,5971.08435775782
1712190204689,-121.87677828595042
1712190204729,-4415.1033875839785
1712190204770,-5792.6710343905725
1712190204811,-4635.470746977953
1712190204850,-2792.097035886487
1712190204890,-1659.3796565588564
1712190204930,-1674.0712780412287
1712190204970,-1907.6522250531707
1712190205011,-645.8763270471245
1712190205050,1344.6955900844187
1712190205091,3705.3624120554887
1712190205131,5689.564134607092
1712190205171,7247.1344507751055
1712190205212,9043.550697881496
1712190205251,10950.996568252333
1712190205291,12547.198288143612
1712190205331,9818.145989607088
1712190205371,3092.3857952731196
1712190205412,-2470.6442273668945
1712190205452,-4266.105860586744
1712190205492,-4458.711362332571
1712190205532,-3388.620845398633
1712190205572,-2667.347435508389
1712190205613,-3023.707979856292
1712190205652,-3388.3424432377797
1712190205692,-2366.993475103285
1712190205732,-809.5611090948805
1712190205772,1211.78964777058
1712190205813,3245.3957922244444
1712190205853,4516.200231681811
1712190205893,5989.889972819714
1712190205933,7441.773739963071
1712190205973,9091.090076426975
1712190206014,7997.49290878349
1712190206053,2021.5218226688448
1712190206093,-5490.572462018579
1712190206133,-9515.180095102172
1712190206173,-10533.367106022779
1712190206214,-10605.453987787943
1712190206253,-9325.538492927328
1712190206294,-8507.508971258998
1712190206334,-8751.848708174657
1712190206374,-8526.146175550297
1712190206415,-6711.895512529183
1712190206454,-4390.107239315519
1712190206494,-1842.0304507240653
1712190206534,-22.704326891805977
1712190206574,1562.3526795068756
1712190206615,2902.919025852345
1712190206655,4577.864056851715
1712190206695,6658.116696588229
1712190206735,5127.990166451316
1712190206775,-1281.8056208686903
1712190206816,-8296.348273404641
1712190206855,-11341.206780134235
1712190206895,-11704.73898868775
1712190206935,-10918.451458694879
1712190206975,-9470.497090505203
1712190207016,-9001.961156189907
1712190207056,-8797.126152465586
1712190207096,-8104.470282322727
1712190207136,-6407.463714581449
1712190207176,-3962.0175481059123
1712190207217,-1559.2073862738907
1712190207256,388.216450602049
1712190207296,2379.4397161093075
1712190207337,3746.6550262039527
1712190207377,5616.578075082973
1712190207417,7554.33576943283
1712190207457,5552.534696636489
1712190207497,-1006.9589795870706
1712190207537,-7326.610424221959
1712190207577,-10034.11147259525
1712190207618,-9872.697852600832
1712190207658,-8759.906799771823
1712190207698,-7742.949596902356
1712190207738,-7416.469064260367
1712190207778,-7577.743691443466
1712190207819,-6306.212346888846
1712190207858,-4559.493065840099
1712190207898,-2314.7514914579224
1712190207938,126.57643491728231
1712190207979,1895.5205565886572
1712190208019,3781.148255947279
1712190208059,5135.066535404883
1712190208099,7153.751130464021
1712190208139,9053.224849735852
1712190208179,7626.3162556677125
1712190208220,939.7908057207242
1712190208260,-5937.548476731172
1712190208300,-8676.999957664171
1712190208340,-8585.132768265903
1712190208380,-7193.208269760944
1712190208421,-5862.7784381429665
1712190208460,-5570.872548368759
1712190208500,-5368.075003568083
1712190208540,-4823.897223816719
1712190208581,-3103.662683357252
1712190208621,-341.46618805779144
1712190208661,1800.007480028551
1712190208701,3692.9589039415587
1712190208741,5197.348653690424
1712190208781,6680.2103993156925
1712190208822,8508.283609734382
1712190208862,9463.860338254366
1712190208902,6321.958508089418
1712190208942,-501.9151448905468
1712190208982,-4815.170313081238
1712190209023,-5410.073699201224
1712190209062,-3875.053184197983
1712190209103,-1885.9517370113172
1712190209143,-553.9611615468748
1712190209183,-632.7644861103036
1712190209224,-340.8139364980161
1712190209263,933.077559908852
1712190209302,2886.333524697926
1712190209341,5405.115240731742
1712190209380,7491.44244352309
1712190209419,9192.314755741041
1712190209458,11370.190817910247
1712190209497,13331.449618890882
1712190209536,14690.996427059174
1712190209575,12299.858018626692
1712190209614,5461.203740226803
1712190209653,-462.8419053070247
1712190209692,-2730.1893158853054
1712190209732,-2598.1656698011793
1712190209772,-2012.704530551564
1712190209812,-1170.9809662760235
1712190209852,-1470.4772857236676
1712190209892,-2276.6775429779664
1712190209932,-1625.786868535215
1712190209972,-479.2063409280963
1712190210012,1628.4259357850533
1712190210052,3535.968916926766
1712190210092,6624.379324519075
1712190210132,8000.799983018776
1712190210172,9870.226781381294
1712190210212,8847.41987849027
1712190210252,2087.6563052730635
1712190210292,-5440.950175499078
1712190210332,-9588.858794370433
1712190210372,-10041.469266441884
1712190210412,-9540.10235074372
1712190210452,-8739.123830386903
1712190210492,-8139.6320711481385
1712190210532,-8274.011269319803
1712190210572,-7495.803793172352
1712190210612,-5662.305919078179
1712190210652,-2917.6304919668473
1712190210692,-110.17131883604452
1712190210732,1665.2122530841734
1712190210772,3287.367618289776
1712190210812,4757.405725535704
1712190210852,6208.556374545675
1712190210892,7824.817895721644
1712190210932,4536.355940180831
1712190210972,-3046.9189749041107
1712190211012,-8920.196220265469
1712190211052,-10236.730830306886
1712190211092,-10329.396489845123
1712190211132,-9047.357564056758
1712190211172,-8081.934786137193
1712190211212,-7341.837595217628
1712190211252,-7151.897437178064
1712190211292,-5930.797382451361
1712190211332,-4333.899942404591
1712190211372,-1769.7159838965163
1712190211412,537.891043150099
1712190211452,1893.5785046492238
1712190211492,3391.72152037872
1712190211532,4589.702099334681
1712190211572,6785.821783860214
1712190211612,6693.518172915559
1712190211652,843.498175851535
1712190211692,-6460.906080574263
1712190211732,-9708.634221639251
1712190211772,-10079.695372174727
1712190211812,-8971.425453459378
1712190211852,-7368.819570136489
1712190211892,-6321.181235950673
1712190211932,-6782.830106466543
1712190211972,-6120.470903178211
1712190212012,-4565.826561528724
1712190212052,-1725.2219112943858
1712190212092,1145.780233579222
1712190212132,3411.8631893619895
1712190212172,4904.907760817092
1712190212212,6439.109690207057
1712190212252,8074.664333804045
1712190212292,9282.248745752964
1712190212332,5678.7660137848
1712190212372,-1243.4543833220378
1712190212412,-5879.863073485438
1712190212452,-6248.815185042564
1712190212492,-5633.1863669545855
1712190212532,-3793.2423993744887
1712190212572,-3066.9650859250687
1712190212612,-2845.4411441907287
1712190212652,-2605.79585413076
1712190212692,-1215.789920241572
1712190212732,1264.2272042846307
1712190212772,3506.264733064454
1712190212812,5671.29173183348
1712190212852,7366.866955148522
1712190212892,9060.895987992408
1712190212932,11104.249963444192
1712190212972,11848.785871616565
1712190213012,7008.352148614824
1712190213052,408.3147225459106
1712190213092,-3103.4299729070626
1712190213132,-3524.525176471565
1712190213172,-2682.657419821713
1712190213212,-1104.5668938995805
1712190213252,-420.5938170675654
1712190213292,-142.30116574233398
1712190213332,-254.41277314256877
1712190213372,993.8299160692841
1712190213412,3176.721736243926
1712190213452,4981.393847404048
1712190213492,7021.568372060778
1712190213532,8785.91340013477
1712190213572,10108.48494051164
1712190213612,12110.79571427661
1712190213652,10075.547238236992
1712190213692,3209.9253710438497
1712190213732,-3349.2346450302284
1712190213772,-7024.220545975026
1712190213812,-7047.23443532479
1712190213852,-6380.807101488113
1712190213892,-5754.302247474436
1712190213932,-5502.894018338062
1712190213972,-5621.427091176156
1712190214012,-5226.165653414559
1712190214052,-3517.231301763095
1712190214092,-1177.0373692871071
1712190214132,1243.2481272516306
1712190214172,3521.6449368942995
1712190214212,4879.663206989877
1712190214252,6374.670545933768
1712190214292,7921.997737484053
1712190214332,4947.639660915127
1712190214372,-2026.1759409429505
1712190214412,-8150.738888995256
1712190214452,-10036.457061556168
1712190214492,-10123.447407852393
1712190214532,-9063.530021138955
1712190214572,-8208.42098938534
1712190214612,-7781.8673885716125
1712190214652,-7112.470242088428
1712190214692,-6543.725773636252
1712190214732,-4550.499222230166
1712190214772,-1865.8347589822952
1712190214812,304.6029886766337
1712190214852,2603.3028838257305
1712190214892,3734.415631399257
1712190214932,5901.05866068881
1712190214972,7835.65219879942
1712190215012,4763.604237366002
1712190215052,-1536.8014157610014
1712190215092,-6814.6503171180375
1712190215132,-7773.272044380195
1712190215172,-7371.037123364862
1712190215212,-6122.25822665263
1712190215252,-4711.815831400454
1712190215292,-4308.636749550467
1712190215332,-4027.786761776544
1712190215372,-2614.245783118531
1712190215412,-662.082498931326
1712190215452,1475.7301838870626
1712190215492,3477.316554984078
1712190215532,5715.913405029103
1712190215572,7171.4458864235785
1712190215612,9335.501361169852
1712190215652,10093.023640688974
1712190215692,6518.978617839981
1712190215732,-60.17009252170101
1712190215772,-3720.587651375681
1712190215812,-3678.282323115971
1712190215852,-2251.7004254788626
1712190215892,-399.28941536555067
1712190215932,614.6743456809781
1712190215972,1243.8010342197958
1712190216012,1824.0912953664083
1712190216052,3357.8402214250527
1712190216092,5551.820931119379
1712190216132,8126.720477245515
1712190216172,10358.78490308486
1712190216212,11900.17967934697
1712190216252,13433.100128439954
1712190216292,14833.363996611908
1712190216332,12581.91415758431
1712190216372,5943.315526298713
1712190216412,-355.83582347119227
1712190216452,-2360.945575523656
1712190216492,-2512.179128152551
1712190216532,-1760.574581520399
1712190216572,-433.86767310556024
1712190216612,-477.4495336350519
1712190216652,-955.9229228559416
1712190216692,-292.4222922292538
1712190216732,1499.574617351871
1712190216772,3719.8966837639455
1712190216812,5423.012794939103
1712190216852,7075.839680728968
1712190216892,8417.127740065102
1712190216932,10050.384322039085
1712190216972,11553.663213060237
1712190217012,8855.85152051947
1712190217052,2501.509267169051
1712190217092,-3647.9124338109978
1712190217132,-6203.99300587317
1712190217172,-6378.333024030551
1712190217212,-5734.905661239754
1712190217252,-4711.17681483319
1712190217292,-4106.720044377726
1712190217332,-4243.691110926215
1712190217372,-3552.7179775203113
1712190217412,-1820.8551911483519
1712190217452,457.7103917011991
1712190217492,2960.8269171961583
1712190217532,4545.727244642563
1712190217572,6083.095110967988
1712190217612,7921.64419185929
1712190217652,9914.069779299665
1712190217692,9198.106412106426
1712190217732,3043.472759608878
1712190217772,-3516.5597628480755
1712190217812,-5988.458039841615
1712190217852,-6370.290918270126
1712190217892,-5292.977944162907
1712190217932,-3727.194926872384
1712190217972,-3119.5123616605997
1712190218012,-3236.8741907507647
1712190218052,-2698.68540698383
1712190218092,-980.4156158585101
1712190218132,960.2356226667762
1712190218172,3207.684063849738
1712190218212,4939.172094095964
1712190218252,6374.3699726997875
1712190218292,8240.560958759394
1712190218332,9811.334315603832
1712190218372,10125.874354714993
1712190218412,5989.87821483938
1712190218452,-227.04645233415067
1712190218492,-3228.2576184342615
1712190218532,-3799.4940195488743
1712190218572,-2827.814631002024
1712190218612,-1256.2449140506797
1712190218652,-533.8045154141728
1712190218692,-651.1631848993711
1712190218732,-822.5323005886748
1712190218772,301.40585631038994
1712190218812,2335.474260594696
1712190218852,4892.472631753422
1712190218892,6725.756153605413
1712190218932,8009.169896129519
1712190218972,9523.770296879113
1712190219012,11470.139553660061
1712190219052,11209.333280731924
1712190219092,6788.395179638639
1712190219132,921.0273637685459
1712190219172,-2009.9875956906471
1712190219212,-1769.4014207187574
1712190219252,-262.51502669462934
1712190219292,1846.8417426168453
1712190219332,2620.590002899291
1712190219372,2186.89695153269
1712190219412,3075.4462710700464
1712190219452,4744.9672847678885
1712190219492,6802.7459826767445
1712190219532,8838.102088943124
1712190219572,10498.585975869326
1712190219612,11732.915906734997
1712190219652,13351.675450792536
1712190219692,14214.294882105663
1712190219732,12051.664542773273
1712190219772,5157.639185893349
1712190219812,-1149.6201048353687
1712190219852,-3929.818480552174
1712190219892,-4450.542551726103
1712190219932,-3739.4179545969237
1712190219972,-3033.890673038084
1712190220012,-2528.1616736378055
1712190220052,-2756.986080478411
1712190220092,-2001.9177525185514
1712190220132,-1028.8251740906853
1712190220172,1097.4579189375509
1712190220212,3144.2892896374688
1712190220252,4857.899639876792
1712190220292,6031.073466121219
1712190220332,7922.959611297119
1712190220372,9160.278044081526
1712190220412,7786.1844920129515
1712190220452,1864.3193684022408
1712190220492,-5122.004979776451
1712190220532,-8407.696792343631
1712190220572,-8843.843754968373
1712190220612,-8462.493753103772
1712190220652,-7001.407345727785
1712190220692,-6418.113229127601
1712190220732,-6464.372139534447
1712190220772,-5947.858090146212
1712190220812,-4446.943344087806
1712190220852,-2377.9224648186937
1712190220892,-244.05912757734768
1712190220932,1346.1157185079064
1712190220972,2843.9590563259553
1712190221012,4894.843419970479
1712190221052,6572.611168820178
1712190221092,6673.015282617882
1712190221132,1432.170177357737
1712190221172,-5336.437242631335
1712190221212,-8547.297669118736
1712190221250,-9163.379961969098
1712190221290,-8741.852657972137
1712190221330,-7795.648295963183
1712190221370,-7067.067917369073
1712190221411,-7218.843806635123
1712190221451,-6960.801555746235
1712190221491,-5366.366195275681
1712190221531,-3611.381740122335
1712190221571,-918.0735537840519
1712190221612,1775.3960953368805
1712190221651,3280.513079173863
1712190221691,7868.436798539013
1712190221731,8762.711212593596
1712190221771,4733.72858272586
1712190221812,-1097.7791037480347
1712190221851,-5571.624476380646
1712190221892,-5804.569874875946
1712190221932,-4849.719675968168
1712190221972,-3311.5083638518117
1712190222013,-2840.9757410867605
1712190222052,-3060.0668104551733
1712190222092,-2815.709193603834
1712190222132,-1927.4591641994193
1712190222172,-72.90145761915483
1712190222213,2074.416795063298
1712190222252,3930.520607668441
1712190222292,5798.52252958063
1712190222333,7044.0763605460525
1712190222373,9140.413291007048
1712190222413,8944.246322474442
1712190222453,3924.8664417127147
1712190222493,-1876.1108655149583
1712190222533,-4224.678849709686
1712190222573,-3356.8676063916646
1712190222614,-974.7457789401524
1712190222653,584.5623564869165
1712190222693,1639.630486340262
1712190222734,1379.4789840504527
1712190222774,2175.7485356365796
1712190222814,3745.1575591869187
1712190222854,5790.9663659418
1712190222894,7153.807296389015
1712190222934,9088.587348103523
1712190222974,10208.836578242714
1712190223015,11445.227724078111
1712190223054,12381.881977460813
1712190223095,8132.367638082709
1712190223135,1183.223005387932
1712190223175,-4220.244790186174
1712190223216,-5952.775934551377
1712190223255,-6078.379203198943
1712190223295,-5108.956282546744
1712190223335,-4613.628620636417
1712190223375,-4670.010866858531
1712190223416,-4916.822034397861
1712190223456,-3797.646935733035
1712190223495,-1948.0007883920334
1712190223536,-57.66520303487778
1712190223576,1435.1567255198024
1712190223617,3555.331025336869
1712190223656,4852.613530772738
1712190223696,6705.144976601936
1712190223736,7043.918984179385
1712190223776,1937.2289727604948
1712190223817,-4835.166321036406
1712190223857,-9003.929885849822
1712190223897,-9683.426723966608
1712190223937,-9323.203451334499
1712190223977,-8832.191898593446
1712190224018,-7723.99574238807
1712190224057,-8172.43072359846
1712190224097,-7561.055160262156
1712190224137,-6366.5475468724035
1712190224177,-4148.752331099473
1712190224218,-1870.5613646393176
1712190224257,-130.33349650073797
1712190224298,1837.8725753836334
1712190224338,3082.8479393119924
1712190224378,4936.480031612329
1712190224419,4574.537449677708
1712190224458,-805.3640630804002
1712190224498,-7235.745469047688
1712190224538,-10197.598296045559
1712190224578,-10702.340805262327
1712190224619,-9779.764906810597
1712190224659,-8889.589764324017
1712190224699,-7665.083061109297
1712190224739,-7756.562564410735
1712190224779,-7155.408362428192
1712190224820,-5343.510420787148
1712190224859,-3029.632647777209
1712190224899,-1160.2517181918956
1712190224939,1139.7976519637741
1712190224979,2859.5940360545646
1712190225020,4473.907504569273
1712190225060,6355.3564657138195
1712190225100,6221.678208718542
1712190225140,1507.2256390694529
1712190225180,-4731.818535195198
1712190225221,-6825.3777789471205
1712190225260,-6481.747999378014
1712190225300,-4993.302056722343
1712190225340,-3860.56706599053
1712190225381,-2995.5938086607493
1712190225421,-2721.556065016426
1712190225461,-2428.5943290519062
1712190225501,-695.5089284796268
1712190225541,1630.0679078665562
1712190225581,3541.365661778953
1712190225622,5624.727509727236
1712190225661,6919.503227303736
1712190225701,8454.691888028523
1712190225742,10426.922767583746
1712190225782,9260.467295436421
1712190225822,3544.847143432824
1712190225862,-1294.5431828887668
1712190225902,-2439.0752465722617
1712190225942,-1522.209107184317
1712190225982,180.47454051673412
1712190226023,1167.1984476968646
1712190226062,1908.538822133094
1712190226103,1873.5873638889752
1712190226143,2607.12106805807
1712190226183,4688.051058774814
1712190226224,6374.30021873489
1712190226263,8239.877224574564
1712190226303,9762.377977401484
1712190226343,10820.910098507535
1712190226383,12486.1742303567
1712190226424,13624.453534214292
1712190226464,10303.880900530145
1712190226504,3198.2911477284506
1712190226544,-1918.2135849671904
1712190226584,-3431.6098531866446
1712190226625,-3406.369775239378
1712190226664,-2811.291257765144
1712190226704,-2092.87154445285
1712190226744,-1733.4366263230331
1712190226785,-1766.8031529039145
1712190226825,-673.4510858352296
1712190226865,1151.4950154079124
1712190226905,3414.322800437687
1712190226945,5445.156007818878
1712190226985,7168.982515131589
1712190227026,8333.365220493171
1712190227066,9799.319908592384
1712190227106,11291.474708937574
1712190227146,7785.964451011037
1712190227186,1297.420802795561
1712190227227,-3271.152109574992
1712190227266,-4651.729365944862
1712190227306,-4554.058248176239
1712190227347,-3911.041715338826
1712190227387,-3253.908217198681
1712190227428,-2627.096201492008
1712190227467,-2456.9868061095476
1712190227507,-1325.8461436075158
1712190227547,330.6213399572298
1712190227587,2407.4844315545633
1712190227628,4437.147935909918
1712190227668,5812.920682048192
1712190227708,7142.003036214737
1712190227748,8766.39998951694
1712190227788,10305.314982352778
1712190227829,9457.907338996418
1712190227868,3389.6095816944726
1712190227908,-2774.6393291014247
1712190227948,-4916.640384467319
1712190227988,-5164.907125127502
1712190228029,-4420.473168431316
1712190228068,-3056.789216444595
1712190228109,-2556.765262973029
1712190228149,-2325.222062575165
1712190228189,-2089.585983804427
1712190228229,-628.2627189247869
1712190228269,1629.9091166569851
1712190228309,4014.8345713836607
1712190228349,5561.918299608631
1712190228389,6960.2046832467895
1712190228430,9201.651124073192
1712190228469,10896.902964933775
1712190228510,11614.131488653366
1712190228550,7889.178127476014
1712190228590,1853.649897777941
1712190228631,-1659.6288400159683
1712190228670,-1954.3034945162944
1712190228710,-1297.6713301315904
1712190228750,-359.5924515055958
1712190228790,392.87725573568605
1712190228831,68.22436096146703
1712190228870,172.00114300264977
1712190228910,1373.84849956166
1712190228950,2836.288180849282
1712190228991,4681.977944277693
1712190229031,6615.535903044045
1712190229071,8147.613445616327
1712190229111,9843.124749798095
1712190229151,11853.146571700694
1712190229191,11849.715076125227
1712190229232,7258.980105420807
1712190229271,1585.375682579819
1712190229311,-1082.7569848182611
1712190229351,-1065.7569744810462
1712190229391,102.04487385274842
1712190229432,1444.1373652310576
1712190229472,1740.4712859038264
1712190229512,1571.3068402567878
1712190229552,1858.2148144128732
1712190229592,3273.549030771712
1712190229633,5287.824292906327
1712190229672,7456.298124513123
1712190229712,8906.61812433484
1712190229752,9877.767094430048
1712190229792,11100.602626663866
1712190229833,12443.555006235605
1712190229873,11653.924650837667
1712190229913,4831.379243078642
1712190229953,-1637.9931792477146
1712190229993,-4723.236914868001
1712190230034,-5277.393238650169
1712190230073,-5248.125697547104
1712190230113,-4552.977099476848
1712190230153,-4522.409185042372
1712190230194,-4916.48985466687
1712190230234,-4521.470152894268
1712190230274,-3134.560155072948
1712190230314,-965.0308075048961
1712190230354,933.7253373595886
1712190230394,2579.570194481639
1712190230435,3943.0645222286694
1712190230474,5497.441302769352
1712190230514,7234.680495843524
1712190230555,6433.130253859796
1712190230594,718.9265083037317
1712190230635,-5823.049174510874
1712190230675,-9023.90893459972
1712190230715,-9803.940002081217
1712190230755,-9491.98676113179
1712190230795,-8603.21281673666
1712190230836,-7849.204551733099
1712190230875,-8413.806915599387
1712190230916,-8386.780643326463
1712190230956,-7308.344559175428
1712190230996,-5463.299590585753
1712190231037,-3312.2486662422307
1712190231076,-1532.9613456639927
1712190231116,294.52224369277246
1712190231156,1699.88971404545
1712190231196,3964.3341349423863
1712190231237,4529.262993170414
1712190231277,-295.3435924120713
1712190231317,-6740.45085433824
1712190231357,-9781.945156096015
1712190231397,-10264.21280384413
1712190231437,-9737.293657536153
1712190231477,-8099.533006799873
1712190231517,-7160.232739371946
1712190231557,-7248.221985567361
1712190231597,-6885.888580756728
1712190231638,-5389.388535027858
1712190231678,-3277.1493649031036
1712190231718,-1751.6108388849534
1712190231758,-157.96273516491055
1712190231798,1625.0894634032156
1712190231839,2925.7584230070934
1712190231878,5012.426482877228
1712190231918,6446.246840481181
1712190231958,4569.521291935118
1712190231999,-1406.246339768637
1712190232039,-6817.864733302966
1712190232079,-8417.303895215504
1712190232119,-8110.002448003972
1712190232159,-6243.008433913812
1712190232199,-4555.738823143765
1712190232240,-3866.4486778886057
1712190232279,-4137.727780755842
1712190232320,-3214.035695144208
1712190232360,-1188.3331434768625
1712190232400,1056.3565938062966
1712190232441,2575.0919588007964
1712190232480,4372.339697347023
1712190232520,6023.499978878768
1712190232560,7935.414664221462
1712190232601,9543.581920299679
1712190232641,8913.248633835465
1712190232681,4157.821790802758
1712190232721,-1907.2492557442747
1712190232761,-4410.818719998468
1712190232801,-3977.3324912029784
1712190232842,-2423.37068541348
1712190232881,-1375.1670676104259
1712190232921,-1035.0816895375028
1712190232962,-1367.1220473940484
1712190233002,-781.6160032856278
1712190233042,797.5963415480219
1712190233082,2787.604405881837
1712190233122,4838.052906594006
1712190233162,6541.119492454454
1712190233202,8032.547219415661
1712190233243,10274.846518267412
1712190233283,11757.368691636715
1712190233324,11290.74980301084
1712190233364,6450.403619301273
1712190233404,1138.5523249371909
1712190233445,-477.583419814473
1712190233484,189.17395263095386
1712190233524,1315.8101210021414
1712190233565,2774.8543244577013
1712190233605,2570.318051266717
1712190233645,2418.27341702953
1712190233685,2529.0120294233784
1712190233725,3888.388701037038
1712190233765,5679.254987934139
1712190233806,7296.084609014681
1712190233846,8667.866682414897
1712190233886,9901.748125219718
1712190233926,11600.65244383295
1712190233966,12630.178796999156
1712190234006,10435.139435322024
1712190234047,4006.573463248089
1712190234086,-4445.8821727470495
1712190234126,-4455.496742142364
1712190234166,-3838.0158101103734
1712190234206,-3282.873692017747
1712190234247,-3292.6469348524697
1712190234287,-3128.972058474086
1712190234327,-2347.5963881448843
1712190234367,-1030.91644350742
1712190234407,1202.2897272177506
1712190234448,2951.321033461718
1712190234487,4741.1329530337825
1712190234527,5845.295372600434
1712190234567,7310.894557457883
1712190234607,8911.889277575538
1712190234648,7656.437825530767
1712190234688,1872.4833626733162
1712190234728,-4296.758773689391
1712190234768,-7064.62037204206
1712190234808,-7197.370192435104
1712190234849,-6813.064812782686
1712190234888,-5523.726346982177
1712190234928,-4799.5854220534675
1712190234968,-5125.674013208132
1712190235008,-4205.908895708388
1712190235049,-2569.0752441666555
1712190235088,-620.0643068305217
1712190235129,1504.4512238537427
1712190235169,3145.120327565819
1712190235209,4374.984519277699
1712190235250,5526.479670771863
1712190235289,7662.993882114999
1712190235329,7472.105692487443
1712190235369,2878.500154370442
1712190235409,-3337.8832412899937
1712190235450,-6514.680959488032
1712190235490,-6650.25268127583
1712190235530,-5618.707144435262
1712190235570,-4551.632913132431
1712190235610,-4045.108483068645
1712190235650,-3764.1647427848075
1712190235690,-3288.586411014432
1712190235730,-2199.054918655893
1712190235770,-89.72037607827224
1712190235810,1728.8152539222501
1712190235851,3479.62432348961
1712190235891,5064.477428172715
1712190235931,6238.125899482053
1712190235971,8005.537650202401
1712190236011,8580.41165197175
1712190236052,4329.294589445926
1712190236091,-1395.839058260899
1712190236131,-3935.805259904824
1712190236171,-4090.111692315899
1712190236212,-3051.237641135929
1712190236252,-1299.3477071484085
1712190236292,-846.419862812385
1712190236332,-1084.4794136043638
1712190236372,-671.1283702538349
1712190236412,869.0932792746462
1712190236453,2800.659671276808
1712190236492,4884.770924955839
1712190236532,6725.583773061167
1712190236572,7954.179781863
1712190236612,9878.389814250171
1712190236653,11754.528317525983
1712190236693,10271.146127912682
1712190236733,5213.366494940594
1712190236773,8.285140450578183
1712190236813,-1902.2147241614293
1712190236854,-1682.4726889855228
1712190236893,-598.3154952828772
1712190236933,-159.37821917398833
1712190236973,-107.8944314243272
1712190237014,-356.3317629429512
1712190237054,560.5365471404511
1712190237094,2237.1269774653483
1712190237134,4291.428654218558
1712190237174,5431.501003948273
1712190237214,7461.86983198626
1712190237255,8322.794557227753
1712190237295,9439.020282940008
1712190237335,10638.802492157556
1712190237375,7680.0043072625995
1712190237415,1359.186959382845
1712190237456,-3904.4551561963744
1712190237495,-5613.306309609674
1712190237535,-6234.412786218803
1712190237575,-5365.028559265193
1712190237615,-4656.932961820625
1712190237656,-4634.781595571898
1712190237696,-4995.443330458133
1712190237736,-3955.0766680266242
1712190237776,-2644.6825859309174
1712190237816,-421.36422757501714
1712190237857,1763.38281956641
1712190237896,3162.4572408813983
1712190237936,4487.003916928079
1712190237976,5993.428576577222
1712190238017,7228.764444009867
1712190238057,6662.568341991631
1712190238097,1525.7010525334626
1712190238137,-4535.50794600416
1712190238177,-7174.98611331312
1712190238217,-7427.603628242388
1712190238258,-6773.409622187726
1712190238298,-5573.930561658461
1712190238338,-4952.463616037276
1712190238378,-5267.885061457986
1712190238418,-4790.87940812693
1712190238459,-3515.3282579379156
1712190238498,-1798.213269495871
1712190238538,335.442844329169
1712190238578,2227.577689942671
1712190238619,3736.6413526241668
1712190238659,5596.659796464257
1712190238699,7467.881793580018
1712190238739,8680.92081737984
1712190238779,5399.357639814727
1712190238819,-130.96053976751864
1712190238860,-4655.057244728319
1712190238900,-5566.102989533916
1712190238940,-5034.664113621693
1712190238980,-3558.401910981629
1712190239020,-2615.4136021826416
1712190239061,-2168.857080680784
1712190239100,-2126.721885361243
1712190239140,-1310.6510764299892
1712190239180,505.1959684137255
1712190239221,2859.743531321641
1712190239261,4779.141168930102
1712190239301,6119.642698752927
1712190239341,7600.9325106441975
1712190239381,9401.205036743078
1712190239421,10220.928969078697
1712190239462,8605.594979738817
1712190239502,3346.2749318699352
1712190239542,-1864.7589513983112
1712190239582,-3369.470875672996
1712190239622,-2820.544177744072
1712190239663,-1122.3818885157816
1712190239702,147.36841239593923
1712190239742,249.4555530406069
1712190239782,212.76022056676447
1712190239823,797.8159380275756
1712190239863,2401.7480167055037
1712190239903,4362.173903082963
1712190239943,6484.821871803841
1712190239983,8217.436455502873
1712190240023,9602.90402404475
1712190240064,11475.830934836995
1712190240103,12713.443464226555
1712190240143,10871.215348587837
1712190240184,5230.702874287963
1712190240224,61.06550424406305
1712190240264,-1526.7832291387022
1712190240304,-1591.1328420082573
1712190240344,-514.842722845031
1712190240384,511.00741090765223
1712190240424,207.4801754944492
1712190240465,-81.73939381050877
1712190240504,284.4590882677585
1712190240544,1647.451673640404
1712190240584,3761.2449016186874
1712190240625,5543.100303182378
1712190240665,7048.096917788731
1712190240705,8659.67193498835
1712190240745,10147.570410147542
1712190240785,11677.253506737994
1712190240825,10111.751550171524
1712190240866,4015.506687254645
1712190240905,-2236.339631638024
1712190240945,-5015.407661039382
1712190240985,-5644.712437761715
1712190241026,-5152.233245562296
1712190241066,-4402.127759815659
1712190241106,-4156.709737944882
1712190241146,-4552.352926417254
1712190241186,-3987.0537458027247
1712190241226,-2905.9833046204876
1712190241267,-1232.981786788907
1712190241306,644.3296208183747
1712190241346,2431.845611262601
1712190241386,3851.0128767453134
1712190241426,5348.186968321912
1712190241467,6863.822631891817
1712190241507,7024.531754513271
1712190241547,2547.2169185550883
1712190241587,-3711.7115106401034
1712190241627,-7485.847957655322
1712190241668,-8311.059975784272
1712190241707,-7847.778289930895
1712190241747,-6881.148263108684
1712190241787,-6299.661735614529
1712190241827,-6671.425705514848
1712190241868,-6622.372155564837
1712190241908,-5716.121204517549
1712190241948,-4084.051565218251
1712190241988,-1944.8582280473784
1712190242028,124.47995091928169
1712190242069,1548.75092162285
1712190242108,2904.128774748184
1712190242148,4420.7947650346905
1712190242188,5674.723931656219
1712190242228,2960.724102318054
1712190242269,-3288.7623417899013
1712190242308,-7972.969628218561
1712190242349,-9357.880028504878
1712190242389,-8669.624735907186
1712190242429,-7533.664273513947
1712190242470,-6469.216783076758
1712190242509,-6377.649448534474
1712190242549,-6365.326150587294
1712190242589,-5735.508957014186
1712190242629,-4051.2442414835095
1712190242670,-1844.3382846191525
1712190242710,290.9184898487292
1712190242750,2017.8790860890877
1712190242790,3120.4587669954635
1712190242830,4723.95246730838
1712190242871,6214.962876005098
1712190242910,5985.586043521296
1712190242950,741.0619993694127
1712190242990,-5068.540865802206
1712190243030,-7984.873493879335
1712190243071,-8046.6741990651935
1712190243111,-6485.300736575387
1712190243151,-5072.540710452478
1712190243191,-4518.168392179068
1712190243231,-5105.504267049953
1712190243272,-5049.555383740459
1712190243311,-3643.6039228225127
1712190243351,-1532.5915706648957
1712190243391,824.3791159451939
1712190243432,2971.803363947198
1712190243472,4296.972001527902
1712190243512,6124.920923921047
1712190243552,8245.220199081581
1712190243592,7832.559351945529
1712190243632,3024.048893213505
1712190243673,-3156.5065454286523
1712190243712,-6135.70036719786
1712190243752,-6319.626615820918
1712190243793,-5438.0520193986595
1712190243833,-3901.7417501639575
1712190243873,-3633.379335321719
1712190243913,-4140.2601786353625
1712190243953,-3973.894024023786
1712190243993,-2893.327709488338
1712190244033,-1115.0755621502176
1712190244074,1102.0299669560045
1712190244113,2788.2875396092422
1712190244154,4215.912203509826
1712190244194,5528.9279098808765
1712190244234,7337.211546992417
1712190244275,7399.515619262122
1712190244314,2953.9132725382224
1712190244354,-3814.7010588357225
1712190244394,-8088.59132414707
1712190244434,-9528.307160635246
1712190244475,-9519.526247105096
1712190244515,-8059.489378240425
1712190244555,-7475.013930337969
1712190244595,-7859.551927717635
1712190244635,-8238.028582743136
1712190244676,-7360.342685949756
1712190244715,-5623.004568436183
1712190244756,-3283.21128891455
1712190244796,-1108.5548532027751
1712190244836,365.2947823978029
1712190244877,2221.8494216687977
1712190244916,3929.8361579438206
1712190244956,4449.562766210409
1712190244996,661.4660222884268
1712190245036,-6436.848623417318
1712190245077,-11016.40776450513
1712190245117,-12876.45094351517
1712190245157,-12665.027771622874
1712190245197,-11693.48582659522
1712190245237,-11182.341154306661
1712190245278,-11261.541641806718
1712190245315,-11055.699973615818
1712190245356,-9509.304986746283
1712190245396,-7732.891554559348
1712190245436,-5432.988377210684
1712190245477,-3270.4706129278056
1712190245516,-1751.4811710752547
1712190245556,-260.0862764955964
1712190245596,1393.9345177060459
1712190245636,2708.8446906867903
1712190245677,-428.87177159357816
1712190245717,-7124.980616873363
1712190245757,-12605.782471824437
1712190245797,-14497.881045172922
1712190245837,-14296.097012789454
1712190245878,-13055.029192660935
1712190245917,-11862.00235661259
1712190245958,-11426.92754314025
1712190245998,-11624.603340045083
1712190246038,-10656.652908059768
1712190246079,-8764.140439884271
1712190246118,-6472.435005635954
1712190246158,-4280.950039641932
1712190246198,-1990.3390435774345
1712190246239,2096.0908549330197
1712190246279,3909.962317435071
1712190246319,2142.908839454176
1712190246359,-3704.8189019793645
1712190246399,-9094.178297858685
1712190246439,-10856.165064969566
1712190246480,-10166.18652883498
1712190246519,-8449.506903188303
1712190246559,-7052.3955750586465
1712190246599,-6812.462759524118
1712190246639,-7601.980102863628
1712190246680,-6968.297137205489
1712190246719,-5321.487886698917
1712190246759,-3219.1577731361613
1712190246800,-847.0202738116495
1712190246840,1560.413516038563
1712190246880,3321.436620723922
1712190246920,5794.132168207318
1712190246960,7607.797679354204
1712190247000,4306.73325780686
1712190247040,-1933.6377912804019
1712190247081,-6106.653943646001
1712190247120,-6658.568915522192
1712190247161,-5695.134232125245
1712190247200,-4188.239000145113
1712190247241,-3139.3749244017527
1712190247281,-2847.8263590340503
1712190247321,-2417.735122067854
1712190247361,-1079.916231700452
1712190247401,1177.2765384071972
1712190247441,3911.6781618897803
1712190247482,5679.65875148261
1712190247522,7299.669799519004
1712190247561,8455.26261368813
1712190247601,10440.998976973817
1712190247642,11123.42551806965
1712190247682,5936.52938223118
1712190247722,-1373.5578246903606
1712190247762,-5242.519599244464
1712190247802,-5727.883872864069
1712190247842,-5260.472197049996
1712190247883,-4545.163220694754
1712190247922,-4026.7504839277826
1712190247962,-3914.597614149563
1712190248003,-3557.746157742804
1712190248043,-2076.1083819202613
1712190248083,119.49316823948175
1712190248123,2204.2943729218096
1712190248163,4266.965901980177
1712190248203,5931.144604508532
1712190248243,6818.460428104503
1712190248284,9115.476645183284
1712190248323,8622.50268827728
1712190248363,3359.585058931727
1712190248403,-3518.1125585418195
1712190248444,-6914.653529012343
1712190248484,-7505.25720104482
1712190248524,-6859.251799511025
1712190248564,-5605.8211176493205
1712190248604,-5104.755004378501
1712190248644,-5225.030020300299
1712190248685,-4635.439347207081
1712190248724,-3069.042845254997
1712190248764,-776.4164453961421
1712190248805,1940.2077197683975
1712190248845,4311.879994788673
1712190248885,6141.6306185841095
1712190248925,7347.838481418323
1712190248965,9211.398904076545
1712190249005,9993.424382107565
1712190249045,5053.9636415990535
1712190249086,-1682.866010790458
1712190249125,-5756.208530974342
1712190249166,-6117.488132265396
1712190249206,-5550.751175610814
1712190249246,-4322.093771744752
1712190249287,-3416.809466251405
1712190249326,-3208.633474044036
1712190249366,-2847.431464153342
1712190249406,-1326.15306760557
1712190249446,1081.3813284134958
1712190249487,2885.522587422747
1712190249526,5184.545067117317
1712190249567,6666.655956945382
1712190249607,8196.985918376828
1712190249647,10255.738543321844
1712190249688,11319.848684914876
1712190249727,7973.305827388074
1712190249767,2226.2671131209936
1712190249808,-2009.960439962335
1712190249847,-2592.1539555476047
1712190249888,-2080.420617101714
1712190249928,-717.6851768707857
1712190249968,-139.16393796447664
1712190250008,-551.850207362324
1712190250048,-917.79166398081
1712190250089,306.25877230847254
1712190250128,2139.239184957929
1712190250169,3880.031239131
1712190250209,5296.275936803082
1712190250249,6785.696340338094
1712190250290,8229.910294939764
1712190250329,10389.10938951443
1712190250369,11042.873307236936
1712190250409,7038.213582573924
1712190250449,1067.374821430305
1712190250490,-1926.2942103254609
1712190250530,-1840.9303277316503
1712190250570,-925.0291946534999
1712190250610,566.1108274511062
1712190250650,1564.2580601177178
1712190250691,1578.738073849585
1712190250730,1928.6411842335947
1712190250770,3369.7065831332
1712190250810,5239.17552821408
1712190250850,7567.3068936089985
1712190250891,9721.111158859218
1712190250931,10978.674795073224
1712190250971,12447.05642811535
1712190251011,14281.86050498113
1712190251051,13120.201326841256
1712190251092,7538.407224878203
1712190251132,1471.8642049108166
1712190251171,-1261.4948834283277
1712190251212,-2163.357381186448
1712190251252,-1910.0973829878494
1712190251293,-983.1674768393859
1712190251332,-593.7515394331422
1712190251372,-919.4711974153761
1712190251412,-270.87367192143574
1712190251452,552.4342789375223
1712190251493,2415.975498031359
1712190251533,4284.569038373185
1712190251573,6259.885771662928
1712190251613,7440.105512551032
1712190251653,8248.343864275143
1712190251694,9610.829791064607
1712190251733,10411.560467322823
1712190251774,5975.207866143202
1712190251814,-425.9144371908624
1712190251854,-4872.35324523435
1712190251895,-6005.035148466937
1712190251934,-6562.99551447737
1712190251974,-5518.986469668336
1712190252014,-4632.368976655183
1712190252054,-4312.911894425284
1712190252095,-3914.2335517103784
1712190252135,-2717.028561519459
1712190252175,-1023.1931571261957
1712190252215,991.9991496843286
1712190252255,2721.6794852407183
1712190252296,4246.744425137527
1712190252338,6127.697693039663
1712190252375,7634.472654590849
1712190252415,9467.91009232914
1712190252456,9057.705077928724
1712190252496,3760.2346363607794
1712190252536,-2737.8201724682003
1712190252576,-5600.413835105952
1712190252616,-6388.248028561939
1712190252656,-5985.768124779686
1712190252697,-5269.672762695001
1712190252736,-4274.650100057479
1712190252776,-3981.06460624584
1712190252816,-3596.7353471927345
1712190252856,-2235.799537890125
1712190252897,112.82876332197338
1712190252937,2401.5913897815626
1712190252977,4270.139944460243
1712190253017,5362.757906054612
1712190253057,6953.289149487624
1712190253098,8838.828630818054
1712190253137,10408.570576032158
1712190253177,8764.615342903184
1712190253217,3363.161541551817
1712190253257,-2203.0100379781798
1712190253298,-4443.504213213455
1712190253337,-3662.946229734458
1712190253378,-2773.5245621316135
1712190253418,-1915.031001062598
1712190253458,-1654.361658128444
1712190253499,-1196.1463625759352
1712190253538,-204.77410594793037
1712190253578,1430.1179204448126
1712190253618,3391.6313686089125
1712190253658,5275.407590341289
1712190253699,6494.711436496116
1712190253739,7596.315134009346
1712190253779,9743.302234010771
1712190253819,11767.211828094674
1712190253859,11982.211773764808
1712190253900,7861.433260718128
1712190253939,2309.4927551914006
1712190253979,-1104.603178853169
1712190254019,-1802.9885117583908
1712190254059,-812.8626465541311
1712190254100,531.7251760060899
1712190254140,582.9181022760458
1712190254180,-3.4637895135674626
1712190254220,239.69469917425886
1712190254260,1414.201399317477
1712190254301,3445.854356409982
1712190254340,5298.425850294996
1712190254380,6883.972321482375
1712190254420,8346.125437056413
1712190254460,9345.598109518876
1712190254501,10963.25279274513
1712190254543,11405.625650741393
1712190254581,7343.914943355136
1712190254621,560.7921113541815
1712190254661,-3073.9001718692016
1712190254702,-3611.898870086763
1712190254741,-2852.4713382129557
1712190254781,-1593.298293535132
1712190254821,-1122.2500112438574
1712190254862,-1678.9141937650274
1712190254902,-1317.0427664136514
1712190254941,-62.787821451667696
1712190254982,1952.8388030878268
1712190255022,4578.835285671055
1712190255062,5922.698866003659
1712190255103,6972.598370513413
1712190255142,8154.073177415179
1712190255182,9911.426318627317
1712190255222,10154.05965496716
1712190255262,5874.724490645342
1712190255303,-1232.1590745891444
1712190255343,-5761.643912596861
1712190255383,-7203.12659557024
1712190255423,-7142.390736490488
1712190255463,-6632.754694615956
1712190255504,-6386.166136792395
1712190255543,-6549.770283675054
1712190255583,-6674.5309711918235
1712190255623,-6098.861804811982
1712190255663,-4181.247698505409
1712190255704,-2274.3982151770033
1712190255744,-224.59773284802213
1712190255784,1643.4743958460167
1712190255824,3067.1181273176335
1712190255864,4535.5210260031745
1712190255905,5886.435737126507
1712190255944,2166.1658954943996
1712190255984,-5052.761017303215
1712190256024,-10113.126197679667
1712190256065,-11834.33618688793
1712190256105,-11944.838987021707
1712190256145,-10885.43796495255
1712190256185,-10063.732122638961
1712190256225,-9779.24190636701
1712190256265,-9775.77629419975
1712190256306,-8411.474096108694
1712190256345,-5983.57559820707
1712190256385,-3694.1287667043507
1712190256426,-1422.7557310881093
1712190256466,481.2196695380844
1712190256506,2227.7640994470567
1712190256546,4035.667489411775
1712190256586,5852.837714561261
1712190256626,3722.8270790532697
1712190256666,-2521.5739707923494
1712190256707,-8361.906372654485
1712190256749,-10695.886929946719
1712190256787,-11124.995103442576
1712190256827,-9965.156716205878
1712190256867,-8722.153353813337
1712190256908,-8124.274950209074
1712190256947,-8452.63358010212
1712190256987,-7352.97332704952
1712190257027,-5636.02678987314
1712190257067,-3331.8896089445334
1712190257108,-1175.9624110800214
1712190257148,1159.6966939368285
1712190257188,2999.916998086963
1712190257228,5345.353685715934
1712190257268,7470.036471213913
1712190257309,6812.828361289576
1712190257351,1310.0314022854436
1712190257391,-4169.800766175147
1712190257431,-6465.222924017115
1712190257472,-6234.565614222316
1712190257513,-4748.027433833573
1712190257552,-3222.267773171421
1712190257592,-3629.701243265765
1712190257632,-3928.7144880918786
1712190257672,-3113.5919019393623
1712190257713,-1773.8504639756866
1712190257753,535.2252549035475
1712190257793,2683.3921843054704
1712190257833,4296.210827214643
1712190257873,5912.513924614526
1712190257914,8156.830569673562
1712190257953,9542.828582618851
1712190257994,7449.194131386001
1712190258034,1972.2545621199533
1712190258074,-2294.4986704413313
1712190258115,-3524.394455332309
1712190258154,-2937.969699342968
1712190258194,-1147.0565105492715
1712190258235,530.2298619016074
1712190258275,1137.40727169998
1712190258315,1432.2555429949425
1712190258355,1885.18955704174
1712190258395,4147.746912514791
1712190258435,6061.177749616327
1712190258475,8066.2623530821875
1712190258516,9286.744552546646
1712190258556,13027.194170962088
1712190258596,13773.219400662463
1712190258636,9901.713962535141
1712190258676,3191.00195342442
1712190258717,-1691.2162141487934
1712190258756,-3156.083510904573
1712190258796,-3521.582469080342
1712190258836,-3055.7642975882627
1712190258876,-2077.936080676038
1712190258917,-2359.8466101358645
1712190258957,-2435.1708000106737
1712190258996,-1517.481832719408
1712190259037,-271.6754008359276
1712190259077,1617.0938575570472
1712190259117,3751.8757120962255
1712190259157,4885.288745663594
1712190259197,6581.817310128827
1712190259237,8218.017847010167
1712190259277,9598.15908264881
1712190259318,6728.061773078283
1712190259357,666.6747171701863
1712190259398,-4176.5925764902495
1712190259438,-6144.925205235835
1712190259478,-6468.345744067337
1712190259518,-6072.438232248649
1712190259558,-5708.793699577218
1712190259598,-5049.484755998477
1712190259638,-4316.935195230413
1712190259678,-3331.4717739294283
1712190259719,-1297.9489359243307
1712190259758,260.86679419502616
1712190259799,2321.5179762917105
1712190259838,3575.840581791941
1712190259879,5554.38926712377
1712190259920,7414.497890408849
1712190259959,9140.517501395196
1712190259999,7721.3801498042885
1712190260039,1845.6525957803242
1712190260079,-3956.4142695532646
1712190260120,-6164.729774914682
1712190260160,-6811.764609593898
1712190260199,-6185.357254893053
1712190260240,-4981.512777407188
1712190260280,-4697.891318893526
1712190260321,-4444.183326627128
1712190260360,-3753.517092709895
1712190260400,-1846.5317868469283
1712190260440,48.14690467948094
1712190260480,1953.536067126086
1712190260521,4040.279217366362
1712190260561,5555.883434142452
1712190260601,7030.590121549321
1712190260641,8431.084046415286
1712190260681,9230.74211027869
1712190260722,5271.836796663469
1712190260761,-48.51573167438619
1712190260801,-3351.611084511038
1712190260841,-3765.039848708315
1712190260882,-3571.3595591825433
1712190260922,-2567.63409812958
1712190260962,-1961.2115845780354
1712190261002,-2140.633866995573
1712190261042,-1653.178998474963
1712190261082,-109.51410018885508
1712190261123,1956.3054052104708
1712190261162,3856.599777248921
1712190261202,5166.351617169566
1712190261243,6133.246274280129
1712190261283,7470.62258519372
1712190261323,9362.43978536618
1712190261363,10343.66844676109
1712190261403,6932.25843156199
1712190261443,1370.8780449205078
1712190261483,-887.3426449096296
1712190261524,-1491.4148775336798
1712190261563,-335.6303326669149
1712190261603,1092.5598223737907
1712190261643,2053.657193303574
1712190261684,1851.2604165219236
1712190261724,2360.9477651626803
1712190261764,4228.821269103093
1712190261804,6438.490655877395
1712190261844,8687.459669909906
1712190261884,11082.594692162238
1712190261925,12539.693435916211
1712190261964,13647.04705490591
1712190262004,15469.300186206587
1712190262044,14596.775060269982
1712190262085,9568.0390233933
1712190262125,3588.5839225677773
1712190262165,837.8479403061792
1712190262205,381.4374603589531
1712190262245,413.1012765527703
1712190262285,295.21959304390475
1712190262326,695.191702037584
1712190262365,-392.87397140963003
1712190262406,192.11856333678588
1712190262446,842.2023159130476
1712190262486,3092.340546258725
1712190262527,4768.123204550706
1712190262566,6393.198357499205
1712190262606,7622.805839567445
1712190262646,8444.4677453232
1712190262687,9720.246309152571
1712190262727,8593.157165632583
1712190262767,2787.2402933342382
1712190262807,-2611.5504879129585
1712190262847,-4954.735634689219
1712190262887,-5760.497936237836
1712190262928,-5563.92213040404
1712190262967,-4672.239527587779
1712190263007,-3448.0172186959535
1712190263048,-3637.497148964554
1712190263088,-2836.818359270226
1712190263129,-1748.460805223789
1712190263168,-166.88457188941538
1712190263208,1756.75286061503
1712190263248,3604.8282819986343
1712190263289,4800.324017948704
1712190263329,5767.288233927917
1712190263369,7482.245709129609
1712190263409,6033.790731116664
1712190263449,122.6920820446685
1712190263489,-5673.754966821987
1712190263530,-8069.762627231423
1712190263569,-8304.125651696697
1712190263609,-7924.647503771586
1712190263650,-6507.520565590821
1712190263690,-6168.074062007014
1712190263730,-6088.954984140117
1712190263770,-5502.716215990949
1712190263810,-4239.25096019404
1712190263850,-2509.9344970472157
1712190263891,-1115.437950034393
1712190263931,470.54711804003455
1712190263971,1565.797080032993
1712190264011,3594.854192037601
1712190264051,5580.352948333602
1712190264091,3708.478455480654
1712190264132,-2020.159921306651
1712190264171,-7328.399627186358
1712190264212,-8942.013445375254
1712190264252,-8805.596913916757
1712190264292,-8068.74915874307
1712190264333,-6928.891380071174
1712190264372,-6893.384624407627
1712190264412,-7286.337402853649
1712190264452,-6384.504236311885
1712190264473,-5058.87921815156
1712190264514,-2791.1603922676295
1712190264553,-860.455926084891
1712190264593,1135.884920147946
1712190264633,2861.8822064611595
1712190264673,4744.326946181478
1712190264714,6566.155324805994
1712190264754,4610.125683280639
1712190264794,-1069.1798918824643
1712190264834,-5234.33536113007
1712190264874,-6190.693301602732
1712190264915,-6123.378610346466
1712190264954,-4881.602178319357
1712190264994,-3747.2204795945436
1712190265034,-4286.122016868554
1712190265074,-4496.515959125478
1712190265115,-3230.5798770368565
1712190265154,-1132.2046025539748
1712190265195,894.1611061368603
1712190265235,2873.4148813053034
1712190265275,4503.121924794279
1712190265316,5867.455311872531
1712190265355,8052.211536082439
1712190265395,8183.296784347622
1712190265435,3827.6562123764306
1712190265475,-2143.318748524878
1712190265516,-5088.979218194727
1712190265555,-5055.512251331238
1712190265595,-4101.34280086169
1712190265635,-3081.473676125519
1712190265676,-1725.6904204408638
1712190265716,-1777.416308438871
1712190265756,-905.8940900736488
1712190265796,-69.9204969231505
1712190265836,2400.6897409034427
1712190265876,4525.009070896544
1712190265917,6044.586155821569
1712190265956,7512.146627480164
1712190265996,8555.85238790745
1712190266036,10206.930690901121
1712190266076,7244.284874602221
1712190266117,622.3812332763337
1712190266157,-4515.707649032818
1712190266197,-5766.912372159306
1712190266237,-6319.673761768732
1712190266277,-5423.831673886627
1712190266318,-4738.639666659525
1712190266357,-4470.15503148688
1712190266397,-4623.150913346792
1712190266437,-3821.6661203207914
1712190266477,-2215.7918951562606
1712190266518,-92.78784918459132
1712190266557,1816.7389610311948
1712190266597,3430.2897418625653
1712190266638,4794.052354370011
1712190266678,6969.89519185992
1712190266719,7016.169260661816
1712190266758,2357.429247643333
1712190266798,-3715.702708807541
1712190266838,-7282.255699893925
1712190266878,-7749.668214319972
1712190266919,-7155.18082814198
1712190266958,-6814.171175491298
1712190266999,-5868.956211416284
1712190267039,-5721.805354367476
1712190267079,-4884.523972315481
1712190267120,-3855.953900663182
1712190267159,-1997.192120916443
1712190267199,-59.60374204767868
1712190267239,1864.7203264536802
1712190267279,3536.663263026625
1712190267320,4697.664565466577
1712190267360,6987.1621356150135
1712190267400,5831.885630173376
1712190267440,905.4251432281453
1712190267480,-4394.80180960102
1712190267521,-6075.672343253624
1712190267560,-6535.577135831118
1712190267600,-5618.341357940342
1712190267640,-4471.097638567677
1712190267680,-3988.4859453407116
1712190267721,-4089.339649989968
1712190267761,-3189.6842635988723
1712190267801,-1734.1782058165409
1712190267841,157.01186849642545
1712190267881,1750.205232160166
1712190267922,3584.82394522056
1712190267961,4669.639818904456
1712190268001,6039.526705822442
1712190268041,7746.286764964461
1712190268082,5966.828630557517
1712190268122,939.6118575760629
1712190268162,-3581.5329121884424
1712190268202,-4913.169948695926
1712190268242,-4786.075899330899
1712190268282,-4073.807945112698
1712190268323,-2924.7634616235737
1712190268362,-2318.7389049369376
1712190268402,-2250.2808416131884
1712190268443,-1633.3579508005641
1712190268483,36.57099972292781
1712190268523,2394.536448830506
1712190268563,3909.099566377001
1712190268603,5875.8945780377835
1712190268643,6756.298399646068
1712190268684,8611.256037505344
1712190268724,9669.88653088524
1712190268764,7500.666855495656
1712190268804,2045.2785195887554
1712190268844,-1737.036197352223
1712190268884,-2561.706578166457
1712190268925,-1530.8491129674949
1712190268964,-345.1561079919338
1712190269004,932.6920763019007
1712190269045,1007.9197656600736
1712190269085,1231.0717865391634
1712190269126,2172.446271624882
1712190269165,4020.938910919009
1712190269205,6168.245768234134
1712190269245,8056.171784678008
1712190269286,9976.46849814104
1712190269326,11405.386818340747
1712190269365,13427.341283839662
1712190269405,13685.581276239827
1712190269445,10160.64471576293
1712190269485,3998.9055718465243
1712190269526,915.4531343381386
1712190269565,409.26994479773566
1712190269606,924.3426503001247
1712190269646,1699.4731902270578
1712190269686,2279.4588330960833
1712190269727,2509.7111776047386
1712190269766,2737.5617166245356
1712190269806,3384.626209757058
1712190269847,5237.829669764033
1712190269887,6494.411562552676
1712190269927,8059.714000432054
1712190269967,9110.888780581765
1712190270007,10436.950825902168
1712190270047,11867.868104767753
1712190270087,11205.340555350762
1712190270128,6562.689912531991
1712190270168,625.478345409967
1712190270208,-2053.855047338642
1712190270248,-2342.3530393436085
1712190270288,-1700.961990314303
1712190270329,-870.0544344554655
1712190270369,-466.01895259926096
1712190270409,-612.2866418950725
1712190270449,-455.66279122652486
1712190270489,785.061571584316
1712190270530,2788.601219729986
1712190270569,4269.483534833416
1712190270609,5852.28140410292
1712190270649,6735.948160281405
1712190270689,8500.947016798891
1712190270730,9636.01129487413
1712190270769,8137.22250191425
1712190270810,2561.536459266674
1712190270850,-2698.018339512637
1712190270890,-4511.433060328942
1712190270931,-5015.680661577033
1712190270970,-4796.848342866637
1712190271010,-4035.690552849788
1712190271050,-3988.3079267102294
1712190271090,-4416.352361822268
1712190271131,-3689.150290927384
1712190271171,-2159.9773045238107
1712190271211,-206.20763969351538
1712190271251,1684.8427686954383
1712190271291,3532.0106491474435
1712190271332,4924.047078721225
1712190271371,6678.829005017644
1712190271411,7825.208975199377
1712190271451,4504.12603363744
1712190271491,-2140.579134090338
1712190271532,-7264.28941224399
1712190271572,-9240.760894698557
1712190271612,-9532.142171369167
1712190271652,-8579.56100300746
1712190271692,-7717.634696390247
1712190271733,-8161.11352069024
1712190271772,-8462.83832342294
1712190271812,-7915.711247266736
1712190271852,-6220.143667632481
1712190271892,-4387.591708670836
1712190271933,-2623.6459432016127
1712190271973,-965.550820044009
1712190272013,462.91903589013964
1712190272053,2803.487823061645
1712190272093,3052.6715018656105
1712190272134,-1551.210545989452
1712190272173,-8409.503124431241
1712190272213,-12466.740580983693
1712190272253,-12960.0278451778
1712190272294,-12260.18685867195
1712190272334,-11061.406852217158
1712190272374,-10427.149777289713
1712190272414,-11184.638880658895
1712190272454,-11180.400593379512
1712190272494,-10447.348217464052
1712190272535,-8414.198484988883
1712190272574,-6941.410840892931
1712190272614,-5622.0753034010995
1712190272655,-4250.686261826893
1712190272695,-2273.7997004319914
1712190272735,-760.7681523130741
1712190272775,-3873.0118599878624
1712190272815,-11237.70812687953
1712190272855,-15748.769907054026
1712190272895,-16457.130540688988
1712190272936,-15496.197633304866
1712190272975,-13312.48097041808
1712190273016,-11908.457655965816
1712190273056,-11741.554048263235
1712190273096,-11756.43664900167
1712190273137,-10447.89270893531
1712190273176,-7918.574115630239
1712190273216,-5612.752175935078
1712190273256,-3538.4717690146063
1712190273296,-1592.298802177189
1712190273337,-76.08252178365365
1712190273377,1281.7020287844352
1712190273417,-2000.23304782575
1712190273457,-9929.022290165769
1712190273497,-16229.448563315673
1712190273538,-17754.421889620135
1712190273577,-17765.521527736913
1712190273617,-16891.661746196216
1712190273657,-15877.133353376994
1712190273697,-15844.791043438017
1712190273738,-15396.254572577775
1712190273778,-13576.911393926945
1712190273818,-11525.58282231167
1712190273858,-8814.202095318586
1712190273898,-6410.8283482897095
1712190273939,-4359.496248150943
1712190273979,-2366.298275052104
1712190274018,-153.30046297656372
1712190274059,-1465.9530929715838
1712190274099,-8033.430035456549
1712190274140,-15592.8857779135
1712190274179,-18144.651911291992
1712190274219,-17882.830008273246
1712190274259,-16722.40104593686
1712190274299,-15371.87666428904
1712190274340,-14508.842941946117
1712190274380,-14208.717871238943
1712190274420,-12446.101176286815
1712190274460,-10990.604940787889
1712190274500,-8103.874248036649
1712190274541,-5555.377078274265
1712190274580,-3200.6574296334293
1712190274620,-1321.2851573247463
1712190274660,1240.978332009865
1712190274701,2031.9860178485978
1712190274741,-3551.1408872408792
1712190274781,-10975.753471964737
1712190274821,-14540.347821333678
1712190274861,-14345.461733035743
1712190274901,-12650.801041141385
1712190274942,-10890.462162023643
1712190274982,-9478.636699908413
1712190275022,-9129.564120264957
1712190275062,-8549.42725823354
1712190275102,-6306.494079272728
1712190275143,-3837.162752754055
1712190275182,-1178.8042303174734
1712190275223,1207.7171831727028
1712190275263,2600.496369047556
1712190275303,4857.980381711852
1712190275344,7291.503639024682
1712190275383,5502.924501820933
1712190275423,-318.34195630904287
1712190275463,-5799.044171882328
1712190275503,-7071.341370493639
1712190275544,-6112.693760929396
1712190275584,-4365.073337188456
1712190275624,-3022.7331472502556
1712190275664,-2608.7956998585723
1712190275704,-2942.976487559732
1712190275745,-1361.311941210879
1712190275785,1160.0404175692238
1712190275824,3465.5066538173705
1712190275865,5967.982422078261
1712190275905,7826.583514889702
1712190275946,10453.882907288847
1712190275985,12454.006132930983
1712190276025,12313.425828733249
1712190276065,6536.4221850614995
1712190276106,1356.5230621614028
1712190276147,-117.59342350694351
1712190276186,549.1066328957677
1712190276226,4564.357690829784
1712190276266,5035.722716167569
1712190276306,5234.203354375437
1712190276347,6373.913165215403
1712190276386,8364.836650922894
1712190276426,10792.397105004173
1712190276466,13163.567332023522
1712190276507,15330.42608857248
1712190276547,17221.044150621165
1712190276587,18716.245382041903
1712190276627,18038.626629611943
1712190276667,12534.143420916982
1712190276707,6121.066743086092
1712190276748,3194.175151440548
1712190276787,2976.4623397625983
1712190276827,3738.7736095688306
1712190276867,5034.089137933683
1712190276907,5843.237673817668
1712190276948,5920.480724773835
1712190276988,6717.785335151479
1712190277028,8351.038721067831
1712190277068,9996.778451943537
1712190277108,12497.80373239913
1712190277149,13831.421582996845
1712190277188,15469.366803577868
1712190277228,16709.255403840914
1712190277268,18068.130378497764
1712190277308,14816.033490869217
1712190277349,8869.624623097014
1712190277388,4101.942694377154
1712190277429,2960.1332583334297
1712190277469,2970.3454149775207
1712190277509,3903.6374830338173
1712190277550,4739.643414631253
1712190277589,5162.160101002082
1712190277629,5514.8794635550585
1712190277669,6505.341455386486
1712190277709,7988.112838840578
1712190277750,10062.421613020357
1712190277790,11291.548505144194
1712190277830,13203.41671475675
1712190277870,14504.215441381093
1712190277910,15945.589370076777
1712190277951,16796.37063457654
1712190277990,13073.542654376943
1712190278030,7278.257001030259
1712190278070,3620.805315187201
1712190278110,3003.36763349222
1712190278151,3781.6580842947587
1712190278191,4861.088118372485
1712190278231,6059.312742159935
1712190278271,6375.053329765331
1712190278311,6777.077706131153
1712190278352,8427.88049828494
1712190278391,9794.472821486881
1712190278431,11786.100923322141
1712190278471,13056.113785347436
1712190278512,14557.683011631249
1712190278552,15491.168123178417
1712190278592,17027.865495770704
1712190278632,17228.11627743859
1712190278672,13644.519156634808
1712190278712,8775.67957007233
1712190278753,6104.820022405591
1712190278792,5869.7451106098015
1712190278832,6720.792860267218
1712190278873,7618.126126872841
1712190278913,8440.315210947534
1712190278954,7792.556159866974
1712190278993,8185.64713878138
1712190279033,9054.29217060376
1712190279073,10944.11786711379
1712190279113,12617.869924433762
1712190279154,14352.37310954975
1712190279193,15918.9541076764
1712190279234,17649.14625571668
1712190279274,19232.397362606134
1712190279314,17129.466172142187
1712190279354,12542.42736593727
1712190279394,8396.539981467882
1712190279434,7181.976860764902
1712190279474,7250.860684892163
1712190279514,7691.743079150561
1712190279555,8222.580709462985
1712190279595,7892.505263322033
1712190279635,7134.242577000987
1712190279675,7163.762684162939
1712190279715,8168.852456443477
1712190279756,9841.310644048965
1712190279795,10637.934920797125
1712190279835,12187.186456239317
1712190279876,13170.714883342851
1712190279916,14564.679565327708
1712190279956,13924.371760888025
1712190279996,8924.743517598603
1712190280036,2720.5355597203597
1712190280076,-880.7911128138658
1712190280116,-1656.4166456828825
1712190280157,-1852.7186070349999
1712190280196,-1453.932933301665
1712190280237,-1004.3127814270556
1712190280277,-1995.9947266706731
1712190280317,-2217.545808713883
1712190280358,-1790.2952423538081
1712190280397,-525.1199677777477
1712190280437,705.1833590015303
1712190280477,2004.7805156689137
1712190280517,3013.959895930253
1712190280558,3756.7780244771857
1712190280598,5374.183878795244
1712190280638,4104.993770034984
1712190280678,-1455.5051549775526
1712190280718,-7760.5183466607705
1712190280759,-10816.769341098145
1712190280798,-11291.958722764626
1712190280838,-11565.79592925543
1712190280878,-10943.048234690214
1712190280918,-10640.118232611101
1712190280959,-10970.952540344791
1712190280999,-10817.214656911092
1712190281039,-9382.173189916182
1712190281079,-7742.579837497324
1712190281119,-6497.091606757371
1712190281160,-4724.607978836168
1712190281200,-3290.5283968688454
1712190281240,-1706.7880681522656
1712190281280,-37.7747607389465
1712190281320,-585.7653167843819
1712190281361,-6056.300632962491
1712190281400,-12746.00585584715
1712190281440,-15317.09933694359
1712190281480,-15608.419276876608
1712190281520,-14913.007674883585
1712190281561,-13520.78976741992
1712190281601,-12798.327275839867
1712190281641,-12917.789327619597
1712190281681,-12360.957189712673
1712190281721,-10832.287539299577
1712190281762,-8622.956524912734
1712190281801,-6618.5711082126945
1712190281841,-4201.049664327409
1712190281882,-2559.481873028679
1712190281922,-592.4727142185438
1712190281963,1733.896511576837
1712190282002,1750.072840607725
1712190282042,-3038.1660561165772
1712190282082,-9473.103849143721
1712190282122,-12105.612771932501
1712190282163,-12268.92328820657
1712190282203,-11312.832564018667
1712190282243,-9448.835869923932
1712190282283,-8680.81163817225
1712190282323,-9367.85715634725
1712190282364,-8795.714923896128
1712190282403,-6688.840442828136
1712190282443,-4751.999675179133
1712190282483,-2918.2812045319006
1712190282524,-762.2558191563003
1712190282564,899.895992931677
1712190282604,3475.2134058885276
1712190282644,5774.8811350390315
1712190282684,3996.839498416055
1712190282724,-2040.19291880331
1712190282765,-7407.122133655939
1712190282804,-8914.916331353365
1712190282844,-7811.433596375398
1712190282884,-6087.269588512834
1712190282924,-4832.033026772318
1712190282965,-4087.84485058859
1712190283005,-4104.1539303464815
1712190283045,-2985.662199358456
1712190283085,-1277.7809297654312
1712190283125,897.756362446351
1712190283166,2758.4775515324436
1712190283205,4582.258826880017
1712190283246,5493.435900120996
1712190283285,7406.533946537878
1712190283326,8449.747116267681
1712190283366,4189.8926453313325
1712190283406,-3479.14216514444
1712190283446,-8609.252713945694
1712190283486,-9491.651438979898
1712190283526,-9299.189232705161
1712190283567,-8191.805978188291
1712190283606,-7305.881766567472
1712190283646,-7652.990809950512
1712190283686,-7656.080711641815
1712190283727,-6395.757389375474
1712190283767,-4409.317048184574
1712190283807,-2108.854596051853
1712190283847,161.33739651413634
1712190283887,1411.5832075076178
1712190283927,2323.2365053978283
1712190283968,4285.028186289594
1712190284007,5069.524076035246
1712190284047,816.2695163122844
