Timestamp,Cleaned_PPG
1711417122748,0.0
1711417122787,0.0
1711417122827,0.0
1711417122867,0.0
1711417122908,0.0
1711417122949,0.0
1711417122988,0.0
1711417123028,0.0
1711417123068,0.0
1711417123108,0.0
1711417123149,0.0
1711417123188,0.0
1711417123228,0.0
1711417123268,0.0
1711417123308,0.0
1711417123349,0.0
1711417123389,0.0
1711417123429,0.0
1711417123469,0.0
1711417123509,0.0
1711417123550,0.0
1711417123589,0.0
1711417123629,0.0
1711417123669,0.0
1711417123709,0.0
1711417123750,0.0
1711417123789,0.0
1711417123829,0.0
1711417123870,0.0
1711417123910,0.0
1711417123953,0.0
1711417123990,0.0
1711417124030,2067931.0
1711417124070,1941106.2303223275
1711417124110,1822243.9378219768
1711417124151,1710875.6169020697
1711417124191,1606660.9532449257
1711417124231,1508745.5150453504
1711417124271,1415947.727456048
1711417124311,1326608.9248299638
1711417124352,1242682.9971520503
1711417124391,1164185.3319708533
1711417124431,1091087.5312269046
1711417124471,1022720.4617097182
1711417124511,959366.4387299104
1711417124552,899614.9186012929
1711417124592,843497.078174761
1711417124632,790989.1660334712
1711417124672,741250.6398198078
1711417124712,692311.0883364277
1711417124753,646706.1795915123
1711417124792,603294.2002837281
1711417124832,563973.2066788406
1711417124872,527616.1215479658
1711417124912,495163.7175353309
1711417124954,466320.2722368152
1711417124992,439534.06434816075
1711417125033,412098.620362957
1711417125073,384754.0809433316
1711417125113,361368.94429378095
1711417125154,340476.1797193666
1711417125193,321496.95578414365
1711417125233,305902.175919357
1711417125273,295825.93190567754
1711417125314,286925.4325472838
1711417125354,255435.8016079706
1711417125394,246402.9296754694
1711417125434,236558.45796609158
1711417125474,226453.55831091898
1711417125514,217313.40026829462
1711417125555,209233.97323004855
1711417125594,200865.0045615479
1711417125634,191671.73708771332
1711417125675,183829.12216994236
1711417125714,175660.1087009248
1711417125756,168542.93101014337
1711417125795,161233.5252780039
1711417125835,153916.01605467312
1711417125875,147689.72348710545
1711417125915,140247.15239346074
1711417125956,132856.74651663005
1711417125995,127240.6643499597
1711417126035,118865.70337550761
1711417126075,112930.99545895914
1711417126115,105172.121629406
1711417126159,98304.8677597437
1711417126196,92268.42611962231
1711417126236,85634.91119528282
1711417126276,79884.7518770583
1711417126316,79292.88170914864
1711417126357,79871.10272805672
1711417126397,77086.31128520682
1711417126436,73409.42913489277
1711417126476,70461.22350460268
1711417126517,67005.41526892525
1711417126558,59352.75373108033
1711417126597,53693.947590689175
1711417126637,76144.59551958577
1711417126677,72404.72632708028
1711417126717,68323.43548415974
1711417126758,63606.57003509253
1711417126797,60216.18491119053
1711417126837,56165.981255404186
1711417126878,53277.77047698479
1711417126918,51409.09119305527
1711417126959,50103.76677904837
1711417126998,49396.91842526104
1711417127038,47056.21597985225
1711417127078,45897.63631032873
1711417127118,44493.39176594466
1711417127159,44628.08822752396
1711417127198,44108.07730916608
1711417127239,43340.67160683032
1711417127279,42028.44767075777
1711417127319,41585.52391515393
1711417127360,40795.60027422663
1711417127399,39949.46506213024
1711417127439,37966.61272012256
1711417127479,32489.367266273126
1711417127519,27406.837863128632
1711417127560,23606.413664504886
1711417127600,20682.698819879442
1711417127640,18614.183019499294
1711417127680,16231.436126001645
1711417127720,14358.017181087751
1711417127761,13239.721259785816
1711417127800,12012.826432234142
1711417127840,10953.389581706375
1711417127880,10511.187129408121
1711417127920,11011.607027556747
1711417127961,11129.232662494294
1711417128000,11473.872641107999
1711417128041,11638.608421364333
1711417128081,11396.066461575218
1711417128121,10822.930335399695
1711417128162,9710.584946047515
1711417128201,4619.5342577793635
1711417128241,-43.50676339864731
1711417128281,-2327.8099330794066
1711417128321,-219.69200813397765
1711417128362,1470.9896552301943
1711417128401,4269.641565808095
1711417128441,3401.6120424843393
1711417128481,1405.81551022036
1711417128521,136.93320155283436
1711417128563,60.59587053768337
1711417128602,62.73153824917972
1711417128642,232.7286511482671
1711417128682,932.5338756847195
1711417128722,1819.2052805176936
1711417128763,2852.6520268032327
1711417128802,3354.8275221353397
1711417128842,3709.9437404903583
1711417128882,4210.6977396337315
1711417128922,2201.4205395737663
1711417128963,-1989.1340178381652
1711417129002,-5970.924467992969
1711417129043,-9091.066914960276
1711417129083,-11840.261793225072
1711417129123,-12826.667972350493
1711417129164,-13472.980335126165
1711417129203,-14567.266015830915
1711417129243,-15290.43392441608
1711417129283,-15821.861209448427
1711417129323,-15068.573575760238
1711417129364,-14684.05903056264
1711417129403,-14325.734054648783
1711417129443,-13629.791553683579
1711417129483,-11618.776849443093
1711417129524,-9772.453590433113
1711417129565,-7441.25875311438
1711417129604,-5885.017534356564
1711417129644,-4353.816906266846
1711417129684,-6541.370590628125
1711417129724,-11302.349050293677
1711417129765,-15427.957067383919
1711417129804,-18570.661413021386
1711417129844,-20757.76181115862
1711417129884,-21678.428787409328
1711417129924,-21652.17388959974
1711417129965,-22044.80750157684
1711417130005,-22814.143432372715
1711417130045,-23096.45469807647
1711417130085,-22155.000117812306
1711417130125,-20805.1946349754
1711417130166,-19248.218211632688
1711417130205,-17727.709711614065
1711417130245,-15756.125366467051
1711417130285,-14236.44061563816
1711417130325,-12264.141956977546
1711417130366,-9785.132522540167
1711417130405,-7969.241290991195
1711417130446,-6389.510328334756
1711417130486,-8708.451833948027
1711417130526,-12827.815616946202
1711417130567,-16073.951119062956
1711417130606,-17640.649260706734
1711417130646,-18666.60506836744
1711417130686,-18285.829577617813
1711417130726,-17737.430479411967
1711417130767,-17242.28916070005
1711417130806,-16906.569889877457
1711417130846,-16542.912693659775
1711417130886,-14950.828533367254
1711417130927,-13091.932167856023
1711417130968,-11360.589124453254
1711417131007,-9749.992324111518
1711417131047,-8338.35988062201
1711417131087,-6178.081274541095
1711417131127,-4403.672311903909
1711417131168,-2680.679577928968
1711417131207,-1854.4569732742384
1711417131247,-3935.3851764095016
1711417131288,-7586.651534546632
1711417131328,-9475.427076959517
1711417131369,-10135.937752250582
1711417131408,-9626.354482273106
1711417131448,-8891.564194420818
1711417131488,-7684.776394638233
1711417131528,-7486.1092739324085
1711417131569,-6403.056866565254
1711417131608,-5586.065045812633
1711417131648,-4439.3385641817
1711417131689,-2801.915945187211
1711417131729,-935.9203889621422
1711417131770,834.5796022247523
1711417131809,2491.6905778031796
1711417131849,4600.881608778611
1711417131889,6421.696377580985
1711417131929,5896.8738046749495
1711417131970,2884.3848805325106
1711417132009,-656.4502837480977
1711417132050,-2958.4276155750267
1711417132090,-3383.4221109640785
1711417132130,-3179.2584158414975
1711417132171,-3329.8814628357068
1711417132210,-2769.1347604910843
1711417132250,-2504.5326492842287
1711417132290,-2140.32409276627
1711417132330,-1230.1753032091074
1711417132371,-340.5006902231835
1711417132410,1062.184710497968
1711417132450,2828.7792076678015
1711417132491,5189.2798081696965
1711417132531,6344.353758648969
1711417132572,8259.166791211348
1711417132611,9514.099273633212
1711417132651,7480.605677342974
1711417132691,3873.8248816584237
1711417132731,625.5589209469035
1711417132772,-1712.9892397178337
1711417132811,-3080.943594022654
1711417132852,-3294.4169810758904
1711417132892,-3637.810778913088
1711417132932,-3424.8675886942074
1711417132973,-2994.4547448884696
1711417133012,-1970.1731310896575
1711417133052,-648.8821422662586
1711417133092,1190.935256806668
1711417133132,3295.641125101596
1711417133173,5022.566750444472
1711417133213,7129.933144911192
1711417133253,8852.70287164161
1711417133293,11078.277731719427
1711417133333,12544.337648046203
1711417133374,14974.516402780078
1711417133413,9265.362954419106
1711417133453,6943.530500530265
1711417133493,5054.706741465256
1711417133533,3871.510788749438
1711417133574,3275.8242581291124
1711417133614,3126.1048086392693
1711417133654,4237.106513426639
1711417133694,4336.551789530553
1711417133734,4730.070235999301
1711417133775,5009.185828370508
1711417133814,5717.363395178691
1711417133854,6565.272677135654
1711417133894,8075.661392089911
1711417133934,9192.597666182555
1711417133976,10401.055278605781
1711417134015,12136.869628665969
1711417134055,12499.24219318293
1711417134095,14129.651265168563
1711417134135,12841.75604094658
1711417134176,9454.434776173905
1711417134215,5840.966627311893
1711417134255,4023.538244799711
1711417134295,2504.6656137960963
1711417134336,2417.7473570108414
1711417134377,2936.850224925205
1711417134416,2472.1339190285653
1711417134456,2362.0557944788598
1711417134496,2074.082989010494
1711417134536,1641.9695450249128
1711417134577,960.5393705968745
1711417134616,-236.35152865573764
1711417134656,-8474.024459189735
1711417134697,-11824.370186022483
1711417134737,-16583.924048607238
1711417134775,-20591.486907105893
1711417134814,-22714.74153375579
1711417134854,-22205.866975629702
1711417134894,-21910.225363409612
1711417134934,-19768.32392713381
1711417134975,-17144.397106776014
1711417135015,-14619.76620536996
1711417135055,-12606.316766255535
1711417135095,-10213.468406298198
1711417135135,-8224.528333758935
1711417135176,-6505.645101038739
1711417135215,-4462.232381400652
1711417135255,-2233.8454816667363
1711417135296,-540.9560700571164
1711417135336,2142.7633307129145
1711417135377,3347.7610438987613
1711417135416,5209.1253022430465
1711417135456,7405.837656019721
1711417135496,9395.211447458714
1711417135536,11334.71402101405
1711417135577,13247.560960557777
1711417135617,14430.154573870823
1711417135657,15756.194659228437
1711417135697,16728.668080892414
1711417135737,17292.864857981913
1711417135778,18051.718926078174
1711417135817,19602.89213001216
1711417135857,20483.77821775619
1711417135897,20403.59506424796
1711417135937,23010.445993436035
1711417135978,23829.62095117243
1711417136018,23417.808879846707
1711417136058,24227.041179504246
1711417136098,24551.521864877082
1711417136138,23777.325768669136
1711417136179,24800.44127147738
1711417136218,24908.671511670575
1711417136258,25686.2124634278
1711417136298,26309.161888872273
1711417136338,27166.474642279092
1711417136379,27592.030453245156
1711417136418,27731.214746954385
1711417136458,28505.44089301396
1711417136499,28962.714378867764
1711417136538,28824.875623534434
1711417136580,30698.150581650436
1711417136619,30926.3802601723
1711417136659,30550.251976885833
1711417136699,29914.877573212143
1711417136739,29274.879163620993
1711417136780,28389.862781251315
1711417136819,28100.887498497963
1711417136859,27457.93172995001
1711417136899,26970.002500222996
1711417136939,26119.95815575123
1711417136981,26706.045244729146
1711417137020,27026.026733917184
1711417137060,26515.932700230274
1711417137100,26136.783505121246
1711417137140,25380.784530691803
1711417137181,25333.15747915767
1711417137220,25560.55338693969
1711417137260,25300.76766236499
1711417137300,27412.751151230186
1711417137340,29994.173009194434
1711417137381,29403.376246840693
1711417137420,27369.60710611334
1711417137461,24714.471372211818
1711417137501,22403.20725208521
1711417137541,20868.002817668486
1711417137581,19879.04552829312
1711417137621,18395.83823603019
1711417137661,17441.13117712317
1711417137701,17177.488840654958
1711417137741,17193.883287162054
1711417137782,16944.293695488945
1711417137821,17137.897299341857
1711417137861,17020.682306426577
1711417137901,16977.58412326593
1711417137941,16662.241205926985
1711417137982,16837.98548100423
1711417138022,17047.03270425368
1711417138062,17220.335685029626
1711417138102,16252.429047878366
1711417138142,12942.5419951058
1711417138183,9183.401595227886
1711417138222,5612.909476270899
1711417138262,3314.870577563066
1711417138302,2028.4917494254187
1711417138342,1274.9824290852994
1711417138383,-96.52683675708249
1711417138423,-852.8550090072677
1711417138462,-1520.631670572795
1711417138503,-2051.613082337193
1711417138543,-2120.1839434867725
1711417138583,-2165.389933423139
1711417138623,-2501.8815041133203
1711417138663,-1915.4132976830006
1711417138703,-1555.6966218003072
1711417138743,-1195.0506421104074
1711417138784,-330.1270187823102
1711417138823,1011.0536578227766
1711417138863,-447.1871246867813
1711417138904,-5017.657161866315
1711417138944,-10145.36738181347
1711417138984,-13889.413697873242
1711417139024,-17183.78607911337
1711417139064,-19126.913593317848
1711417139104,-19983.263962845784
1711417139144,-21396.165469131898
1711417139185,-23081.524585131556
1711417139224,-24035.01257410366
1711417139264,-24656.532292192802
1711417139304,-25278.973382339813
1711417139345,-25880.78746364126
1711417139385,-25848.666840412654
1711417139425,-24980.07942746114
1711417139465,-23756.413268504664
1711417139505,-22521.5401934837
1711417139545,-21421.795163734816
1711417139586,-22800.729601051193
1711417139625,-27855.200803505257
1711417139665,-33340.993273173925
1711417139705,-37438.520581095945
1711417139746,-39778.20058752084
1711417139786,-40700.28819514625
1711417139826,-40975.72201589774
1711417139866,-41499.48236880638
1711417139906,-42599.35415197071
1711417139946,-42845.98451140523
1711417139987,-42338.6034150091
1711417140026,-41592.367574672215
1711417140066,-40472.52200331818
1711417140106,-39331.06715353113
1711417140146,-37993.04560435796
1711417140187,-36411.69776621461
1711417140227,-34792.954586744774
1711417140267,-33924.09889142867
1711417140307,-37911.99219810357
1711417140347,-43997.47504570754
1711417140388,-49123.794959678315
1711417140427,-51922.10004752129
1711417140467,-53645.52884656843
1711417140507,-54042.278682901524
1711417140547,-54097.02934127953
1711417140588,-53951.669526573736
1711417140628,-53573.773122196086
1711417140668,-52955.19568353286
1711417140708,-51592.32855388755
1711417140748,-49142.33735699952
1711417140789,-46419.266719965264
1711417140828,-44282.83987288363
1711417140868,-42530.747234810144
1711417140908,-40282.98564621806
1711417140948,-37853.96912276326
1711417140989,-35573.828934310935
1711417141028,-38595.0632385565
1711417141069,-43870.55039363727
1711417141109,-48259.41056153225
1711417141149,-50301.144698156044
1711417141190,-51367.10539506795
1711417141229,-50966.98835800472
1711417141269,-50234.38794570975
1711417141309,-49497.14380218764
1711417141349,-48509.469343247125
1711417141390,-43651.1316434592
1711417141429,-41477.84509868338
1711417141469,-39058.5571666793
1711417141510,-36532.27550976537
1711417141550,-33364.09212356992
1711417141590,-30308.291317534633
1711417141630,-26949.389125542715
1711417141670,-23678.024677699897
1711417141710,-20696.039709471166
1711417141750,-21007.277806740254
1711417141791,-24469.237982016988
1711417141830,-27833.487032112665
1711417141870,-29439.828972600633
1711417141911,-29882.04765836289
1711417141951,-28679.818490262376
1711417141992,-27333.109550468624
1711417142031,-27053.16110773431
1711417142071,-25992.26098168455
1711417142111,-24205.16401772108
1711417142151,-21624.654615483712
1711417142192,-19467.79100956954
1711417142231,-18985.540347851347
1711417142272,-18602.043216395658
1711417142312,-17214.80597672751
1711417142352,-14737.678353647701
1711417142393,-10971.844615695532
1711417142432,-7419.926284366287
1711417142472,-4769.729349188972
1711417142512,-4818.315136505524
1711417142552,-8089.031534067355
1711417142593,-8677.281010637525
1711417142633,-7727.984615986235
1711417142673,-9434.546940313652
1711417142713,-8124.898732286412
1711417142753,-6234.399430276826
1711417142794,-3753.8727726463694
1711417142833,-1590.034715576563
1711417142873,-476.43621997418813
1711417142913,-1167.4405119407456
1711417142953,-801.5749860347714
1711417142994,3437.0070807691664
1711417143034,6571.990899966564
1711417143074,8466.039987117983
1711417143114,9780.7181893636
1711417143154,11581.569435792975
1711417143195,14605.480273436755
1711417143234,16907.60441589635
1711417143274,20688.417380939005
1711417143314,20930.12926382292
1711417143355,19237.106503369985
1711417143395,19648.854644251755
1711417143435,21733.422710940707
1711417143475,21957.913938733516
1711417143515,23783.429887332488
1711417143555,25903.91075205896
1711417143596,27938.87560225022
1711417143635,29350.508643498644
1711417143675,30476.14928123122
1711417143716,32294.756233762484
1711417143756,33111.773090144154
1711417143796,32893.873152497225
1711417143836,32858.173785224324
1711417143876,33617.03207292664
1711417143916,35999.46723883273
1711417143956,37792.94328141678
1711417143997,40705.968344396446
1711417144036,40970.17641041707
1711417144077,40432.56722759642
1711417144117,36999.195457824506
1711417144157,35045.44855370512
1711417144198,36574.45886418666
1711417144237,28869.277396374382
1711417144277,27309.39047007123
1711417144317,27821.81746519613
1711417144357,28139.425616539782
1711417144398,28492.4466095753
1711417144438,29809.20241989568
1711417144478,30899.404124667402
1711417144518,32017.854433370754
1711417144558,33871.40747343656
1711417144598,34898.335346398875
1711417144638,36928.832396916114
1711417144678,37297.899256775156
1711417144718,38275.32525568316
1711417144758,39787.06029383186
1711417144799,40962.862939383835
1711417144838,42498.22391024651
1711417144878,42149.79814921226
1711417144918,43108.78214032296
1711417144958,44301.45361015294
1711417144999,43040.51799550885
1711417145039,43518.43009591848
1711417145078,45248.671013400424
1711417145118,47191.141699188855
1711417145159,49006.16882806085
1711417145199,50043.35926667601
1711417145239,50674.814071965404
1711417145279,49341.68299455196
1711417145319,49367.89702908229
1711417145359,47247.28445608076
1711417145400,46178.612721611746
1711417145439,44438.833379613236
1711417145479,39428.76835173834
1711417145519,44174.86466971878
1711417145559,42465.55977203604
1711417145600,40825.61451447569
1711417145640,41096.09486013604
1711417145680,41508.80317815952
1711417145720,41736.91426857514
1711417145760,40150.72175789205
1711417145801,39680.21423326433
1711417145840,36314.98040524591
1711417145880,37942.67426741123
1711417145920,37311.8964867387
1711417145960,39197.83678394975
1711417146001,40178.42630947102
1711417146040,40798.25350618269
1711417146080,40108.55232424429
1711417146121,39296.198540412355
1711417146161,41034.426889446564
1711417146201,38658.576968531124
1711417146241,37812.70722611062
1711417146281,35487.04642479308
1711417146321,32577.415764727164
1711417146361,33758.45228477195
1711417146402,29261.91119292658
1711417146441,25359.193275116384
1711417146481,23248.230486080516
1711417146521,22258.561373866163
1711417146561,22151.689248358365
1711417146602,21039.909257698804
1711417146641,25413.815877947956
1711417146681,28665.45993327163
1711417146722,31449.56419086829
1711417146762,32740.66391127743
1711417146800,33724.02399270795
1711417146840,34747.65949887084
1711417146880,34270.612410817295
1711417146920,33617.15103132045
1711417146960,32981.25121351844
1711417147001,31182.641046627425
1711417147040,28040.742566511966
1711417147080,23682.177832844667
1711417147120,23000.090265590698
1711417147160,18916.089734790847
1711417147201,17993.894608915783
1711417147241,18336.968113836832
1711417147281,18791.718742449768
1711417147321,24298.014559557196
1711417147361,28640.714476358145
1711417147402,31215.42326749582
1711417147441,30050.574371714145
1711417147481,29856.1921998905
1711417147521,28900.55208268203
1711417147561,30793.67096361937
1711417147602,30914.249080682173
1711417147641,28092.023198295385
1711417147682,30402.49513587635
1711417147722,31032.036282324232
1711417147762,31443.48426759988
1711417147803,32062.372670059558
1711417147842,32888.305011072196
1711417147882,34354.35284790117
1711417147922,32683.45463987859
1711417147962,31954.521611530334
1711417148003,31520.653944588732
1711417148042,29859.280674124137
1711417148082,26408.422931928653
1711417148122,22934.16661683796
1711417148163,20700.897551295348
1711417148203,18459.839690335095
1711417148243,17774.786023036577
1711417148283,16655.6897267662
1711417148323,16460.53004138451
1711417148363,14896.73745108582
1711417148404,12761.416240148246
1711417148443,11785.965906902216
1711417148483,10567.974619714543
1711417148523,10351.000446503982
1711417148563,10305.291144480929
1711417148604,6336.884238604456
1711417148644,5721.883797630202
1711417148684,5812.61509255413
1711417148724,6785.059258473106
1711417148764,8924.722387051675
1711417148805,9595.900321394205
1711417148844,8212.13532167254
1711417148884,8153.166480189655
1711417148924,8236.018310179003
1711417148964,8362.630393568426
1711417149005,8788.156924230978
1711417149045,9082.659913440235
1711417149085,8083.522710373625
1711417149125,7525.3104995992035
1711417149165,8453.096973548178
1711417149205,8138.2538544139825
1711417149245,7683.53359335009
1711417149285,8310.315677911509
1711417149325,6430.224758952856
1711417149365,6348.4732504971325
1711417149406,5791.976858261973
1711417149445,6556.6356875826605
1711417149486,8814.144708449021
1711417149526,13189.167847653385
1711417149566,16608.8629217688
1711417149606,17920.107684998773
1711417149646,18510.91493660491
1711417149686,19324.762545748614
1711417149726,20685.700863899197
1711417149766,19954.176159657538
1711417149807,18454.181167159695
1711417149846,18109.974002385978
1711417149886,18081.478789400775
1711417149926,16214.10138666816
1711417149967,14591.904972354881
1711417150007,12810.153016671538
1711417150047,10825.687663855497
1711417150087,10062.89053683076
1711417150127,10465.00025306549
1711417150167,9708.76467016153
1711417150208,8582.505864284001
1711417150247,7761.58553518448
1711417150287,6730.713039062452
1711417150328,6907.296606312972
1711417150368,8435.514730287716
1711417150408,10101.967143692542
1711417150448,9896.073244468309
1711417150488,9484.99202658562
1711417150528,9750.135772979818
1711417150568,9014.836391540244
1711417150609,9768.473245441448
1711417150648,10667.5672747856
1711417150688,11839.086446651258
1711417150728,9264.38845020812
1711417150768,6506.736331249587
1711417150809,2682.073497771751
1711417150849,1353.9831311963499
1711417150889,647.2160800606944
1711417150929,584.7580306511372
1711417150969,1096.0148684233427
1711417151010,778.273603444919
1711417151049,483.46866725059226
1711417151089,653.8152043693699
1711417151129,1088.7117383833975
1711417151169,2033.9779106695205
1711417151210,2921.0644432585686
1711417151250,3495.7044020551257
1711417151290,4071.9949347982183
1711417151330,3354.94625207223
1711417151370,-354.9968720539473
1711417151411,-4433.886990400497
1711417151450,-7762.552115493454
1711417151490,-9495.093378123362
1711417151531,-10307.374660253525
1711417151570,-10214.616837959737
1711417151611,-9930.224367939867
1711417151651,-10763.80448153615
1711417151691,-11872.694250092842
1711417151731,-12165.340417037252
1711417151771,-11819.234554531984
1711417151812,-10725.45325271599
1711417151851,-9871.329856727272
1711417151891,-7686.582906632684
1711417151931,-7290.183680000249
1711417151972,-5702.675056163687
1711417152012,-4873.9844330968335
1711417152052,-7741.682162936777
1711417152092,-12218.06651377678
1711417152132,-16010.80450431304
1711417152172,-18635.29543885961
1711417152213,-19042.897156212013
1711417152252,-18536.391555363312
1711417152292,-18468.456912178546
1711417152332,-17984.446503368206
1711417152373,-17242.025143899955
1711417152413,-16243.26251443848
1711417152453,-15244.679915965069
1711417152493,-13595.371344302315
1711417152533,-11334.969283767045
1711417152573,-9392.446480955929
1711417152614,-7856.293093237095
1711417152654,-6823.192313694395
1711417152694,-5129.903011360206
1711417152734,-3444.7152052768506
1711417152774,-5647.082752069458
1711417152815,-9203.515237770975
1711417152854,-13011.254630227573
1711417152894,-15587.301059737802
1711417152934,-16523.50059035793
1711417152975,-15885.934931078926
1711417153015,-15165.7906534723
1711417153055,-15839.10643762257
1711417153095,-16028.583483092487
1711417153135,-15808.10696439445
1711417153175,-15364.529637048952
1711417153216,-13398.24056380894
1711417153255,-11802.188174874522
1711417153295,-10818.290545933414
1711417153335,-8801.153443256859
1711417153375,-7401.357044836041
1711417153416,-5236.938671169337
1711417153456,-3093.2612117966637
1711417153496,-4251.8735471768305
1711417153536,-7881.932866109535
1711417153576,-10493.74579850724
1711417153617,-11847.508082991466
1711417153656,-12619.58014431037
1711417153696,-11387.26823150646
1711417153736,-10690.375971339643
1711417153776,-10377.534786180593
1711417153817,-9912.916559977457
1711417153856,-9421.656164278276
1711417153896,-10219.531705704518
1711417153937,-6730.874130685348
1711417153976,-4297.725542238448
1711417154017,-2393.8275529202074
1711417154057,392.68884850200266
1711417154097,1149.158037647605
1711417154137,1380.0297058210708
1711417154177,1389.2844740208238
1711417154218,-680.3882621340454
1711417154257,-4505.358083192259
1711417154297,-6301.311342913192
1711417154337,-6291.390794710256
1711417154377,-6365.839923823252
1711417154418,-6176.822478981689
1711417154457,-5994.986138033681
1711417154497,-7530.988513556309
1711417154538,-8210.117149318103
1711417154578,-6855.222996082157
1711417154618,-6288.866063692141
1711417154658,-4492.145235873293
1711417154698,-3352.953402919229
1711417154738,-3126.4097570120357
1711417154778,-3470.9211311833933
1711417154819,-2026.4042352614924
1711417154858,-382.15369883552194
1711417154898,-11.9942441675812
1711417154938,-2078.233694653958
1711417154978,-6256.65471885819
1711417155019,-10011.533841628116
1711417155058,-13070.388986086007
1711417155099,-15151.174783438444
1711417155139,-14881.493160671555
1711417155179,-11631.590258826502
1711417155219,-11491.824547145981
1711417155259,-10947.000910646282
1711417155299,-11292.358571946155
1711417155339,-11896.265617404133
1711417155379,-11543.559286970645
1711417155420,-9401.564939559903
1711417155459,-6552.612261599861
1711417155500,-4507.852784745861
1711417155540,-2810.043987279758
1711417155580,-1765.1315296906978
1711417155621,-1601.0414371239021
1711417155660,-4615.979494026862
1711417155700,-9404.219900754746
1711417155740,-12684.827826068737
1711417155780,-12972.304437798448
1711417155821,-12154.906638174783
1711417155860,-11419.443933334667
1711417155900,-10683.056716037914
1711417155940,-11857.727773155551
1711417155981,-13039.44418972265
1711417156021,-12551.436302683316
1711417156061,-11107.605273725
1711417156101,-9587.085332849994
1711417156141,-8292.343197482638
1711417156181,-7480.550973406527
1711417156222,-7089.807530676946
1711417156261,-8174.0084142275155
1711417156301,-9033.938027304597
1711417156341,-9199.146707177162
1711417156381,-7828.16907733446
1711417156422,-15351.248616355006
1711417156462,-24423.752081976272
1711417156502,-31809.97988314554
1711417156542,-36140.74502547039
1711417156582,-40402.29858744098
1711417156623,-44148.601656017825
1711417156662,-47089.30499173701
1711417156702,-52074.16172004212
1711417156742,-57810.39827083051
1711417156782,-61190.40101023391
1711417156823,-63600.67784007406
1711417156862,-62830.06011937605
1711417156902,-59835.78218087088
1711417156943,-56222.00546991266
1711417156983,-51852.65017885808
1711417157023,-48920.86892442498
1711417157063,-43102.171921232715
1711417157103,-39607.78979567997
1711417157143,-37403.98713891115
1711417157183,-34203.0543474108
1711417157224,-32876.01333799912
1711417157263,-33060.535723542795
1711417157303,-32819.40641427273
1711417157343,-32404.71334661916
1711417157384,-31113.249269526452
1711417157424,-30726.333798538893
1711417157464,-31040.10285037849
1711417157504,-31982.18667296786
1711417157544,-31453.485481338575
1711417157584,-32162.115982234478
1711417157625,-29255.11667024996
1711417157664,-29050.88450271869
1711417157704,-23038.6153072156
1711417157744,-20393.403628976084
1711417157785,-15218.930568536278
1711417157825,-8746.41304513812
1711417157865,-8239.124338161666
1711417157905,-14696.132602513768
1711417157945,766.4080493669026
1711417157985,-7132.66150539415
1711417158026,-33718.02219451172
1711417158065,-60910.01944599906
1711417158105,-48560.501207985915
1711417158145,-21879.499690762255
1711417158185,-11304.545137884095
1711417158226,2190.732991967816
1711417158266,26736.0143842767
1711417158306,-68713.2473912146
1711417158346,-90250.17455022596
1711417158386,-58330.391015833244
1711417158427,-45756.94667128101
1711417158466,-51877.140784794
1711417158506,-51024.88699614443
1711417158546,-44036.85634382209
1711417158586,-43430.53542007739
1711417158627,-43336.533608838916
1711417158667,-41317.80235238932
1711417158707,-38811.5954810828
1711417158747,-37348.28190302849
1711417158787,-37171.05322987307
1711417158829,-43601.03217151249
1711417158868,-51098.50775345508
1711417158908,-58738.10485428199
1711417158948,-62725.571590044536
1711417158989,-69183.22359512933
1711417159029,-75240.17781801056
1711417159069,-84523.9826171915
1711417159109,-95982.48590833321
1711417159149,-100220.01600666158
1711417159189,-96135.52247070242
1711417159230,-112346.40554674994
1711417159269,-105115.3850043891
1711417159309,-85433.05745214224
1711417159350,-60323.196136591025
1711417159390,-67397.39194832905
1711417159430,-86581.66836739099
1711417159470,-88997.16411939729
1711417159510,-96547.8894349346
1711417159550,-117930.78898519836
1711417159590,-31518.70436749421
1711417159631,-17761.230403799098
1711417159670,-43019.536642500665
1711417159711,-55814.194380096626
1711417159751,-50173.77561365673
1711417159791,-52380.490382710705
1711417159832,-56533.409570550546
1711417159871,-54946.89130622684
1711417159911,-53953.22132277186
1711417159951,-52197.38272253494
1711417159991,-48222.17981409491
1711417160032,-42818.73789325636
1711417160072,-42320.89164191065
1711417160112,-41992.14074966125
1711417160152,-42083.80548955314
1711417160192,-42801.041427936405
1711417160233,-42341.777778784744
1711417160272,-40822.81054796069
1711417160312,-36083.643580205506
1711417160352,-39541.075649662176
1711417160392,-53474.54629853275
1711417160433,-59522.9150991193
1711417160473,-58806.092715824954
1711417160513,-59771.069729293
1711417160553,-58887.29989269655
1711417160593,-57364.176731423475
1711417160634,-58328.781704349676
1711417160674,-57227.554810955655
1711417160714,-52476.58957844926
1711417160754,-48355.77819448663
1711417160794,-45798.31659350498
1711417160835,-41994.46861940087
1711417160874,-36371.89835137082
1711417160914,-30797.509874948068
1711417160954,-26293.934101113584
1711417160994,-20571.086605825927
1711417161035,-18901.046735058306
1711417161075,-20461.61129068979
1711417161115,-22171.471745602554
1711417161155,-23409.58041905053
1711417161195,-22273.893576912582
1711417161236,-23885.45494803274
1711417161276,-25948.66680750018
1711417161316,-25135.31436633924
1711417161356,-23013.093699432444
1711417161396,-21447.730304732686
1711417161437,-16440.22649173066
1711417161476,-14531.846151016885
1711417161516,-14638.830397331156
1711417161556,-10173.356984947575
1711417161596,-16559.19049654086
1711417161637,-18891.38128023059
1711417161676,-8149.411233095918
1711417161716,-7982.056659866124
1711417161757,-22692.025846107863
1711417161797,-35315.17607108364
1711417161837,-37555.47809952055
1711417161877,-47959.74902369501
1711417161917,-45295.37842584611
1711417161957,-37395.6011141825
1711417161997,-40535.75107774977
1711417162038,-39219.421133210184
1711417162077,-26789.156054675346
1711417162117,-16159.32499171258
1711417162157,-10148.713656079024
1711417162197,-9731.110120531172
1711417162238,-10976.908987463685
1711417162277,-15730.445731343701
1711417162318,-26958.661398895085
1711417162358,-30056.81317317323
1711417162398,-32563.379960950697
1711417162439,-35246.49284825986
1711417162478,-33124.089911592426
1711417162518,-28417.647638686467
1711417162558,-24493.33506892086
1711417162598,-23054.059637209866
1711417162639,-21152.65852125408
1711417162678,-18395.45405309717
1711417162718,-18086.07978809881
1711417162758,-13519.634268458467
1711417162798,-6223.274079637369
1711417162839,-4505.274479625979
1711417162879,28.43299531005323
1711417162919,1372.0800470500253
1711417162959,1789.4031489004847
1711417162999,5276.325705483556
1711417163040,11432.142645823536
1711417163079,13822.050564137753
1711417163119,9406.329538260587
1711417163159,14368.02522327262
1711417163199,9317.491510653403
1711417163240,2433.3656154184137
1711417163280,5985.481291461736
1711417163320,8241.926042561885
1711417163360,4691.912113562692
1711417163400,3066.213245818857
1711417163441,2943.8445498780347
1711417163480,6024.99513920187
1711417163520,6646.572242642287
1711417163560,9476.45082268957
1711417163600,16468.294406462228
1711417163641,18377.452924322337
1711417163681,15650.520133704878
1711417163720,13746.690338808112
1711417163761,10197.01872526668
1711417163801,6947.939249572344
1711417163841,6433.832505217288
1711417163881,5907.26927020587
1711417163921,6480.020977144595
1711417163961,6548.521703957114
1711417164001,6034.937431173632
1711417164042,6943.927262951853
1711417164081,7680.613258093363
1711417164121,9632.892442360753
1711417164162,10926.909531665733
1711417164202,12843.183555033058
1711417164242,14773.525940369582
1711417164282,16855.63805098948
1711417164322,17291.492951275315
1711417164362,14281.789863028564
1711417164402,11172.201848150464
1711417164443,9576.576431618072
1711417164482,7965.5475829395
1711417164523,7489.235349790193
1711417164562,7527.781097969506
1711417164603,8044.886927757412
1711417164644,8721.704601129284
1711417164683,9107.835290445015
1711417164723,9961.134524644352
1711417164763,11160.889489982044
1711417164803,12861.879569878802
1711417164844,14118.87043943652
1711417164883,16146.889903271338
1711417164923,17764.819769823924
1711417164963,19094.119128258666
1711417165004,19450.232666916214
1711417165044,16117.95547966985
1711417165084,12974.865744862007
1711417165124,10718.558966990793
1711417165164,9454.700937571004
1711417165204,8471.736912414432
1711417165245,8220.474955547135
1711417165284,9397.41488981084
1711417165324,10233.789716421394
1711417165365,11210.561511555221
1711417165405,13053.603038896108
1711417165445,15051.17609317042
1711417165485,16751.37393054692
1711417165525,18528.28180097905
1711417165565,20506.194197787438
1711417165605,22894.12817804888
1711417165646,24675.68537039333
1711417165685,26007.078458413016
1711417165726,24213.703210028354
1711417165765,20243.708357074996
1711417165806,17304.607101195026
1711417165847,15571.982263312908
1711417165886,14509.497917653993
1711417165926,13680.472042987589
1711417165966,15344.43526548543
1711417166006,14438.417968301103
1711417166047,12243.919478958007
1711417166086,13323.652411233168
1711417166126,16692.163145710714
1711417166166,18076.06149848085
1711417166207,15163.282215971965
1711417166247,19131.703291835263
1711417166287,21704.09184630029
1711417166327,22757.671433621086
1711417166367,22361.11994444672
1711417166407,24312.468053938355
1711417166448,25201.00161584327
1711417166487,21365.80319900345
1711417166527,15443.733764161356
1711417166568,16344.599677332677
1711417166608,15899.779201039113
1711417166648,14370.187658922048
1711417166688,13259.023835392902
1711417166728,12599.704904661281
1711417166768,13326.030854481272
1711417166808,11787.050956759136
1711417166849,11225.683905015467
1711417166889,12379.22556105
1711417166929,13984.495692063589
1711417166969,14990.439928342821
1711417167009,15113.059683647472
1711417167050,18184.43687200593
1711417167089,18707.299646300264
1711417167129,19311.101555653848
1711417167169,18073.32218079851
1711417167209,15001.927086016862
1711417167250,7916.107278978452
1711417167290,3718.0061748228036
1711417167330,4211.196975380648
1711417167370,5152.348130216356
1711417167410,5990.581752299797
1711417167451,7263.819137936458
1711417167490,12648.936051653931
1711417167530,11025.449115706608
1711417167570,11065.665855447296
1711417167610,13052.450237801531
1711417167651,16152.7938157178
1711417167691,17037.157452870626
1711417167731,17262.134327540407
1711417167771,19454.356666590553
1711417167811,22768.62342454586
1711417167852,20588.145442356355
1711417167891,20696.98984310543
1711417167931,22093.16701552691
1711417167971,24792.265705582686
1711417168012,24362.413959513884
1711417168052,20223.528763631824
1711417168092,19903.829019647557
1711417168132,17033.27070059674
1711417168172,15216.627298528794
1711417168212,16369.242254747776
1711417168253,17380.148560140748
1711417168292,16064.706895183306
1711417168332,13839.910750514828
1711417168373,15582.841607907787
1711417168413,13322.98721189797
1711417168453,14956.275875581894
1711417168493,18922.819129273994
1711417168533,20408.981151544023
1711417168573,21542.020575847477
1711417168613,21537.151259860955
1711417168654,22930.778335682116
1711417168693,25245.167466587853
1711417168734,26105.547469919315
1711417168774,26696.85321287345
1711417168814,26175.236127488315
1711417168855,25576.831820317544
1711417168894,25765.882212246303
1711417168934,25674.450957926456
1711417168974,25542.542946137022
1711417169014,25557.15184952598
1711417169055,24349.52715764707
1711417169095,23174.06840000162
1711417169135,22354.403567638714
1711417169175,21349.51169098215
1711417169215,21584.5474377668
1711417169256,21008.57695348421
1711417169295,20691.318636420183
1711417169335,21125.321931639453
1711417169375,20535.65329509275
1711417169415,23063.80982388882
1711417169456,24008.290017815772
1711417169496,20247.47855507233
1711417169536,15378.642361917999
1711417169576,14287.32244233787
1711417169616,12938.530093624024
1711417169657,12445.74646752514
1711417169696,15231.632795401383
1711417169736,14999.241403622087
1711417169776,12601.0779040989
1711417169816,11627.871482189279
1711417169857,10758.649090000894
1711417169896,12218.663840359775
1711417169937,13196.249759627972
1711417169977,13404.433942486066
1711417170017,14558.093516788213
1711417170057,14109.23328641057
1711417170097,14086.68437983701
1711417170137,13700.596321813297
1711417170177,11440.104462760035
1711417170217,8852.597074491903
1711417170258,7166.451531669125
1711417170297,6285.106448544655
1711417170337,6244.523160544224
1711417170377,6863.137020695489
1711417170417,6190.665520531358
1711417170458,5989.522515666205
1711417170498,5750.3508111382835
1711417170538,5715.134975585854
1711417170578,5801.804754388286
1711417170618,6583.540579402819
1711417170659,6970.541574008297
1711417170698,7696.390180232003
1711417170738,7095.156110463198
1711417170778,7497.659486891003
1711417170818,9728.44729560893
1711417170859,10052.916544817854
1711417170899,6478.902363441419
1711417170938,789.5172538703773
1711417170979,2092.111401140224
1711417171019,471.45466910349205
1711417171060,-12.594724658876657
1711417171099,919.658563244855
1711417171139,1756.151367121609
1711417171179,726.7349566072226
1711417171219,-1282.8529813974164
1711417171260,133.6828791492153
1711417171299,2462.2091763252392
1711417171340,2849.7428462186363
1711417171380,3713.3819209570065
1711417171420,5371.616236493224
1711417171460,6077.656503849663
1711417171500,6857.024176238105
1711417171540,7082.502871664008
1711417171580,4905.401914153714
1711417171620,2743.4412993700244
1711417171661,588.4604313871823
1711417171700,1043.8626870871522
1711417171741,813.5910933744162
1711417171780,1205.2455432608258
1711417171821,1153.2904065696057
1711417171862,576.1988991519902
1711417171901,-942.2381271445192
1711417171941,-1646.2509262638632
1711417171981,-260.2547383243218
1711417172021,1741.4349067232106
1711417172062,6406.779754880816
1711417172101,6624.078928215196
1711417172141,8309.029736166121
1711417172181,19237.222838006215
1711417172222,11688.444253760856
1711417172262,3848.371053596027
1711417172302,1952.5137455400545
1711417172342,-3244.7227749631274
1711417172382,-9625.948213707423
1711417172422,-8987.808265591972
1711417172463,-7927.370398872998
1711417172502,-6519.766312711872
1711417172542,-2797.4549623471685
1711417172583,-441.0173932905309
1711417172623,395.9724851087667
1711417172663,4567.736942705698
1711417172703,8311.121395648923
1711417172743,10501.528817696963
1711417172783,13740.607877280563
1711417172823,17283.753985974938
1711417172864,19571.43584031379
1711417172903,20825.170223654248
1711417172943,23150.241668021306
1711417172983,24732.66260190541
1711417173023,22815.738337567076
1711417173064,19928.729609457776
1711417173104,16727.546230347827
1711417173144,14222.408142333385
1711417173184,12298.767886578105
1711417173224,10625.660865140148
1711417173265,9590.74343924364
1711417173304,9186.73675604444
1711417173344,6488.3924743065145
1711417173384,6604.836128903553
1711417173425,6425.888961896766
1711417173465,-2201.938864677213
1711417173505,7669.470098212361
1711417173545,10903.551459373208
1711417173585,4116.293616993353
1711417173625,2863.888797237538
1711417173666,5750.362857409986
1711417173705,3704.7674253771547
1711417173745,2666.7207261126023
1711417173785,4474.948483031709
1711417173825,548.1379816774279
1711417173866,-1167.8537266887724
1711417173906,692.9687513627578
1711417173946,-428.6225589849055
1711417173986,-1627.5880207703449
1711417174026,-1342.7244291123934
1711417174067,-2122.293235005345
1711417174106,-2567.801504197065
1711417174146,-2241.1222558175214
1711417174186,-1389.873419579817
1711417174226,-1417.03611414833
1711417174267,-2422.7951213433407
1711417174307,-1795.3911823912058
1711417174347,-1114.5934829206672
1711417174387,741.7581086179707
1711417174427,2241.962408552412
1711417174468,3932.2459905571304
1711417174507,3667.654052975122
1711417174547,1783.202495279722
1711417174587,-147.2783932313323
1711417174628,-1008.8247048589401
1711417174668,-1501.5014375972096
1711417174708,-1933.049877922982
1711417174748,-2201.5170913760085
1711417174788,-2197.02881692769
1711417174828,-3103.442923191935
1711417174869,-2267.980613227468
1711417174908,-1627.9921134267934
1711417174948,-163.55824132845737
1711417174989,1063.2654674572404
1711417175029,2716.883756375173
1711417175070,4128.70720898849
1711417175109,6179.241865444463
1711417175149,6810.204633782152
1711417175189,8167.343596311752
1711417175230,9491.99804459652
1711417175270,9386.46771230339
1711417175310,8360.866122306325
1711417175350,6437.505690712947
1711417175390,5751.139914596453
1711417175430,5400.740171412472
1711417175471,5170.634211624507
1711417175510,5636.040386295877
1711417175550,5746.217517858837
1711417175591,5630.163871515542
1711417175631,5935.197042782791
1711417175672,6077.270811398979
1711417175711,6822.083231652621
1711417175751,7428.7122103760485
1711417175791,8099.849816097412
1711417175831,8965.395862411708
1711417175872,10844.203323111404
1711417175912,11397.189318819437
1711417175952,12217.480950743426
1711417175992,12031.963942083996
1711417176032,10511.816089536995
1711417176073,8766.450400158297
1711417176112,7892.566934705479
1711417176152,7227.451082143001
1711417176193,6746.156528129242
1711417176233,6822.058595963288
1711417176274,6887.122018944705
1711417176313,6794.288938965648
1711417176353,6543.091343102977
1711417176393,6805.820421918761
1711417176433,7485.704202571185
1711417176474,8471.8803580245
1711417176514,9660.814628211781
1711417176554,10906.811540169176
1711417176594,11163.754678619094
1711417176634,12040.68954535108
1711417176675,12634.534812356578
1711417176714,12693.992902434897
1711417176754,11079.460611490766
1711417176795,9174.925972240511
1711417176835,8250.32477997616
1711417176875,7604.456811467651
1711417176915,7097.1839305870235
1711417176955,7124.307175592752
1711417176995,7426.817541726399
1711417177035,7617.37466299627
1711417177076,7766.097019513603
1711417177115,7520.24431255809
1711417177155,7942.10165761481
1711417177196,8383.64644110296
1711417177236,9205.702485940186
1711417177276,9358.431582400575
1711417177316,10300.236608048901
1711417177356,10890.101725632092
1711417177396,12166.707536338596
1711417177436,13453.36051279353
1711417177477,12817.939761351328
1711417177516,11027.834537710063
1711417177556,8908.98397331615
1711417177596,8147.955156268319
1711417177636,7613.896084523294
1711417177677,7005.711417344632
1711417177717,6928.400671531446
1711417177757,7533.5500474595465
1711417177797,6918.556409190176
1711417177837,6697.280971425353
1711417177878,6882.837161710719
1711417177917,8016.288286804222
1711417177957,9058.919542082585
1711417177997,9293.996844612062
1711417178037,9852.021227889229
1711417178078,10395.710081588477
1711417178118,11563.598685105098
1711417178158,12304.549951551482
1711417178198,13093.713914993219
1711417178238,12976.37234129943
1711417178279,10803.298874935135
1711417178318,8931.937895443756
1711417178358,7505.658727526665
1711417178398,6586.399589924142
1711417178438,5165.371138600633
1711417178479,4223.9113931818865
1711417178518,-1771.4298470104113
1711417178558,-1120.0459038945846
1711417178599,-5168.920078344643
1711417178639,-10442.800811245106
1711417178679,-14238.930296759121
1711417178719,-17764.665975051
1711417178759,-17533.57696112804
1711417178799,-23502.516133141704
1711417178839,-26321.441547897644
1711417178880,-20300.482107968535
1711417178919,-13952.940475974232
1711417178959,-7817.936234026449
1711417178999,-1921.0854281799402
1711417179039,4393.642787009943
1711417179083,10383.192331080325
1711417179120,13643.02325725276
1711417179160,14638.353582120035
1711417179200,15995.247825674247
1711417179240,16827.54533770634
1711417179281,18392.195439827163
1711417179320,19481.05566228926
1711417179360,20698.623305951245
1711417179400,23313.84207291808
1711417179440,24950.683126884513
1711417179481,26003.2588847531
1711417179521,27370.907326147426
1711417179561,29041.372127943672
1711417179601,29884.60318159312
1711417179641,30463.993941835128
1711417179682,30616.658379847184
1711417179721,32021.591972830705
1711417179761,33637.25628468394
1711417179801,40155.79070017021
1711417179841,40370.14774562232
1711417179882,41733.05225970689
1711417179922,38413.17780004628
1711417179962,30586.122137393337
1711417180002,24590.38062031241
1711417180042,18116.14045624854
1711417180082,20385.9643138065
1711417180122,22942.054937301204
1711417180162,18954.76334331464
1711417180202,18334.977413566783
1711417180242,20442.96909891488
1711417180283,22424.39801810356
1711417180323,22884.199970697053
1711417180363,22851.438016783446
1711417180403,22775.321681612637
1711417180443,24408.0397639703
1711417180484,24768.322423133068
1711417180523,25930.085537116043
1711417180563,25891.009585778695
1711417180603,25358.649509672076
1711417180643,23419.208230771124
1711417180684,19060.982834732626
1711417180724,16965.334888363723
1711417180764,15745.318604439497
1711417180804,15594.789600469172
1711417180844,14754.193915384822
1711417180885,13916.993019795511
1711417180924,13381.66891462123
1711417180964,13186.061422073282
1711417181004,13098.66259479709
1711417181044,12691.542811642867
1711417181085,12525.83733544778
1711417181125,12128.2599554779
1711417181165,12281.07432755502
1711417181205,12695.174641326535
1711417181245,13741.605461005121
1711417181288,13666.270723963156
1711417181325,14430.44021110097
1711417181365,12943.208840921521
1711417181405,10073.229995583184
1711417181446,8069.781797414646
1711417181486,6303.5315319933
1711417181526,5237.579065122642
1711417181566,4830.10301842168
1711417181606,4847.477332972921
1711417181646,4187.333268032875
1711417181687,3244.115404688753
1711417181726,3169.3943423717283
1711417181766,3662.1742984633893
1711417181806,3860.1175135448575
1711417181847,4319.539187057875
1711417181887,4351.616387595423
1711417181927,4711.064782692585
1711417181967,5357.9259268073365
1711417182007,5792.076113413554
1711417182047,6157.10333790211
1711417182088,6214.179545951076
1711417182127,4566.732415848412
1711417182167,2082.4801308643073
1711417182208,538.375470300205
1711417182248,-5.043567469343543
1711417182288,-820.7644222080708
1711417182328,-455.5462274784222
1711417182368,-687.7459387108684
1711417182408,-1117.7566838227212
1711417182448,-1358.4506202591583
1711417182489,-1674.4168559722602
1711417182528,-1946.067449069582
1711417182569,-1318.8295500567183
1711417182608,-1018.1467193821445
1711417182649,-758.0450590401888
1711417182689,-322.8312569539994
1711417182729,332.3068145941943
1711417182769,1561.2674263361841
1711417182809,1698.0228119567037
1711417182849,-263.5188358295709
1711417182889,-2826.617918928154
1711417182928,-4847.34970078012
1711417182968,-5683.451180811971
1711417183008,-6550.950647043064
1711417183049,-6672.263739075977
1711417183089,-6648.013950702734
1711417183129,-7488.866944101639
1711417183169,-7177.927558927797
1711417183209,-6962.369989536703
1711417183249,-6627.534004339948
1711417183290,-6101.5374438185245
1711417183329,-5223.275240311399
1711417183369,-4684.22368159052
1711417183410,-3854.8262808322906
1711417183450,-2745.7466876311228
1711417183490,-2638.993341124151
1711417183530,-4438.838506665081
1711417183570,-7096.879414911382
1711417183610,-9296.450495850295
1711417183650,-10589.692573565058
1711417183691,-10984.871801849455
1711417183730,-10899.99355605198
1711417183771,-10543.155202741269
1711417183811,-10465.640943707433
1711417183851,-11140.391881335992
1711417183892,-11173.49559739558
1711417183931,-9903.579386179335
1711417183971,-9840.1626745658
1711417184011,-9181.459795486182
1711417184051,-8844.293174742721
1711417184092,-7835.245160778053
1711417184132,-6993.065820845775
1711417184172,-7321.144601204433
1711417184212,-9888.561665611342
1711417184252,-13315.448341227137
1711417184293,-14800.410905785859
1711417184332,-16847.068123701494
1711417184372,-18537.23082329752
1711417184412,-18886.185523399618
1711417184452,-19067.165750476997
1711417184493,-19792.83207704872
1711417184533,-19255.019507577643
1711417184573,-18943.428303077817
1711417184613,-18510.842170663178
1711417184653,-17643.277858161367
1711417184694,-16725.020264183637
1711417184733,-15857.469330604654
1711417184773,-14887.493129897863
1711417184813,-13839.652648216113
1711417184854,-12956.918432854116
1711417184894,-14268.23154981481
1711417184934,-17887.186239318922
1711417184974,-20330.062419976108
1711417185014,-22292.00048423186
1711417185054,-23679.354070103727
1711417185095,-26330.65377135435
1711417185134,-26299.15242074523
1711417185174,-26298.39792947611
1711417185214,-26117.38544607209
1711417185254,-24496.583586899098
1711417185295,-23175.71912232926
1711417185335,-21975.65719691012
1711417185375,-20916.12908513518
1711417185415,-19402.86416781554
1711417185455,-17703.82998270262
1711417185496,-16240.725700360723
1711417185535,-14171.520905781537
1711417185575,-14676.270344844088
1711417185615,-17272.344841137063
1711417185655,-19530.08294595871
1711417185696,-20421.74402587535
1711417185735,-21621.571519914083
1711417185775,-21926.657960052602
1711417185816,-22544.766420518048
1711417185856,-22540.481714346446
1711417185896,-22743.247860552743
1711417185936,-22040.295118787326
1711417185976,-21722.635431230534
1711417186016,-20569.442865977064
1711417186056,-19105.99696296733
1711417186097,-17402.1639852589
1711417186136,-15429.413087903522
1711417186176,-14264.48662471259
1711417186216,-12523.098136848304
1711417186256,-11035.644122711383
1711417186297,-9595.64093732275
1711417186337,-8297.614227051847
1711417186377,-9671.123008013703
1711417186417,-12172.476514845155
1711417186457,-14136.492762566544
1711417186498,-15394.895475451834
1711417186537,-16069.490961231291
1711417186577,-16445.289787810063
1711417186617,-16324.99157335679
1711417186657,-15863.65807877644
1711417186698,-16100.575839006575
1711417186737,-15569.031640582718
1711417186778,-14527.192604759708
1711417186818,-13562.459182030056
1711417186858,-12448.877762699267
1711417186899,-10331.630593272857
1711417186938,-8860.378359489609
1711417186978,-7716.381319209933
1711417187018,-5996.841400344856
1711417187058,-3554.548244342208
1711417187099,-2012.6532769850455
1711417187138,-131.95283848745748
1711417187178,1656.8243432892486
1711417187218,-75.98532158648595
1711417187259,-2173.997602910269
1711417187299,-3542.109477712773
1711417187339,-4477.315529660787
1711417187379,-4868.885190449189
1711417187419,-5207.204541451298
1711417187459,-5012.0135912727565
1711417187500,-4692.107358984882
1711417187539,-4361.180289506912
1711417187579,-3361.4473928606603
1711417187620,-2137.6504216152243
1711417187659,-505.1374269546941
1711417187700,679.7556178376544
1711417187740,1613.1296330559999
1711417187780,2670.075515178498
1711417187820,3958.2358953189105
1711417187860,5349.190720343962
1711417187901,6784.772006401792
1711417187940,8248.921213613823
1711417187980,9435.593831225764
1711417188020,7589.462404615013
1711417188061,5004.32417378528
1711417188102,4254.349766298197
1711417188141,3871.0843056973536
1711417188181,3189.6912254798226
1711417188221,3537.7850851987023
1711417188261,3354.3986904111225
1711417188302,3078.537891983986
1711417188341,2587.6931555224583
1711417188381,3630.1288668019697
1711417188421,4523.488276315853
1711417188462,5051.100863181055
1711417188502,5771.446959496476
1711417188542,6646.084061780712
1711417188582,7324.528069240041
1711417188622,8201.31987674348
1711417188662,9039.201376617188
1711417188703,10088.620245365193
1711417188742,8902.382306416519
1711417188782,6255.747647769516
1711417188822,4147.705328365555
1711417188862,2919.562666224083
1711417188903,2432.624400665518
1711417188943,2150.061927044997
1711417188983,1801.85248357011
1711417189023,1622.8640003520995
1711417189063,505.9142547165975
1711417189104,665.7500355131924
1711417189143,896.2419974857476
1711417189183,1733.931375972461
1711417189223,2503.3033334228676
1711417189263,3372.1927487335633
1711417189304,4405.5757905866485
1711417189344,5626.002027762122
1711417189384,6018.4620172046125
1711417189424,6890.979108627886
1711417189464,6206.391810684465
1711417189505,2922.258076740429
1711417189544,-14.295329138636589
1711417189584,-1349.6969481837004
1711417189624,-2527.7952060969546
1711417189665,-3041.673010321334
1711417189705,-3332.9448332739994
1711417189745,-3626.8149951463565
1711417189785,-3868.749288219027
1711417189825,-3918.7529823416844
1711417189865,-3286.6842079251073
1711417189906,-2275.1048596962355
1711417189945,-1556.5727113464382
1711417189985,-771.6058828555979
1711417190025,309.60080160642974
1711417190065,1149.4654774074443
1711417190106,2252.986141224159
1711417190146,3498.620651660487
1711417190186,4634.621402412187
1711417190226,4142.247471952811
1711417190266,1001.0252919760533
1711417190307,-1522.1026905218605
1711417190346,-2616.271097032819
1711417190386,-3522.050805652514
1711417190426,-4342.48489459441
1711417190466,-4911.004110145383
1711417190507,-5443.102381034754
1711417190547,-5854.3279458824545
1711417190587,-5895.91086552944
1711417190627,-6038.88721943507
1711417190667,-5515.776528651128
1711417190708,-4285.740637034178
1711417190747,-3329.520640654955
1711417190787,-2326.617842298001
1711417190828,-761.7936374298297
1711417190868,-424.1919308719225
1711417190908,899.8659577812068
1711417190948,2066.2833979038987
1711417190988,3878.036531696096
1711417191028,3920.912916345056
1711417191068,1363.857923639007
1711417191109,-1613.513352747541
1711417191148,-3519.9869690104388
1711417191188,-4757.637347232318
1711417191229,-5610.445083943661
1711417191269,-5781.775168679422
1711417191309,-5816.190829186235
1711417191349,-6014.9057783943135
1711417191389,-5781.477883181302
1711417191429,-5280.590000495082
1711417191469,-4537.695129968226
1711417191510,-3566.814197646221
1711417191549,-2378.9857817962766
1711417191590,-1584.1045730812475
1711417191630,-397.5793943349272
1711417191670,217.63555289735086
1711417191711,1206.197629668517
1711417191750,2532.090631048195
1711417191790,4342.8798763914965
1711417191830,4656.532789778663
1711417191870,3226.15852884599
1711417191911,489.2733272239566
1711417191951,-447.61437871074304
1711417191991,-1674.595718178898
1711417192031,-2131.726084014401
1711417192071,-1770.6871153323445
1711417192112,-1772.1369161056355
1711417192151,-1703.5979621298611
1711417192191,-1907.4307550839148
1711417192231,-1700.4844311787747
1711417192272,-1574.8561478336342
1711417192312,-661.6412615254521
1711417192352,282.0004224590957
1711417192392,822.0838935631327
1711417192432,1459.2106412511785
1711417192472,2366.3831739926245
1711417192513,3906.439794389298
1711417192553,5318.161466674879
1711417192593,6083.147375453729
1711417192633,5914.67521868879
1711417192673,3023.620393422898
1711417192714,453.998298171442
1711417192753,-1411.081656828057
1711417192793,-2434.194013932487
1711417192833,-2734.821275725728
1711417192874,-2659.824263946619
1711417192915,-2991.751719260821
1711417192954,-3520.7009825685527
1711417192994,-3292.4183791428804
1711417193034,-3120.182851003483
1711417193074,-2891.5129728163593
1711417193115,-1503.2364979337435
1711417193154,-578.5072195730172
1711417193194,453.0934450251516
1711417193234,1025.654510502005
1711417193274,2662.271181937307
1711417193315,3772.849458247423
1711417193355,4986.8059978268575
1711417193395,5960.686617095955
1711417193435,6086.2053033490665
1711417193475,4096.80926627107
1711417193516,1384.2577108647674
1711417193555,30.654181690420955
1711417193595,-810.7779520733748
1711417193635,-1352.55392517359
1711417193675,-375.7063614237122
1711417193716,-160.55056599131785
1711417193756,265.68064272427
1711417193795,310.32176661887206
1711417193836,639.1910386122763
1711417193876,1774.5682548549958
1711417193916,2436.075763433473
1711417193956,3360.4889375034254
1711417193996,5122.227832400007
1711417194036,5909.234376506414
1711417194076,6794.827688451158
1711417194117,8706.37432930572
1711417194156,10684.221544419182
1711417194196,11831.4131795445
1711417194237,10763.469530144706
1711417194276,8388.066648569424
1711417194317,6663.4896870385855
1711417194357,6384.377645569388
1711417194397,6313.881949759554
1711417194437,5953.3220619205385
1711417194477,6029.610718008596
1711417194518,5851.44103880832
1711417194557,4510.039372820873
1711417194597,4596.475502080284
1711417194637,4462.984880532604
1711417194677,5487.942924239207
1711417194718,6694.544816518202
1711417194758,7031.962375235744
1711417194798,7102.922483010218
1711417194838,7148.043453400023
1711417194878,8015.1553732333705
1711417194920,7124.667989942245
1711417194959,4633.994390484877
1711417194999,1886.9510482535698
1711417195039,-32.109124856069684
1711417195079,-475.5485359914601
1711417195120,-802.0668634651229
1711417195160,-1489.7392118396237
1711417195200,-1074.524729599245
1711417195240,-1690.8177860677242
1711417195280,-1872.442282921169
1711417195321,-741.4979074220173
1711417195360,711.701517757494
1711417195400,449.35583046637475
1711417195440,1016.7661911379546
1711417195480,947.8737832261249
1711417195521,2343.7202821350656
1711417195560,3215.0129399159923
1711417195600,5016.447166023776
1711417195641,3882.0862440476194
1711417195681,2224.139182420913
1711417195721,1222.1362272831611
1711417195761,-609.3257274585776
1711417195801,-1640.691079299897
1711417195841,-1122.1828393577598
1711417195881,-1206.1926025953144
1711417195922,-4942.90948866494
1711417195961,-6351.768524556421
1711417196001,-6260.221276590135
1711417196042,-6897.061042819172
1711417196082,-7434.902661837637
1711417196122,-8216.785719804
1711417196162,-9171.885281518567
1711417196202,-10708.452998389956
1711417196242,-11713.803892411292
1711417196282,-9322.105228455737
1711417196323,-8610.920489711221
1711417196362,-13814.647644528188
1711417196403,-14713.914905757643
1711417196443,-16747.932711592875
1711417196483,-21725.064024992287
1711417196524,-20504.883112706244
1711417196563,-17688.847914913436
1711417196603,-16555.277172168717
1711417196643,-17882.26805834635
1711417196683,-18157.785182152875
1711417196724,-16483.530946904793
1711417196764,-15007.629350970034
1711417196804,-14688.32595531363
1711417196844,-12046.762668509968
1711417196884,-8342.892502048751
1711417196924,-4900.031130348798
1711417196964,-3797.741205347702
1711417197004,-4490.956398093607
1711417197044,-2795.8439302889165
1711417197084,-157.73185599199496
1711417197125,-544.0217835977674
1711417197164,917.4157217298634
1711417197204,5167.730857823277
1711417197245,6119.60742749623
1711417197285,5652.588468117174
1711417197325,3811.783369106939
1711417197365,2782.0423574550077
1711417197405,3583.159932815004
1711417197445,4464.894494893495
1711417197485,6476.8248760495335
1711417197526,8608.490192420315
1711417197565,7937.879359100014
1711417197605,3959.0630750565324
1711417197645,4565.554406489944
1711417197686,2016.3348588892259
1711417197727,2712.767051042989
1711417197766,6162.915759636555
1711417197806,5149.297298243269
1711417197846,32.42987438105047
1711417197886,-5232.775514913257
1711417197927,-6270.586265323218
1711417197966,-5206.531776583055
1711417198006,-4700.835020273458
1711417198046,-579.3003623895347
1711417198087,3682.0394953705836
1711417198127,2455.6755811176263
1711417198167,5396.834053709172
1711417198207,6205.944865031168
1711417198247,2065.8095031324774
1711417198287,-65.91361267468892
1711417198328,-1506.8941968590952
1711417198367,-4241.085418564733
1711417198408,-3860.3881146973
1711417198448,-4470.493865404278
1711417198488,-4301.750928296708
1711417198528,-5056.928610604489
1711417198568,-5728.027758447919
1711417198608,-4802.580408172682
1711417198648,-3787.7830182467587
1711417198688,-3064.611419089604
1711417198729,-2741.1997720380314
1711417198768,-925.91459124838
1711417198809,325.05998255242594
1711417198849,643.2677275319584
1711417198889,2140.3299491968937
1711417198930,250.6940426682122
1711417198969,-2544.4810860415455
1711417199009,-4482.721920796204
1711417199050,-4542.507219605148
1711417199090,-5490.15162831475
1711417199130,-4916.863282618113
1711417199170,-4049.553654238349
1711417199210,-3440.2530907825567
1711417199250,-3144.961274512578
1711417199290,-3258.5617908982094
1711417199331,-4695.061691197567
1711417199370,-4733.419818070019
1711417199411,-676.6317070643418
1711417199451,-1803.705380254425
1711417199491,325.5945241486188
1711417199532,2121.7487600035965
1711417199571,3266.010484059574
1711417199611,2777.904272443615
1711417199651,921.3406679080799
1711417199691,-1007.4027708375361
1711417199732,-1753.4330778811127
1711417199772,-2519.8248860854656
1711417199812,-2528.5280969440937
1711417199852,-1720.260936572682
1711417199892,-1878.0217209081165
1711417199933,-2144.7969856660347
1711417199972,-1873.2255755905062
1711417200013,-580.6398788767401
1711417200053,452.63256343686953
1711417200093,1299.1879181126133
1711417200134,2335.4875095272437
1711417200173,3791.9832081398927
1711417200213,4734.6086340262555
1711417200253,6235.391293032095
1711417200293,7644.4383360059
1711417200334,5966.295054126065
1711417200374,3373.8662224262953
1711417200414,1456.8833687836304
1711417200454,520.8515923637897
1711417200494,-676.2959237161558
1711417200535,-491.0497786272317
1711417200574,-282.99136519338936
1711417200614,-257.0696711456403
1711417200654,70.80320788850076
1711417200694,1109.729815289611
1711417200735,1417.1226454717107
1711417200775,1926.4068498602137
1711417200815,3005.1782182930037
1711417200855,3440.117452575825
1711417200895,4319.324028532021
1711417200936,5267.005952696316
1711417200975,6759.749753117561
1711417201015,7033.087844287045
1711417201055,5193.381967782043
1711417201095,3479.2665660106577
1711417201136,2353.5350707354955
1711417201176,1666.321424471913
1711417201216,726.503662010422
1711417201256,664.7191560701467
1711417201296,224.4840043897275
1711417201337,111.79295995971188
1711417201376,-165.44829880609177
1711417201416,-0.45699410047382116
1711417201456,614.3462956999429
1711417201496,1607.4205549436156
1711417201537,2522.676259722095
1711417201576,3469.566503535956
1711417201616,4328.850114124129
1711417201657,5374.165012364974
1711417201697,6347.782776065404
1711417201737,7790.785164177651
1711417201777,8720.55146210501
1711417201817,7105.082818424795
1711417201857,4609.984539978206
1711417201897,2702.619422093965
1711417201938,1545.455162473023
1711417201977,945.2726080890279
1711417202017,1339.5414516068995
1711417202058,1359.4145820992999
1711417202098,977.1228883448057
1711417202138,1375.4488773311023
1711417202178,1053.7198376967572
1711417202218,1918.7038270412013
1711417202258,2488.1735641467385
1711417202298,3549.4241741290316
1711417202339,4080.9544347194023
1711417202378,4989.830309513956
1711417202418,5814.691238520201
1711417202458,6718.026410107734
1711417202499,7866.902641936671
1711417202539,9077.108582737856
1711417202579,7798.941431827843
1711417202619,5164.596033348935
1711417202659,3148.107537521515
1711417202699,2560.3369140399154
1711417202740,2070.9206740797963
1711417202779,2619.8043509779964
1711417202819,2502.241045474075
1711417202859,1802.2999089173973
1711417202900,1526.296083016554
1711417202940,1313.708999558119
1711417202980,1893.5646004383452
1711417203020,2456.826361954212
1711417203060,3202.028130382765
1711417203100,3560.894454008434
1711417203141,4071.850525054615
1711417203180,4808.4924834463745
1711417203220,6064.643590951338
1711417203261,6419.061987880152
1711417203300,7602.071934766136
1711417203341,7362.158794524148
1711417203381,4751.007679005619
1711417203421,1460.0469901734032
1711417203461,-26.94629512540996
1711417203501,-1416.3095892220736
1711417203542,-1863.2449193876237
1711417203581,-2739.7509981724434
1711417203621,-3512.453372790944
1711417203661,-4339.4739808538
1711417203701,-5557.889112859964
1711417203742,-5473.69927896373
1711417203782,-4843.18958812207
1711417203822,-4140.274971731938
1711417203862,-3263.3850848344155
1711417203902,-2385.1018060133792
1711417203943,-1597.8372967885807
1711417203982,-879.5253339344636
1711417204022,-512.7707215985283
1711417204062,434.62160146795213
1711417204103,698.6036431971006
1711417204143,-1625.4300621668808
1711417204183,-5084.320880724117
1711417204223,-6920.975672950968
1711417204263,-8243.17548578512
1711417204303,-9907.44935473986
1711417204344,-10549.776319403201
1711417204383,-10610.20459176274
1711417204423,-11471.30012178002
1711417204464,-11418.350231111981
1711417204504,-11906.682833483908
1711417204544,-10963.873454609653
1711417204584,-10709.756819379516
1711417204624,-9826.581097918097
1711417204664,-9155.590419372777
1711417204704,-7972.350816200953
1711417204745,-6217.595607423922
1711417204784,-4872.025216053473
1711417204825,-3736.5740876428317
1711417204865,-3241.8583775963634
1711417204905,-5732.485669888556
1711417204946,-9056.950839577243
1711417204985,-11122.775926133152
1711417205025,-12644.41892672982
1711417205065,-13358.355597118381
1711417205105,-13545.890757158399
1711417205146,-13443.241820534691
1711417205186,-13660.140960346907
1711417205226,-14287.894017388811
1711417205266,-14291.707832840504
1711417205306,-12444.093801344978
1711417205347,-11626.687117215246
1711417205386,-10407.170585696585
1711417205426,-9855.944262061268
1711417205466,-8544.029398159124
1711417205506,-8113.819492537295
1711417205547,-7397.340877495473
1711417205587,-6833.341029971605
1711417205627,-9035.36544334516
1711417205667,-12404.302665210329
1711417205707,-13723.130999399582
1711417205748,-14703.299922480714
1711417205787,-14195.51403476228
1711417205827,-13758.271589917596
1711417205868,-13336.07569986349
1711417205908,-14003.564486373216
1711417205948,-14010.818150258856
1711417205988,-13599.698126898846
1711417206028,-12980.247594482033
1711417206068,-11560.722030079458
1711417206108,-10197.047477136832
1711417206149,-7723.9461628939025
1711417206189,-6547.054929531645
1711417206229,-5532.940502582584
1711417206269,-5665.380742478184
1711417206309,-8675.601099168183
1711417206350,-11758.844304733677
1711417206389,-12698.624348158017
1711417206429,-13576.067106658127
1711417206469,-13811.359446898103
1711417206510,-13130.243191060377
1711417206550,-13059.443533927668
1711417206590,-13730.179880557349
1711417206630,-13361.278799297754
1711417206670,-12407.592705186922
1711417206710,-10754.486306742765
1711417206751,-9523.457605181728
1711417206790,-7056.541555315489
1711417206831,-5371.1522521767765
1711417206871,-3645.1377338957973
1711417206911,-2357.2159438184462
1711417206951,-1548.3508925137576
1711417206990,-4097.185108806239
1711417207030,-6694.749374550534
1711417207070,-7973.90586302313
1711417207111,-8239.291116517968
1711417207151,-8081.862216966227
1711417207191,-7286.520349616185
1711417207231,-7393.461843614001
1711417207271,-7256.432447848376
1711417207311,-6817.559676240664
1711417207352,-5914.429415052058
1711417207391,-4543.3810608934145
1711417207431,-3983.9159834748134
1711417207472,-1990.9711351837032
1711417207512,-902.1794338657055
1711417207552,1253.1697169668041
1711417207592,3365.4145083420444
1711417207632,3280.4970301322173
1711417207672,-1.5352503573521972
1711417207712,-2082.7469206070527
1711417207753,-2799.7991666258313
1711417207792,-3327.114283806877
1711417207833,-2833.888923616847
1711417207873,-2117.2982095358893
1711417207913,-2150.270788581576
1711417207954,-2602.4269925407134
1711417207993,-2390.982311318163
1711417208033,-1468.5398461888544
1711417208073,-85.21017945138738
1711417208113,876.8559722562786
1711417208154,2345.189609130379
1711417208193,3238.258499798365
1711417208233,4402.432488217251
1711417208273,5126.100339297205
1711417208314,4148.1324385241605
1711417208354,809.2153361139353
1711417208394,-1276.3401484454516
1711417208434,-2102.705317868851
1711417208474,-2420.6032126697246
1711417208514,-1872.8765149782412
1711417208555,-1458.603690580232
1711417208594,-1716.1277292151935
1711417208634,-2258.7793079675175
1711417208674,-1543.3071091398597
1711417208714,-750.9610504803713
1711417208755,164.86037955945358
1711417208795,1302.3439935708884
1711417208835,1926.0536206653342
1711417208875,2726.9740430633537
1711417208915,3927.511405700585
1711417208956,4825.734745121095
1711417208995,3496.8871787355747
1711417209035,138.63644116651267
1711417209075,-2010.811858933419
1711417209115,-3027.9630176625215
1711417209156,-3971.3999436553568
1711417209195,-4123.244726274395
1711417209236,-3594.4880903847516
1711417209276,-3233.43828980485
1711417209316,-3431.0231765820645
1711417209356,-2939.6360104891937
1711417209396,-1769.2552768401802
1711417209436,-1126.6563097718172
1711417209476,-25.26180363772437
1711417209516,1165.3252533497289
1711417209557,2993.480400638422
1711417209596,4222.8499719509855
1711417209637,5762.306466008304
1711417209677,7468.398307404015
1711417209717,7247.4782503475435
1711417209758,4918.033537515206
1711417209797,2551.029239633819
1711417209837,950.0337835852988
1711417209877,378.642961737467
1711417209917,663.0472998025361
1711417209958,811.1776784344111
1711417209997,1040.9477912811562
1711417210037,999.3599138623103
1711417210078,1264.5834193124902
1711417210118,1994.2797127286904
1711417210158,3062.4038229803555
1711417210198,4558.105205975007
1711417210238,5591.195788308047
1711417210278,6849.874213694129
1711417210318,8681.788522200193
1711417210359,9889.283724106848
1711417210398,10644.36979783047
1711417210438,12170.270545540377
1711417210479,11765.172794273123
1711417210518,8591.690130261239
1711417210559,6219.04881449067
1711417210599,4577.5552591839805
1711417210639,3504.0141702867113
1711417210679,3000.842562342761
1711417210719,2614.2277856620494
1711417210760,3112.399672594387
1711417210799,2552.6799060553312
1711417210839,2155.028142347466
1711417210879,2805.530786895426
1711417210919,3476.58265545452
1711417210960,4160.2094413926825
1711417211000,5270.612725974526
1711417211040,5873.150245418306
1711417211080,6878.955024771858
1711417211120,7998.856729093939
1711417211161,9289.848762748996
1711417211200,10491.647873169277
1711417211240,11437.661821222398
1711417211280,9620.105775094591
1711417211320,6553.767697534058
1711417211361,4820.241305072792
1711417211400,4161.091579343192
1711417211441,3329.9327892498113
1711417211481,3052.230340853799
1711417211521,2971.737343894085
1711417211562,3017.0058711208403
1711417211601,2539.1897043338977
1711417211641,2869.682086031651
1711417211681,3654.5861710608006
1711417211721,4468.432403355371
1711417211762,5469.136977290036
1711417211802,6279.58916917094
1711417211842,7191.971973017557
1711417211882,7924.783554219175
1711417211922,8957.262084539048
1711417211963,9893.731802792754
1711417212002,11968.325745365117
1711417212042,12140.442685169633
1711417212082,10794.77072269516
1711417212122,8624.42037813412
1711417212163,7005.351578364149
1711417212203,6249.682907519396
1711417212243,6333.530863682739
1711417212283,6531.018571802415
1711417212323,6512.461797871627
1711417212364,6251.868035397958
1711417212403,6473.167862355476
1711417212443,6883.162433684105
1711417212483,7901.175692315213
1711417212524,9065.109241146827
1711417212564,9469.314713534899
1711417212604,10319.940574360546
1711417212644,11135.638473693747
1711417212684,11589.958873120835
1711417212724,12620.854652805254
1711417212765,13470.281345791649
1711417212804,14887.152192332316
1711417212844,15471.728755421238
1711417212885,13948.870758755365
1711417212925,11329.591394832358
1711417212966,10027.780305437278
1711417213005,8574.673946436727
1711417213045,7630.974649169715
1711417213085,7893.926042953972
1711417213125,7709.394977522083
1711417213166,6979.068038752768
1711417213205,6387.797996720532
1711417213246,6672.319758587284
1711417213286,7235.498451478314
1711417213326,8329.791973637417
1711417213367,9348.641178124119
1711417213406,10171.060605308041
1711417213446,10879.05335216946
1711417213486,11198.001041101525
1711417213526,11982.03142813174
1711417213567,12801.141915060114
1711417213607,13270.745789766777
1711417213647,14230.970850933809
1711417213687,13525.72874190053
1711417213727,10705.88321938715
1711417213768,8624.114715367556
1711417213807,7578.784283146262
1711417213847,6832.044289364945
1711417213887,6737.123423135374
1711417213927,6920.566655386239
1711417213968,7414.281130311079
1711417214007,7291.0052099572495
1711417214048,7354.859113221057
1711417214088,7655.251906790305
1711417214128,8666.062525377609
1711417214169,8948.389940247405
1711417214208,9331.932573107071
1711417214248,9890.55982929375
1711417214288,10548.614551158156
1711417214329,11682.056654995307
1711417214369,12135.680385482032
1711417214409,13126.65799160488
1711417214449,14053.510756338015
1711417214489,14281.602600520477
1711417214529,11794.448457819875
1711417214570,9309.109007020947
1711417214609,8410.075332839042
1711417214649,7679.752305427566
1711417214690,6984.996185297146
1711417214730,6686.885976638645
1711417214771,6633.262606056873
1711417214810,5223.888793731574
1711417214850,5244.852908612229
1711417214890,5717.89581886027
1711417214930,6581.7975310841575
1711417214971,6726.481549595483
1711417215010,7616.796026204247
1711417215051,7950.770690241829
1711417215091,8293.671894905623
1711417215131,9240.523593991064
1711417215172,9787.646940002218
1711417215211,10301.841272289399
1711417215251,10261.394255648833
1711417215291,7846.308376329951
1711417215331,4501.220896124374
1711417215372,3110.1213605902158
1711417215412,2031.7595203910023
1711417215451,1071.7238836996257
1711417215492,1221.4965601922013
1711417215532,318.64726776536554
1711417215573,268.3215815834701
1711417215612,-482.6774631617591
1711417215652,-140.84789910493419
1711417215692,-190.3636171920225
1711417215732,879.1625156458467
1711417215773,871.8113234047778
1711417215812,1450.9255413706414
1711417215852,1952.4843177935109
1711417215893,2468.5721681043506
1711417215932,2949.276590384543
1711417215973,3835.4134856299497
1711417216013,2481.0695376675576
1711417216053,-304.98892431287095
1711417216093,-2807.224674804136
1711417216133,-4226.366258025635
1711417216174,-5530.5688179186545
1711417216213,-6582.762916678097
1711417216253,-6523.442761153914
1711417216293,-6950.117751447018
1711417216333,-7780.676778799854
1711417216374,-7805.5776987723075
1711417216413,-7415.335665320046
1711417216454,-6744.303524249699
1711417216494,-5883.566339997109
1711417216534,-5343.4686424694955
1711417216575,-4878.730124478228
1711417216614,-3540.5877009117976
1711417216654,-2931.5326535366476
1711417216694,-1769.0149060711265
1711417216734,-811.2843982586637
1711417216775,-1172.8788089998998
1711417216814,-3478.277386206202
1711417216855,-6657.763803807087
1711417216894,-8026.357584454585
1711417216935,-8951.31110972818
1711417216975,-9055.849726220593
1711417217015,-9429.36594822025
1711417217055,-9600.766939451918
1711417217095,-10668.967274856754
1711417217135,-10941.387146017514
1711417217176,-10687.345352514647
1711417217215,-10307.864911089651
1711417217255,-9130.293216051534
1711417217295,-8317.969979668036
1711417217336,-8174.549075199291
1711417217376,-6603.1011471468955
1711417217416,-5810.202370007522
1711417217456,-5595.887952329591
1711417217496,-4422.634224208072
1711417217536,-5498.232274184469
1711417217577,-8325.12930949498
1711417217616,-10752.144231505226
1711417217656,-12131.139410524629
1711417217696,-13095.074345819186
1711417217736,-13421.178863682784
1711417217777,-13743.067164639477
1711417217817,-13570.764477039222
1711417217857,-13374.378628581762
1711417217897,-12882.870088991243
1711417217937,-12038.36008367571
1711417217978,-11087.891757878708
1711417218017,-9416.284473492531
1711417218057,-8005.821323456941
1711417218097,-7483.465467728907
1711417218137,-6174.907681695651
1711417218178,-5158.044160287827
1711417218217,-4614.555094993673
1711417218258,-4264.294701833278
1711417218298,-7330.851377026644
1711417218338,-10459.957287275465
1711417218379,-12139.589581730776
1711417218418,-14120.539870796492
1711417218458,-15562.092134571634
1711417218498,-15824.067476319848
1711417218538,-16260.899852693314
1711417218579,-17077.615357992705
1711417218619,-17145.193021951243
1711417218659,-17498.04976964742
1711417218699,-16692.863312135916
1711417218739,-15073.620230201166
1711417218780,-13200.552245632512
1711417218819,-12323.297845109366
1711417218859,-11091.623592257267
1711417218899,-9934.910197864054
1711417218939,-8271.63437315682
1711417218983,-6535.069069720805
1711417219023,-7490.64929450769
1711417219063,-13076.632957686204
1711417219103,-14934.445400376339
1711417219143,-16716.90730074537
1711417219184,-19742.591962601524
1711417219223,-20584.119534366764
1711417219263,-20770.362474540947
1711417219303,-21011.83548375708
1711417219343,-21948.103186877444
1711417219384,-21615.448413468897
1711417219424,-20901.62438787287
1711417219464,-19435.755084572826
1711417219504,-17889.304574229987
1711417219544,-15892.409084034618
1711417219585,-13669.807754467474
1711417219624,-11815.626346072182
1711417219664,-10070.938872059342
1711417219704,-7914.199592407793
1711417219745,-6114.239500262076
1711417219785,-6520.8470177068375
1711417219825,-8844.61473277444
1711417219865,-11062.503685402684
1711417219905,-11756.046910681762
1711417219945,-11891.125637613703
1711417219986,-11914.279905229341
1711417220025,-11145.287111871876
1711417220065,-11094.570225467207
1711417220106,-11008.554015533067
1711417220146,-10772.810796430567
1711417220186,-9476.802063375711
1711417220226,-9118.220606074668
1711417220266,-8597.367252605502
1711417220306,-6469.270902983146
1711417220346,-3134.3007405414246
1711417220387,-3694.6994741302915
1711417220426,-2453.536582475994
1711417220467,136.8493345894385
1711417220507,1374.7180046173744
1711417220547,-5.273915137164295
1711417220588,-2431.53250743635
1711417220627,-2937.043886746047
1711417220667,-3133.8414114112966
1711417220707,-3665.766728298273
1711417220747,-3597.2751597038005
1711417220788,-2940.032290089177
1711417220828,-3144.1341589237563
1711417220867,-2926.493079026928
1711417220908,-2697.2031598438043
1711417220948,-1809.2647349075414
1711417220989,-773.5130974184722
1711417221028,720.3258254821412
1711417221068,2352.620880780276
1711417221108,3417.252635050798
1711417221148,5385.608375210781
1711417221189,6402.029058096232
1711417221229,6209.555393149378
1711417221269,4841.287517706398
1711417221309,2181.689227955416
1711417221349,-136.65237935003825
1711417221390,-554.9124146485701
1711417221429,-196.8150456752628
1711417221469,-719.4929957031272
1711417221509,-130.33412773441523
1711417221550,-409.6220199787058
1711417221590,301.2663674275391
1711417221630,1642.7504234805238
1711417221670,2333.5733513734303
1711417221710,3486.873684408143
1711417221750,4753.515667357715
1711417221791,4893.288810167927
1711417221830,6734.756802951684
1711417221871,7311.891753118485
1711417221911,8651.867542404449
1711417221951,7970.822015677579
1711417221992,9305.634032864124
1711417222031,5221.2783857425675
1711417222071,3556.393490004819
1711417222111,1112.4846409121528
1711417222152,829.7490562056191
1711417222192,1225.8312711091712
1711417222232,1156.238080411451
1711417222272,-165.03631775965914
1711417222312,-1654.6859697429463
1711417222352,-1875.1490040903445
1711417222393,-3207.457165632397
1711417222432,-5437.754747472238
1711417222473,-5320.730941128917
1711417222513,-6496.978958803695
1711417222553,-7474.758841450792
1711417222594,-7418.655757700093
1711417222633,-7631.436509840889
1711417222673,-5941.483668930596
1711417222713,-6910.054585559992
1711417222754,-8996.285053244792
1711417222794,-12467.054040405434
1711417222834,-15184.019586550072
1711417222874,-16948.297317576827
1711417222914,-18559.84051253507
1711417222954,-17500.49515093048
1711417222995,-19710.187410554616
1711417223034,-21279.39894920448
1711417223075,-19914.142869493226
1711417223115,-24182.856136159506
1711417223155,-25463.338932639454
1711417223195,-24998.63789319992
1711417223235,-26245.242978092283
1711417223275,-28586.83127937629
1711417223315,-28719.37747553643
1711417223355,-35140.297290991526
1711417223396,-38724.56378772389
1711417223435,-43232.51638026745
1711417223475,-45560.05854100315
1711417223515,-42342.472565541975
1711417223555,-33677.14801668888
1711417223596,-27833.050982159562
1711417223636,-22661.762758760713
1711417223676,-22552.418457109015
1711417223716,-27006.58423723001
1711417223756,-23043.433281677077
1711417223797,-16343.82517401455
1711417223836,-20353.87960677268
1711417223876,-32380.942073178012
1711417223916,-27337.837907284033
1711417223956,-17043.28556544287
1711417223997,-8879.122742382344
1711417224036,-9495.691287072841
1711417224077,-12318.850018595345
1711417224117,-6956.809466342442
1711417224157,-290.37828461756
1711417224198,3776.3934389357455
1711417224237,4313.569455777295
1711417224277,8372.290333164856
1711417224317,11167.68604164035
1711417224357,11943.117074786453
1711417224398,22036.012087520678
1711417224438,28797.033253337722
1711417224477,31276.40810764348
1711417224518,37265.4924039708
1711417224558,38163.81824694341
1711417224598,39071.20033769496
1711417224638,43216.97183258482
1711417224678,48329.10085097933
1711417224718,53833.8396764053
1711417224758,54853.88289746083
1711417224799,51197.1120261827
1711417224838,41818.751452589175
1711417224878,35918.89816989517
1711417224919,28842.498707018793
1711417224959,27565.87099820841
1711417225000,31617.792547391728
1711417225039,28564.52594551444
1711417225079,23697.204068524297
1711417225119,28522.2526574987
1711417225159,43571.39805711759
1711417225200,41860.18698960217
1711417225239,32650.733366033994
1711417225280,28613.541897987947
1711417225320,33031.190574005945
1711417225360,38142.09221039107
1711417225401,39504.38681712444
1711417225440,37762.37807107065
1711417225480,35470.371613701805
1711417225520,35118.6260070845
1711417225560,33405.66634232877
1711417225601,34588.47259433777
1711417225641,35033.45034285076
1711417225680,28505.31742371712
1711417225721,27909.996382288868
1711417225761,28822.0314149966
1711417225801,27098.678153910907
1711417225841,25776.888655828778
1711417225881,26334.11585706612
1711417225921,26365.652805022895
1711417225961,25942.194238926983
1711417226002,24619.30707834824
1711417226041,25027.291578916367
1711417226081,24255.126899077557
1711417226122,24767.333195255836
1711417226162,25712.10639733821
1711417226202,26744.155360602308
1711417226242,27174.651304803323
1711417226282,27915.024518643506
1711417226322,26937.07322775293
1711417226362,24753.633722076192
1711417226403,23174.681410217658
1711417226442,21019.76944154175
1711417226483,19701.04538037721
1711417226523,19658.077089770697
1711417226563,19619.718729533255
1711417226604,18641.702457272913
1711417226643,18765.18794369418
1711417226683,18233.161257548258
1711417226723,18546.068621894345
1711417226763,19621.22269157134
1711417226804,18356.892135709524
1711417226844,19270.19018536154
1711417226883,19341.42815546645
1711417226924,19045.444802789018
1711417226964,20958.127697045915
1711417227005,20589.895975252148
1711417227044,20368.094457875006
1711417227084,19217.425975795835
1711417227124,17040.400012643542
1711417227164,14301.656491368078
1711417227205,13043.231438301504
1711417227244,12463.31559852045
1711417227284,12532.351827401668
1711417227325,12569.758448555134
1711417227365,12877.88802284468
1711417227405,13988.626512475312
1711417227445,12734.851273517124
1711417227485,12104.263653289061
1711417227525,12475.2989368774
1711417227565,12308.703457674943
1711417227606,12629.97487685224
1711417227645,13122.864848213736
1711417227686,13515.093354509212
1711417227726,13764.647907737643
1711417227766,13569.280530655757
1711417227807,12227.79799726
1711417227846,8460.555927449837
1711417227886,6892.647628140636
1711417227926,6355.934496227186
1711417227966,5559.997937436216
1711417228007,5251.805205887649
1711417228047,4990.25102350954
1711417228087,5604.96317453403
1711417228127,5340.118755965959
1711417228167,6294.50333510479
1711417228208,6658.978912089951
1711417228247,6626.928308421746
1711417228287,6431.956241045147
1711417228327,7446.037603765726
1711417228367,8344.170268959831
1711417228408,8918.489239547402
1711417228448,9881.367642342113
1711417228488,8296.211558807641
1711417228528,4693.079408951104
1711417228568,652.4769317107275
1711417228609,-1062.7396698114462
1711417228648,-3582.643205098808
1711417228688,-6399.110780131072
1711417228728,-6798.076930232812
1711417228768,-7835.285305514
1711417228809,-9133.408358958084
1711417228849,-8256.370222387835
1711417228889,-8701.32203241717
1711417228929,-9055.755896971561
1711417228969,-8102.785247925669
1711417229010,-7885.621412735898
1711417229049,-7343.887537282892
1711417229089,-6874.365172382444
1711417229130,-5540.417636136524
1711417229169,-5216.386232638732
1711417229210,-6483.091644470114
1711417229250,-10827.19048643671
1711417229290,-14049.79058614932
1711417229330,-15094.63620804064
1711417229370,-14341.111289996654
1711417229411,-14422.597771940753
1711417229450,-14505.667269903235
1711417229491,-16002.177175678778
1711417229531,-15159.959148774855
1711417229571,-13916.101956347935
1711417229612,-13909.753705115058
1711417229651,-12747.440552140586
1711417229691,-12327.066432858352
1711417229731,-11832.811488406267
1711417229771,-10519.064284763299
1711417229812,-9082.639724865556
1711417229852,-8355.401155067608
1711417229892,-7123.480766885914
1711417229932,-10874.681658950634
1711417229972,-14977.730561173055
1711417230013,-16435.556327863596
1711417230052,-17700.247751377523
1711417230092,-17184.33955002902
1711417230132,-16986.9510217309
1711417230172,-17412.20098082535
1711417230213,-16354.949518892914
1711417230252,-17546.924317721277
1711417230293,-16305.765292491764
1711417230333,-14666.799567381851
1711417230373,-14726.000041266903
1711417230414,-12306.83214654075
1711417230453,-10570.256927181035
1711417230493,-10016.848884340376
1711417230533,-7995.108172279317
1711417230574,-7505.77144051902
1711417230614,-12050.013743112795
1711417230654,-16161.169024091214
1711417230694,-19596.909145723097
1711417230734,-20148.80316648446
1711417230774,-18596.566102063283
1711417230815,-19059.41829954926
1711417230854,-19880.12609240692
1711417230894,-18800.635715923272
1711417230934,-19176.548896286637
1711417230974,-17606.06791970646
1711417231013,-16707.796098787338
1711417231052,-14879.5974121443
1711417231092,-14026.199718407355
1711417231132,-12079.864327551797
1711417231173,-12328.757748111151
1711417231213,-14875.329360766336
1711417231253,-18183.37561695045
1711417231293,-20705.419504333753
1711417231333,-21440.857395432424
1711417231373,-22601.00316731399
1711417231414,-22187.12375497748
1711417231453,-22067.07097610319
1711417231493,-22544.73015769408
1711417231533,-21440.217538586352
1711417231573,-21044.25097004464
1711417231614,-20235.41226313333
1711417231654,-17521.76389330253
1711417231693,-17372.615930991247
1711417231734,-15362.81269875681
1711417231774,-13289.332522776444
1711417231814,-11412.939735696651
1711417231854,-11911.364829902304
1711417231894,-15064.503487503622
1711417231934,-19182.13907764433
1711417231974,-20749.41720525641
1711417232015,-20915.593760448042
1711417232054,-21478.693919719895
1711417232094,-21434.46638840367
1711417232134,-21254.993959735148
1711417232174,-20839.206638599746
1711417232215,-20010.993762878934
1711417232255,-19296.819812740432
1711417232295,-17227.577484215843
1711417232335,-15599.103734312812
1711417232375,-14043.941205007955
1711417232416,-11738.175749208545
1711417232455,-9469.171576518565
1711417232495,-7157.816650931723
1711417232535,-5608.364982255502
1711417232575,-8003.895971199963
1711417232616,-11186.38866139995
1711417232655,-12824.828291500919
1711417232696,-13265.24470953457
1711417232736,-12992.382960166316
1711417232776,-12570.212723143632
1711417232816,-11999.610689161113
1711417232856,-11743.78128875047
1711417232896,-11323.92258685315
1711417232936,-10429.924546415219
1711417232976,-8468.283178399084
1711417233017,-7442.033597008325
1711417233056,-5585.963564552832
1711417233097,-3691.0721556902863
1711417233136,-2325.6718578501604
1711417233177,-626.0736891282722
1711417233218,908.5984213706106
1711417233257,253.9723527985625
1711417233297,-2420.8254496408626
1711417233337,-4385.732037975453
1711417233377,-4852.2817428861745
1711417233418,-4437.035463932203
1711417233457,-4028.7287170239724
1711417233497,-3041.743919927394
1711417233537,-2554.99255523202
1711417233578,-2695.475653013913
1711417233618,-1712.3221078575589
1711417233658,-717.8134118539747
1711417233698,823.8128597149625
1711417233738,2012.5860561453737
1711417233778,2982.546041372232
1711417233819,4783.997736799298
1711417233858,6110.978469389491
1711417233898,7311.350358038209
1711417233938,8656.627483503427
1711417233978,6577.120858982438
1711417234019,3596.5399913548026
1711417234059,2015.5140791162848
1711417234099,1332.5024745916016
1711417234139,610.8124676430598
1711417234179,1346.2116112103686
1711417234220,1257.1891026336234
1711417234259,1310.395507037174
1711417234299,1761.2255778433755
1711417234339,2444.9578835316934
1711417234379,3230.747709535761
1711417234420,4557.520667892881
1711417234459,6103.603206032421
1711417234499,7700.855469937436
1711417234540,9378.053909373935
1711417234580,10107.026367838494
1711417234621,11310.30612463504
1711417234660,12383.95750953164
1711417234700,10373.893668454606
1711417234740,7321.304993471131
1711417234780,5565.049359171651
1711417234821,4867.6456357985735
1711417234860,4413.951738808537
1711417234901,4995.018538755365
1711417234941,5605.06238656817
1711417234981,5329.345665448578
1711417235022,5473.587884656386
1711417235061,6105.542754849885
1711417235101,6969.818809678778
1711417235141,8333.937695593107
1711417235181,9531.982391528785
1711417235222,10820.23683878337
1711417235262,11771.792972484604
1711417235301,13002.623404108454
1711417235342,13976.747944988543
1711417235382,15097.201895205071
1711417235422,15475.46598516847
1711417235462,13477.073666218901
1711417235502,11496.239016701235
1711417235542,10504.305128958076
1711417235582,10110.395205314737
1711417235623,9896.625383787788
1711417235662,10309.884151343256
1711417235702,10398.192305880133
1711417235743,10258.080355214886
1711417235783,10381.12817525398
1711417235823,10711.240043789148
1711417235863,11752.729297258426
1711417235903,12652.687870355789
1711417235943,13603.60468963813
1711417235983,14085.925865169615
1711417236024,15179.130558334058
1711417236063,16068.280499395914
1711417236103,16993.592954760883
1711417236144,17734.61076823715
1711417236184,15926.321214861237
1711417236225,13509.2944155843
1711417236264,12172.490825239569
1711417236304,11817.488264343236
1711417236344,11781.534714637324
1711417236384,12014.55220717378
1711417236425,12382.489989549387
1711417236465,12101.026589916786
1711417236504,11575.484052186366
1711417236545,12141.86587125156
1711417236585,12376.546943988651
1711417236625,12941.165884635644
1711417236665,14165.866929178592
1711417236705,14951.774791274453
1711417236745,15046.648258786183
1711417236785,15692.041078142589
1711417236826,16338.060002044309
1711417236865,16994.700220085215
1711417236906,16951.86314665433
1711417236946,14247.287359114736
1711417236986,11552.155072159134
1711417237027,10483.40363701433
1711417237066,9812.119183334522
1711417237106,9800.875800509006
1711417237146,9586.347755484283
1711417237186,9725.12689105887
1711417237227,9134.104046068154
1711417237266,9857.492152015679
1711417237307,10591.315324432682
1711417237347,10912.504632544704
1711417237387,11428.083901603706
1711417237428,11787.966969715897
1711417237467,12534.353870035615
1711417237507,13471.626385319512
1711417237547,13741.239898629952
1711417237587,14486.881586787757
1711417237628,15301.354668479413
1711417237668,14918.22112052096
1711417237708,11943.938027016353
1711417237748,9204.30317248404
1711417237788,8131.112546610646
1711417237829,7326.988328195643
1711417237868,6749.8470575567335
1711417237909,6342.269045795314
1711417237949,5663.8196015022695
1711417237989,5354.198286756873
1711417238030,5145.131674527191
1711417238069,5277.8538493164815
1711417238109,6174.6492906077765
1711417238149,6648.512704123743
1711417238189,7004.5775692705065
1711417238230,7936.760779974982
1711417238270,8891.206744663883
1711417238310,9471.307624864392
1711417238350,10549.109237330966
1711417238390,10977.463196283206
1711417238431,11712.182734198868
1711417238470,9600.634174797684
1711417238510,7290.410672586411
1711417238550,5007.340621555224
1711417238591,3230.59872525651
1711417238631,2368.256958351936
1711417238671,1955.3787597771734
1711417238711,1819.1977806077339
1711417238751,664.8723614001647
1711417238791,-35.39373935805634
1711417238832,51.74205595580861
1711417238871,374.8001703117043
1711417238911,1060.149553405121
1711417238951,1223.3133689430542
1711417238991,2122.651350930333
1711417239032,2693.5356875834987
1711417239071,3553.42100231722
1711417239111,4259.894678592682
1711417239151,4845.973250492476
1711417239192,6188.911195791792
1711417239235,6432.831939468626
1711417239272,4464.548039431218
1711417239312,1703.6755864336155
1711417239352,407.624875028152
1711417239392,-1645.5475959461182
1711417239433,-1739.8594290534966
1711417239472,-1536.0778717137873
1711417239512,-1821.7080868519843
1711417239552,-2873.9836158347316
1711417239593,-2488.1032062633894
1711417239633,-2678.2278774804436
1711417239673,-2325.4281980190426
1711417239713,-2104.729726855643
1711417239753,-1142.2139389691874
1711417239793,-626.6545590073802
1711417239834,73.24387181922793
1711417239873,748.8517433665693
1711417239913,1591.0002186177298
1711417239953,2423.6659698020667
1711417239993,2730.6396007090807
1711417240034,722.1558894934133
1711417240073,-1530.69433790911
1711417240113,-3301.787616780959
1711417240153,-4212.036913303658
1711417240194,-5000.5709829838015
1711417240234,-5333.510205579922
1711417240274,-5547.83556293603
1711417240314,-5739.618530695327
1711417240354,-6364.485104406718
1711417240394,-5918.897521844599
1711417240435,-5301.164112851489
1711417240474,-4175.264790461864
1711417240514,-3363.746326763183
1711417240554,-2531.390846868977
1711417240594,-1342.2696743467823
1711417240635,-947.8884283676744
1711417240675,-352.4516113442369
1711417240715,-1851.3070983840153
1711417240755,-5132.078249596059
1711417240795,-7599.28992125066
1711417240836,-8147.94887938723
1711417240875,-9003.050466530956
1711417240915,-8953.73203295283
1711417240955,-9505.507781697903
1711417240995,-10149.377270790283
1711417241036,-11018.311567221768
1711417241075,-10803.235181797761
1711417241115,-10072.962478608824
1711417241156,-9167.478614071384
1711417241196,-8869.045727938414
1711417241236,-8384.004933251534
1711417241276,-7729.572066661902
1711417241316,-6477.028819192201
1711417241356,-8590.029096913524
1711417241396,-11569.53846219182
1711417241440,-13897.442745239008
1711417241476,-14399.797143662348
1711417241516,-14831.436113719828
1711417241556,-15148.722239108756
1711417241596,-15565.842491859104
1711417241637,-15901.750745644793
1711417241677,-16275.048794182017
1711417241717,-15960.934510378633
1711417241757,-15733.586068588775
1711417241797,-14721.594600343145
1711417241838,-13716.951124172192
1711417241877,-12752.062941942364
1711417241917,-11816.622775533237
1711417241957,-10485.016222594306
1711417241998,-11225.337040439248
1711417242038,-13879.756603316171
1711417242078,-16830.011671114713
1711417242118,-19146.7221508394
1711417242158,-20734.891370015685
1711417242198,-21565.120268765604
1711417242239,-21959.98408617126
1711417242278,-21287.481227960903
1711417242318,-21401.331620442914
1711417242358,-21166.54676291207
1711417242398,-20657.58253427269
1711417242439,-19800.415025043767
1711417242479,-18252.056665757904
1711417242519,-17110.56623963313
1711417242559,-15096.860666157212
1711417242599,-13702.055991422385
1711417242640,-12161.010593646206
1711417242679,-10390.854614746058
1711417242719,-11208.138666463085
1711417242759,-15269.811461104546
1711417242799,-17779.9112829566
1711417242840,-19470.53590152762
1711417242880,-20050.13265821943
1711417242920,-20322.238203462213
1711417242960,-19775.858283817302
1711417243000,-19063.55963354651
1711417243041,-18670.387747477274
1711417243080,-18039.471083493903
1711417243120,-17361.565181450685
1711417243160,-16140.561891207471
1711417243201,-14379.691837756429
1711417243241,-12561.719342488796
1711417243281,-10756.527590638027
1711417243321,-9220.721044461709
1711417243361,-7063.4354425931815
1711417243401,-5067.814079092117
1711417243442,-3346.225744475145
1711417243481,-1545.2760100734886
1711417243521,-1630.110574227292
1711417243562,-4849.381586238276
1711417243602,-6919.016776347067
1711417243642,-8006.0284835731145
1711417243682,-8909.64569858159
1711417243722,-8949.997918576468
1711417243762,-8581.920289868722
1711417243802,-8221.491832295898
1711417243843,-8232.598634354537
1711417243882,-7642.275175967719
1711417243923,-6219.611723174341
1711417243963,-5074.6771099991165
1711417244003,-3468.8104349412024
1711417244044,-1947.2286920205224
1711417244083,-573.0217189535033
1711417244123,860.0750719108619
1711417244163,1798.078526317142
1711417244203,3585.5433301357552
1711417244244,4968.342731449753
1711417244284,6480.305240544025
1711417244324,8424.460875481833
1711417244364,9120.391570943408
1711417244404,7297.030554667814
1711417244445,5217.140373795759
1711417244484,3824.894494584296
1711417244524,3522.950112798717
1711417244564,3527.4572250025813
1711417244604,3853.955910611199
1711417244645,4301.02324171178
1711417244685,4367.616767796222
1711417244725,5377.027312238701
1711417244765,5833.413604215486
1711417244805,7033.972930629039
1711417244846,8455.154478510143
1711417244885,9787.34547611815
1711417244925,10921.07112645777
1711417244965,11777.216165409889
1711417245006,13128.707041343208
1711417245046,14331.752319245832
1711417245086,15738.645692311693
1711417245126,17224.19043102069
1711417245166,18252.065374888014
1711417245206,18988.050977132283
1711417245247,17622.86773625831
1711417245286,14992.340105515206
1711417245326,14559.33820497198
1711417245367,13588.982507384382
1711417245407,13224.00248564221
1711417245448,13802.07091361098
1711417245487,13884.048356282292
1711417245527,13686.615404926473
1711417245567,13765.153435295215
1711417245607,13802.912079392932
1711417245648,14354.194814066868
1711417245687,14990.94286864344
1711417245728,15813.12832967774
1711417245768,16772.363656146452
1711417245808,17413.45485332422
1711417245849,18247.711203687126
1711417245888,19123.143678779947
1711417245928,19505.64498343179
1711417245968,20313.86913763685
1711417246008,20679.884176285937
1711417246049,20380.433212847915
1711417246089,17918.294868177036
1711417246129,15989.96860933816
1711417246169,15015.47796758404
1711417246209,14395.162708986783
1711417246250,14619.460980291711
1711417246289,14403.65819988586
1711417246329,13910.267681664089
1711417246369,13621.435403761687
1711417246409,13690.084560384508
1711417246450,14280.668642622419
1711417246490,14921.919846191071
1711417246530,15379.587111530825
1711417246570,16193.667142940685
1711417246610,16013.82438781485
1711417246651,18688.587047790177
1711417246690,19627.213757262565
1711417246730,19990.36848744657
1711417246770,20391.284935560077
1711417246810,19883.164762226865
1711417246851,17515.093202780467
1711417246890,14955.068814164959
1711417246931,13411.274710440077
1711417246971,12657.878170222975
1711417247011,12059.500932730734
1711417247051,11768.169202447869
1711417247091,11477.089406435844
1711417247131,10678.161362004
1711417247171,10133.559919988737
1711417247211,10257.277650843374
1711417247252,10809.424819789827
1711417247291,11392.932881039102
1711417247331,11950.12147951359
1711417247371,12360.526998046786
1711417247411,12868.556075277273
1711417247452,13239.104144722223
1711417247491,13765.703268518671
1711417247532,14278.184137310833
1711417247572,15057.054057052359
1711417247612,15840.56527632149
1711417247653,13757.717450694181
1711417247692,10563.434096339159
1711417247732,8608.883687715512
1711417247772,7474.358802862
1711417247812,6794.245496948715
1711417247853,6239.906144417822
1711417247892,5941.126754990313
1711417247932,5415.2590565630235
1711417247972,5000.357434194069
1711417248013,5029.473736346699
1711417248053,5349.508544653654
1711417248093,5755.140695729759
1711417248133,6331.087383048609
1711417248173,7394.832842261996
1711417248213,8045.1828625248745
1711417248254,8500.515721575823
1711417248293,9349.151298055425
1711417248333,9720.711750613991
1711417248373,10115.874825132545
1711417248413,10695.647255849093
1711417248454,11183.490250831936
1711417248494,9599.627522532828
1711417248533,6718.241836466361
1711417248574,4722.268439214211
1711417248614,3313.728458588943
1711417248654,2639.5163228120655
1711417248694,2690.170875240583
1711417248734,2541.626764229499
1711417248774,2180.2204856262542
1711417248814,1829.578254188411
1711417248855,1614.0329953818582
1711417248894,1327.2144216839224
1711417248934,2007.511429705657
1711417248974,3606.4804967949167
1711417249014,3643.297466741875
1711417249055,4117.703323143534
1711417249095,4967.3956651147455
1711417249135,5671.930184685625
1711417249175,6774.162430079188
1711417249215,7801.793952405918
1711417249255,8554.37659103144
1711417249295,8558.962845946196
1711417249335,5958.779976337217
1711417249375,2731.558001807425
1711417249415,685.4033677233383
1711417249456,-730.958147005178
1711417249495,-1286.796515592374
1711417249535,-1566.1367005482316
1711417249576,-2155.077885793522
1711417249616,-2860.501678884495
1711417249656,-3422.9180695931427
1711417249696,-2775.898128678091
1711417249736,-2219.5757744880393
1711417249776,-1782.4360225875862
1711417249816,-1118.2963378010318
1711417249857,-460.2270594239235
1711417249896,-121.38935157749802
1711417249936,381.42477807961404
1711417249976,828.2400208991021
1711417250017,1169.6845088154078
1711417250057,2415.0658294130117
1711417250097,2190.894946002867
1711417250137,-757.5822624005377
1711417250177,-3038.1074196402915
1711417250217,-5034.8890892490745
1711417250258,-6359.448621065356
1711417250297,-6628.8231815239415
1711417250337,-6898.91665106453
1711417250377,-7452.014658931643
1711417250418,-8383.789041898213
1711417250458,-9026.305642081425
1711417250498,-9466.067853700835
1711417250538,-9289.529457889497
1711417250578,-8297.893461975269
1711417250618,-7419.627127299085
1711417250659,-6505.804398244247
1711417250698,-5733.336742571089
1711417250738,-5006.159008433111
1711417250778,-4260.279082044028
1711417250819,-3496.655984034296
1711417250859,-5019.848047785461
1711417250899,-8159.538198438007
1711417250939,-10140.600496854633
1711417250979,-11837.055498927366
1711417251019,-12945.699821589515
1711417251060,-13111.990433235653
1711417251099,-13480.310786641203
1711417251139,-14501.4168148865
1711417251179,-15020.319868636783
1711417251219,-15380.125826173462
1711417251260,-15109.504517251626
1711417251300,-14047.08687922312
1711417251340,-13808.68227049848
1711417251380,-12383.4126799535
1711417251420,-11616.553804400843
1711417251461,-10663.15293136891
1711417251500,-9325.267473756336
1711417251540,-8165.443020115141
1711417251580,-7981.379762536846
1711417251620,-10903.929291483946
1711417251661,-14231.508875198662
1711417251700,-15708.21079265885
1711417251740,-16883.950800989754
1711417251780,-17495.891104522627
1711417251821,-17563.630142804235
1711417251861,-17949.925786363427
1711417251901,-18582.7735017878
1711417251941,-19273.519006900955
1711417251981,-18987.83732132055
1711417252021,-18027.701642454136
1711417252062,-17028.848952412605
1711417252101,-16203.183605124243
1711417252141,-15107.31673177192
1711417252181,-14170.577271603048
1711417252222,-12833.85771919787
1711417252262,-11321.603690899909
1711417252302,-10091.76470570499
1711417252342,-10496.455666869879
1711417252382,-13107.823145989794
1711417252422,-15382.978166016284
1711417252463,-16768.988654154353
1711417252502,-17625.707510575652
1711417252542,-18102.16514431499
1711417252582,-18073.045746238902
1711417252622,-17882.152623931644
1711417252663,-18124.40092372615
1711417252703,-18039.12258292851
1711417252743,-17322.414879171643
1711417252783,-16590.498635099735
1711417252823,-15539.199568931945
1711417252864,-14141.874980437104
1711417252903,-13055.611415793188
1711417252943,-11776.149369130377
1711417252983,-10149.682523372583
1711417253023,-8908.075615469832
1711417253064,-7969.276802119566
1711417253104,-6908.193642099854
1711417253144,-7574.455254853936
1711417253184,-10398.445573201869
1711417253224,-11200.593722959515
1711417253265,-11620.373714334331
1711417253304,-12444.295124974567
1711417253344,-12024.710279434454
1711417253384,-11578.830477949232
1711417253425,-11542.278463939438
1711417253465,-11320.911521692295
1711417253505,-10851.532277134713
1711417253545,-9525.011446751188
1711417253585,-8251.11522697471
1711417253625,-7100.755961049814
1711417253666,-6020.5076455164235
1711417253705,-4800.54467609711
1711417253745,-2929.1060489607044
1711417253786,-1683.286933641415
1711417253826,-567.6652326083276
1711417253866,1354.4957390888594
1711417253906,1679.1109429979697
1711417253946,-44.771120503079146
1711417253986,-2105.924094047863
1711417254026,-2965.479732172098
1711417254067,-2836.6107782230247
1711417254106,-2842.284477927955
1711417254147,-2413.0672333077528
1711417254187,-2060.2881227538455
1711417254227,-1895.3819579347037
1711417254267,-2221.0943069956265
1711417254307,-1157.185557744
1711417254347,478.3605783318635
1711417254387,2122.4614885549527
1711417254427,3019.524519602768
1711417254468,4360.601787684485
1711417254508,5275.343609085772
1711417254547,5969.38989800564
1711417254588,7541.892923696898
1711417254628,8162.759742763592
1711417254668,9525.226427908055
1711417254708,9137.25023130048
1711417254748,6896.656311949249
1711417254788,5435.976447796682
1711417254828,4365.485432869755
1711417254869,4504.986423501745
1711417254909,4707.410076677334
1711417254949,5037.212659016252
1711417254989,4738.659795034444
1711417255029,4412.790123990271
1711417255119,4911.3944787499495
1711417255158,5415.224496586248
1711417255198,5677.14904625481
1711417255238,7482.461888320744
1711417255278,8592.979262063978
1711417255319,9846.05605965387
1711417255358,10236.74706720747
1711417255399,10986.987416223856
1711417255438,11734.392301613
1711417255479,12543.441778060282
1711417255520,12712.826646633912
1711417255559,11079.681239306461
1711417255599,9570.472112761345
1711417255639,7936.39876283356
1711417255679,7189.667176388437
1711417255720,6562.204797764774
1711417255759,5936.887961420696
1711417255799,6286.206688600127
1711417255840,6264.633154117502
1711417255880,6433.4830599548295
1711417255920,6539.220557967201
1711417255960,6783.395353412721
1711417256000,7608.322996669449
1711417256040,7679.593159726821
1711417256080,8527.720781667158
1711417256121,9341.127001516288
1711417256160,10438.913634819444
1711417256200,10500.286297245417
1711417256241,11112.675644271309
1711417256281,11955.290430115536
1711417256321,12071.893706412055
1711417256361,10560.906902529765
1711417256401,8832.192182931118
1711417256441,7978.5003315825015
1711417256481,7564.40951586375
1711417256522,6392.926875226665
1711417256561,6441.742305599619
1711417256602,5829.6135186562315
1711417256642,6272.44329359103
1711417256682,6023.012197936885
1711417256723,6605.7050402802415
1711417256762,7065.5751770297065
1711417256802,7668.129067336675
1711417256842,8280.256077755243
1711417256882,8672.522635980975
1711417256923,9390.81904671155
1711417256962,10047.671595772263
1711417257002,11363.25712771155
1711417257042,12577.268205432687
1711417257083,12876.569042662624
1711417257123,12833.807052241638
1711417257163,11178.637278374285
1711417257203,9317.596665600315
1711417257243,8195.132359734736
1711417257283,7356.759401851334
1711417257324,7206.094008652959
1711417257363,6971.642860101536
1711417257403,6550.147299978882
1711417257444,6203.879055346828
1711417257484,6269.722681678832
1711417257524,6325.309172815643
1711417257564,6643.770205018111
1711417257604,7082.113341267221
1711417257644,7289.737595939543
1711417257684,7953.172937382013
1711417257725,8563.072350184899
1711417257764,9075.261570103
1711417257804,10036.305914530065
1711417257844,10395.178930627182
1711417257885,12015.606483066455
1711417257926,10755.339375376701
1711417257965,7729.2232136223465
1711417258005,5926.662409385666
1711417258045,4921.293304755818
1711417258085,4576.161278885324
1711417258126,4106.791067594662
1711417258165,3624.211315309629
1711417258205,3488.851983915083
1711417258245,3110.675022012554
1711417258286,2571.648312086705
1711417258326,2736.5287966215983
1711417258366,3427.0690199630335
1711417258406,4260.914982074872
1711417258446,4443.977269155439
1711417258486,4550.353459216654
1711417258527,5453.897918647155
1711417258566,6133.935125052463
1711417258606,6788.278114886023
1711417258647,7896.3344335453585
1711417258686,8739.410682558082
1711417258727,6643.736401930451
1711417258767,4089.0461268937215
1711417258807,2927.105378688313
1711417258847,1698.1614768700674
1711417258887,1269.4441141569987
1711417258928,563.832639505621
1711417258967,283.04720127861947
1711417259007,-182.55969678796828
1711417259047,-649.7385601699352
1711417259087,-626.666467756033
1711417259128,367.85723133943975
1711417259168,330.01319910399616
1711417259208,872.7631988502108
1711417259248,2250.9253769028
1711417259288,2252.044281770475
1711417259329,2616.9520230097696
1711417259368,3503.033065084368
1711417259408,4300.869291204028
1711417259449,5884.238392342348
1711417259489,5777.027354867198
1711417259529,3555.5618158839643
1711417259569,788.6150992829353
1711417259609,-349.41135025722906
1711417259649,-1205.8678013021126
1711417259689,-1968.2417792794295
1711417259730,-1887.9050770439208
1711417259769,-1898.4450867865235
1711417259810,-2313.984709624201
1711417259850,-2275.8658904451877
1711417259890,-2136.270068574697
1711417259931,-1905.4020506669767
1711417259970,-1617.2913353331387
1711417260010,-1024.6500548943877
1711417260050,-596.0429793517105
1711417260091,-94.9302739542909
1711417260131,1236.9771648058668
1711417260171,1677.6765976729803
1711417260211,2269.9486106983386
1711417260251,3704.619586301502
1711417260291,4020.356745859608
1711417260332,1726.1943884827197
1711417260371,-572.7047957247123
1711417260411,-1831.25528149819
1711417260452,-2767.107741427608
1711417260492,-3629.706055911258
1711417260532,-3448.4005073131993
1711417260572,-3107.893399089575
1711417260612,-3541.461870999541
1711417260652,-4250.699324316345
1711417260692,-3741.648313962389
1711417260733,-3951.8672982212156
1711417260772,-2943.0433395337313
1711417260813,-1734.919270919636
1711417260853,-839.9378464277834
1711417260893,-1348.9762828247622
1711417260934,-557.4312350070104
1711417260973,-19.16265787789598
1711417261013,809.0834672385827
1711417261054,638.5523403119296
1711417261093,-1648.9843563656323
1711417261134,-3874.0711193047464
1711417261174,-5649.907572776079
1711417261214,-6506.388715842739
1711417261254,-6902.850117707625
1711417261294,-6564.775369809475
1711417261335,-6879.3326488728635
1711417261374,-7239.239510466345
1711417261415,-7677.979962057434
1711417261455,-6841.328981759958
1711417261495,-5682.16306664329
1711417261536,-5497.0298031214625
1711417261575,-4914.799443677999
1711417261615,-3939.0552803874016
1711417261655,-3201.204908424057
1711417261695,-2515.5970406550914
1711417261736,-1491.809452526737
1711417261776,-926.4578959606588
1711417261816,-3192.5136363576166
1711417261856,-6225.374440547079
1711417261896,-7510.986113062128
1711417261937,-8118.354061724618
1711417261976,-8686.485710517969
1711417262017,-8154.357454750687
1711417262056,-8374.181090089958
1711417262097,-8993.20746966917
1711417262138,-9323.410757745616
1711417262177,-8387.126219552476
1711417262217,-7760.207822395023
1711417262257,-6644.384555410594
1711417262297,-5431.137551564258
1711417262338,-4540.514505577739
1711417262377,-3006.3915970809758
1711417262417,-2280.2714750450104
1711417262457,-794.0042942799628
1711417262498,-1233.1895733368583
1711417262538,-3610.422804391943
1711417262578,-6404.472052222118
1711417262618,-7688.910096602514
1711417262658,-9156.878227506764
1711417262698,-10622.037217895966
1711417262739,-11198.531432755757
1711417262778,-11945.184482506476
1711417262818,-12356.617316803895
1711417262858,-12254.585478422232
1711417262898,-11664.479646955617
1711417262939,-11073.077758988366
1711417262979,-11069.834603675641
1711417263019,-10261.305594705045
1711417263060,-9304.997464546934
1711417263100,-8867.41917731287
1711417263142,-7259.519252855331
1711417263181,-6458.5017747031525
1711417263221,-5364.716411941219
1711417263261,-4690.920417175628
1711417263302,-7260.339319979772
1711417263343,-10202.833208405413
1711417263382,-12186.517657198943
1711417263422,-13201.918591491878
1711417263463,-14056.559971461073
1711417263503,-14068.71957375016
1711417263544,-14322.617555799196
1711417263583,-14620.626360652735
1711417263623,-14409.659862379078
1711417263664,-14356.487882338464
1711417263704,-13750.818861635402
1711417263745,-13350.3551329677
1711417263784,-12369.845916802762
1711417263825,-11325.173994844547
1711417263865,-10309.24189257808
1711417263905,-9128.334129326278
1711417263946,-7554.393826325424
1711417263985,-5697.591394169256
1711417264026,-4242.737123939209
1711417264066,-2953.7296009939164
1711417264106,-4329.406086384552
1711417264147,-6919.2396117863245
1711417264187,-8907.581299666082
1711417264227,-9751.275165048428
1711417264267,-9652.64888496045
1711417264307,-9693.319271499524
1711417264348,-9753.277531349566
1711417264388,-9476.479281497654
1711417264428,-9557.200867794221
1711417264468,-9372.662881463766
1711417264508,-8640.153714865912
1711417264550,-7410.919397178106
1711417264589,-6017.99534377642
1711417264629,-5366.162496944424
1711417264670,-4181.84400672256
1711417264710,-3344.598148632329
1711417264751,-1819.1198901543394
1711417264790,-819.1549712335691
1711417264830,655.8813550379127
1711417264871,817.6826675836928
1711417264911,-1009.7464438318275
1711417264952,-3856.038586946437
1711417264991,-5139.848395395093
1711417265032,-5075.692991642281
1711417265072,-5267.744776285719
1711417265112,-5161.706067762338
1711417265153,-5315.400387043599
1711417265193,-5645.715835203882
1711417265233,-5591.611451669829
1711417265273,-5017.072126316372
1711417265313,-3714.3733810172416
1711417265354,-2598.129603551235
1711417265394,-1752.1822728880215
1711417265434,-1223.6496887328103
1711417265475,-256.611673186766
1711417265515,831.2098769694567
1711417265556,1726.7185775642283
1711417265595,3178.723669433035
1711417265636,4375.102088457439
1711417265676,2765.7891755914316
1711417265716,160.676611950621
1711417265757,-1354.140626176726
1711417265797,-1859.1315643691923
1711417265837,-2907.9467212529853
1711417265877,-2919.4999637675937
1711417265917,-2466.262836882379
1711417265958,-2446.5555640547536
1711417265998,-2958.1822676225565
1711417266038,-3090.2646686313674
1711417266078,-1980.2618856993504
1711417266118,-825.9784809947014
1711417266159,588.7475536712445
1711417266198,1612.3231108945329
1711417266239,3176.4184574775863
1711417266279,4507.263027785346
1711417266319,5140.701222930569
1711417266360,6698.598669321043
1711417266399,7572.373593435856
1711417266439,7310.029564321041
1711417266479,5282.0962184560485
1711417266519,2910.9145486583
1711417266560,1452.1189527909737
1711417266600,14.543284186162055
1711417266640,-340.68233209941536
1711417266680,-497.5859372303821
1711417266720,-318.3267088425346
1711417266761,-735.2803795228247
1711417266801,-1391.9446271779016
1711417266841,-961.6365339970216
1711417266881,-930.2299211693462
1711417266921,-240.13614781666547
1711417266963,690.4354646764696
1711417267002,1390.5430982206017
1711417267042,2502.88462318806
1711417267083,3353.6730702151544
1711417267123,4377.453485106584
1711417267162,5324.868585904129
1711417267201,6318.5847461316735
1711417267240,4740.94838841958
1711417267279,2309.7929932726547
1711417267318,686.6359521709383
1711417267357,-787.72483582329
1711417267396,-2079.3304763976485
1711417267435,-2582.5086475494318
1711417267474,-3131.0436146911234
1711417267513,-3509.5536721246317
1711417267552,-3864.1394698412623
1711417267591,-3659.9520319267176
1711417267630,-3257.713885717094
1711417267669,-2286.7562764119357
1711417267708,-1509.2459264222998
1711417267747,-1073.89110600017
1711417267786,-140.43556103832088
1711417267825,918.5301818591543
1711417267865,1636.1583416569047
1711417267905,2966.977614427218
1711417267945,3644.058862591861
1711417267985,1746.8768265123945
1711417268025,-753.9319183013868
1711417268065,-1680.124686173629
1711417268105,-2442.857212676201
1711417268145,-2775.202731756959
1711417268185,-2516.1980860522017
1711417268225,-2414.7342983102426
1711417268265,-2463.74463152932
1711417268305,-2570.66652948875
1711417268345,-2008.5831167986616
1711417268385,-543.7066456640605
1711417268425,426.82020718883723
1711417268465,1036.9960164027289
1711417268505,2261.586691136239
1711417268545,3173.866073951125
1711417268585,3763.3638111308683
1711417268625,4812.384185760748
1711417268665,3839.11287268484
1711417268705,1630.554051749874
1711417268745,-42.98846729914658
1711417268785,-1252.8375658157747
1711417268825,-1398.7727798391134
1711417268865,-1043.3044797643088
1711417268905,-1165.2704173980746
1711417268945,-870.1555758898612
1711417268985,-684.796954468824
1711417269025,-25.05308382632211
1711417269065,795.5790923528839
1711417269105,1631.7587254936807
1711417269145,2946.0299843358807
1711417269185,4151.8241503324825
1711417269225,4989.3628206551075
1711417269265,6201.522304802667
1711417269305,7481.88341361098
1711417269345,7354.147884513717
1711417269385,5356.3973158558365
1711417269425,3747.919550832361
1711417269465,2722.963428094052
1711417269505,2422.0212028133683
1711417269545,2953.1711694123223
1711417269585,3234.4336693179794
1711417269625,3067.86774088908
1711417269665,3253.871239539236
1711417269705,3604.8136553848162
1711417269745,4335.910020486917
1711417269785,5466.983564595692
1711417269825,6855.310904532671
