Timestamp,Cleaned_PPG
1710985789878,0.0
1710985789921,0.0
1710985789959,0.0
1710985789999,0.0
1710985790039,0.0
1710985790079,0.0
1710985790119,0.0
1710985790160,0.0
1710985790199,0.0
1710985790239,0.0
1710985790279,0.0
1710985790320,0.0
1710985790361,0.0
1710985790400,0.0
1710985790440,0.0
1710985790480,0.0
1710985790520,0.0
1710985790561,0.0
1710985790601,0.0
1710985790641,0.0
1710985790681,0.0
1710985790721,0.0
1710985790762,0.0
1710985790801,0.0
1710985790841,0.0
1710985790881,0.0
1710985790922,0.0
1710985790963,0.0
1710985791002,0.0
1710985791042,0.0
1710985791082,0.0
1710985791122,0.0
1710985791163,2144897.0
1710985791203,2008195.0336858963
1710985791243,1882887.061005429
1710985791283,1766429.238226846
1710985791323,1658676.178917515
1710985791364,1557832.6463585275
1710985791403,1462651.2422940503
1710985791443,1374511.1789457873
1710985791483,1290838.8270105477
1710985791523,1212539.1764545701
1710985791564,1138620.301004592
1710985791603,1068777.464570215
1710985791643,1003831.9175987365
1710985791684,940623.3668654284
1710985791724,882829.4594507376
1710985791765,827074.6721761525
1710985791804,777332.2372901083
1710985791844,725498.451500236
1710985791884,676214.5715253004
1710985791924,624351.4608251504
1710985791965,567854.0456962686
1710985792004,516092.5542583461
1710985792045,479535.44023000076
1710985792085,470226.5415237504
1710985792127,460724.1001609282
1710985792166,447158.4596836979
1710985792205,429323.4529719711
1710985792245,410826.73906327784
1710985792285,403154.8552509749
1710985792325,380707.2827944921
1710985792366,349457.62284097914
1710985792405,320397.63885257277
1710985792445,291871.18767911475
1710985792485,277715.49593494576
1710985792526,267909.76030895486
1710985792567,228128.69464853196
1710985792606,223522.96303354134
1710985792646,208152.26101218676
1710985792686,197085.48332590377
1710985792726,177302.24694245728
1710985792767,157473.6689332677
1710985792806,148352.4904883739
1710985792846,137358.21519065392
1710985792887,134642.81176874903
1710985792927,137841.70900835935
1710985792968,140389.15232134447
1710985793007,141422.93632384064
1710985793047,137708.97716420516
1710985793087,124540.62254767539
1710985793127,124497.92005466763
1710985793168,119927.47970347665
1710985793207,128492.37890310865
1710985793248,141699.10111153312
1710985793288,156491.81415503938
1710985793328,156561.92749323812
1710985793369,132117.1872264715
1710985793408,112092.09530643048
1710985793448,102739.53507052828
1710985793488,87451.44339108281
1710985793528,91628.42815804249
1710985793569,89281.43702544319
1710985793608,92557.83158210479
1710985793648,101851.16656559985
1710985793689,114841.80564888474
1710985793729,123878.35176653136
1710985793769,111817.40283207642
1710985793809,92956.79172297008
1710985793849,100838.77850059047
1710985793889,78570.64674049057
1710985793929,72515.55112632597
1710985793970,58435.85303848563
1710985794009,45973.47888786625
1710985794049,43900.87097900594
1710985794090,28617.983428989537
1710985794130,35976.74700613227
1710985794171,42554.58117790753
1710985794210,44508.99570815312
1710985794250,48980.225466735195
1710985794290,56741.761269195005
1710985794333,65179.596952663735
1710985794371,76782.1857062229
1710985794410,78989.18523505004
1710985794451,85806.62609034404
1710985794491,83110.89845052641
1710985794531,91358.56993715
1710985794572,92673.12131512631
1710985794611,85717.06141270185
1710985794651,80682.84046770632
1710985794692,75555.09758598357
1710985794731,70530.47698474908
1710985794772,69361.80063903984
1710985794812,59522.53561813198
1710985794852,53660.49441567436
1710985794892,47828.38770652935
1710985794932,38739.73718234245
1710985794973,18575.43347967649
1710985795012,10363.206291869283
1710985795053,8685.06977001112
1710985795093,6718.027856542729
1710985795133,6522.912486162968
1710985795174,12171.284233001992
1710985795213,11347.954294630792
1710985795253,15251.057072176598
1710985795293,15779.463467514608
1710985795333,7916.3508291095495
1710985795374,13932.717848226428
1710985795414,11665.293738206849
1710985795454,5158.57304478297
1710985795494,4673.993536463007
1710985795534,7653.873101607431
1710985795575,15726.3781670006
1710985795614,5647.823366010096
1710985795655,4354.816698567942
1710985795695,7904.550395253114
1710985795735,10292.602309806272
1710985795776,11970.966571351048
1710985795815,-199.91847648611292
1710985795855,-3365.0395584683865
1710985795895,1145.851211459376
1710985795935,1182.5895425956696
1710985795976,-5908.048842953518
1710985796016,-4549.229080901016
1710985796056,-2436.050188944675
1710985796096,3532.5073597356677
1710985796136,7781.117335170507
1710985796177,9185.627655833028
1710985796216,8932.612064898945
1710985796256,8192.91326478403
1710985796296,8277.14986121608
1710985796337,17764.61965405196
1710985796378,20540.109352890868
1710985796417,14550.293036019895
1710985796457,3852.9198997514322
1710985796497,-19566.473491306417
1710985796537,-2951.6551364301704
1710985796578,-1546.095648849383
1710985796618,6502.663720515557
1710985796658,7660.590371822007
1710985796698,6238.3473698487505
1710985796738,10843.042350970674
1710985796779,8477.38510949118
1710985796818,10532.307970518246
1710985796859,6525.875150760636
1710985796899,14060.762471098918
1710985796939,20249.554529817775
1710985796980,21720.17704281863
1710985797019,17620.780017173383
1710985797059,25048.342028571293
1710985797099,40535.86134489067
1710985797139,33539.22148580663
1710985797180,31172.85214468371
1710985797220,28293.866762339603
1710985797260,31833.352833214216
1710985797300,35090.49320977088
1710985797340,30239.088292699307
1710985797381,28356.79210422095
1710985797420,26122.702085273806
1710985797461,23731.929206840694
1710985797501,24975.321483187377
1710985797541,21275.7896623048
1710985797582,14457.435589516535
1710985797621,8449.303266953211
1710985797661,5065.541665621102
1710985797701,-2321.7932486617938
1710985797741,3751.6371875032783
1710985797782,22901.437303773127
1710985797821,9183.548806483857
1710985797861,389.99693191982806
1710985797901,-4132.8598117642105
1710985797942,2494.7084830515087
1710985797982,14097.623457283713
1710985798022,14788.162092323415
1710985798062,18219.717260173056
1710985798102,20487.99326686375
1710985798142,21520.630330262706
1710985798183,27475.880749817006
1710985798222,28924.487264136784
1710985798262,29939.918608165346
1710985798302,35421.9064431726
1710985798342,26434.286115901545
1710985798383,22564.42447692994
1710985798423,20621.25439450983
1710985798463,17113.335281826556
1710985798503,15493.224982609041
1710985798543,12558.814695509616
1710985798584,7256.355657295324
1710985798623,2286.3655441491865
1710985798663,4570.037593313493
1710985798703,11484.777711699717
1710985798743,14584.37791956868
1710985798784,-174.10895313695073
1710985798824,-18596.4308851948
1710985798864,-26300.3661979232
1710985798904,-32740.056897859555
1710985798944,-56286.93276851671
1710985798985,-76227.65708783409
1710985799024,-75837.03996751225
1710985799064,-86634.7706662789
1710985799104,-80855.09438671684
1710985799144,-84192.56579223089
1710985799185,-84068.75710807228
1710985799224,-93361.48813449964
1710985799265,-100671.46550105372
1710985799305,-88744.80745864753
1710985799345,-80097.78658857383
1710985799386,-67380.68639572151
1710985799425,-63891.76807550993
1710985799465,-68629.5178301651
1710985799505,-72704.07239926048
1710985799545,-76463.76052302308
1710985799586,-70526.28089083359
1710985799626,-68076.68972248957
1710985799666,-63072.30931959115
1710985799706,-57512.39844452776
1710985799746,-52813.588671875186
1710985799787,-51779.500969714485
1710985799826,-49074.13605051488
1710985799866,-49115.60307672247
1710985799906,-41109.511263906024
1710985799946,-42777.10509138182
1710985799987,-48869.04100819817
1710985800027,-49587.92329490371
1710985800067,-48889.86538691074
1710985800107,-43829.77220846061
1710985800147,-50924.55420640949
1710985800188,-55529.80486629903
1710985800227,-47852.715169445146
1710985800267,-49712.942719739396
1710985800307,-70063.40503752325
1710985800348,-62622.28231908847
1710985800388,-69348.12936685653
1710985800428,-63843.72755741421
1710985800468,-58477.16657930659
1710985800508,-50861.407657266594
1710985800548,-42919.53176738601
1710985800589,-43425.38098584395
1710985800628,-37759.30363420211
1710985800669,-44454.83708715532
1710985800709,-22264.046649209224
1710985800749,-2877.796878761612
1710985800790,-11852.49231303623
1710985800829,-13216.768412442878
1710985800869,-13921.734836644027
1710985800909,-3921.725258008577
1710985800950,110.51013692934066
1710985800990,5008.888787907548
1710985801030,2742.2979282215238
1710985801070,3903.4843055186793
1710985801110,4611.3460136181675
1710985801150,7969.409530180972
1710985801191,6472.331810825504
1710985801230,6686.32215043623
1710985801270,9581.355149075855
1710985801311,9692.031979542226
1710985801351,12744.014389140066
1710985801391,11600.072967456654
1710985801431,15990.811993638985
1710985801471,16774.01775715407
1710985801511,13782.371748006903
1710985801552,16005.046713467687
1710985801592,17861.910058664158
1710985801632,19298.5439523533
1710985801672,20866.136157366447
1710985801712,22236.057599297725
1710985801752,22402.765002428554
1710985801793,29084.766768491827
1710985801832,36707.393919122405
1710985801872,38144.85956071783
1710985801966,43803.101590444334
1710985802006,56999.18177422974
1710985802046,45908.19372928608
1710985802086,42630.14942841139
1710985802126,52805.73388067726
1710985802166,53793.351758975536
1710985802206,52569.40234951116
1710985802247,69654.01741802506
1710985802287,64418.75051600486
1710985802327,57910.74331016
1710985802367,57233.04426594125
1710985802407,54811.840794986114
1710985802448,55660.11015544273
1710985802487,52329.347600465175
1710985802527,50734.71919009881
1710985802568,47849.3322026683
1710985802607,46733.12412016466
1710985802649,44750.28327958053
1710985802688,41983.72556588752
1710985802728,41054.96691156039
1710985802768,39932.6264882884
1710985802808,39683.6440069722
1710985802849,38168.91946905106
1710985802888,36473.73019784875
1710985802929,35155.15679043764
1710985802969,33619.0926722046
1710985803009,32257.423940846696
1710985803050,30732.478057780303
1710985803089,30932.586751176044
1710985803129,32574.838904285803
1710985803170,30226.573211247567
1710985803210,26015.252486256883
1710985803251,17736.9348073788
1710985803290,16769.78334132023
1710985803330,20134.91939448472
1710985803370,23089.564173661172
1710985803411,24382.376054108143
1710985803452,25477.58209543256
1710985803491,23408.33024560474
1710985803531,1013.2204104717821
1710985803571,2457.0304581364617
1710985803611,5180.8823022474535
1710985803653,6890.6997497798875
1710985803692,8564.092535535805
1710985803732,5325.242818912957
1710985803772,6118.552889632992
1710985803812,7184.258323178627
1710985803853,8314.873282169923
1710985803893,9085.80439664051
1710985803933,9318.335768145975
1710985803973,9799.260395017453
1710985804013,9117.501631060615
1710985804054,9225.135427216068
1710985804093,8783.12175030401
1710985804133,8925.330262339208
1710985804173,9635.386750398204
1710985804213,10090.5062840553
1710985804254,9673.016901945695
1710985804293,9520.348967433441
1710985804334,8917.700067323167
1710985804374,8538.130708137527
1710985804414,8384.179515606258
1710985804455,7723.738199031912
1710985804494,6795.247063938994
1710985804534,6294.749741691165
1710985804574,2973.7227705530822
1710985804614,-4077.810676493682
1710985804655,-11756.872737794183
1710985804694,-15481.106487611309
1710985804735,-19480.544565178454
1710985804775,-18027.448830943555
1710985804815,-15233.564084629994
1710985804856,-2305.342220596969
1710985804895,4681.391605244018
1710985804935,6945.964733484201
1710985804975,14458.842369453982
1710985805015,8241.174807569943
1710985805056,10011.223253306467
1710985805096,13375.396225799806
1710985805136,13326.372231690679
1710985805176,13593.055987396277
1710985805216,12383.148758068215
1710985805257,11328.53175027296
1710985805296,7806.774032711051
1710985805336,10241.92684337683
1710985805376,11222.156668876763
1710985805416,11588.91181088239
1710985805458,8751.59744179342
1710985805497,8549.287892401218
1710985805537,8169.340612954926
1710985805577,6577.279329815414
1710985805617,5457.653053396381
1710985805658,2936.4439536891878
1710985805697,891.7934738276526
1710985805737,743.2298073740676
1710985805777,1177.850201281719
1710985805817,1947.6030449448153
1710985805858,5415.4701811810955
1710985805898,12531.225926439278
1710985805938,19345.485527552664
1710985805978,21725.94297413528
1710985806018,25584.114105674438
1710985806059,25697.05255911965
1710985806098,27438.697335229255
1710985806138,17341.797847834416
1710985806179,4987.935571622103
1710985806219,-2702.8373133204877
1710985806259,-17066.24389190972
1710985806299,-17171.13153598737
1710985806339,-23419.57745271735
1710985806379,-27007.25474748388
1710985806419,-28773.341335656587
1710985806460,-30310.43964072736
1710985806499,-29984.23609925527
1710985806540,-30300.34365237737
1710985806580,-28047.475949590094
1710985806620,-29259.50616678875
1710985806661,-29022.578042788897
1710985806700,-28160.92180638574
1710985806740,-24635.096737308428
1710985806781,-23498.038401656784
1710985806820,-20742.557189146057
1710985806861,-19075.415825337637
1710985806901,-17374.850017550867
1710985806941,-15540.645414810628
1710985806981,-12617.944094699807
1710985807021,-12145.585384605452
1710985807062,-16335.298529807013
1710985807101,-22963.46403764002
1710985807142,-28379.884853994474
1710985807182,-33274.08253503125
1710985807222,-34934.97239417303
1710985807263,-35125.85916267708
1710985807302,-34812.86278895801
1710985807342,-33755.20502815489
1710985807382,-34245.8615451497
1710985807422,-32729.872809175402
1710985807463,-31698.489790005144
1710985807503,-30285.781470366754
1710985807543,-27992.93070758693
1710985807583,-25935.32756760856
1710985807623,-24266.302067984827
1710985807664,-22814.058302483056
1710985807703,-20942.4625267121
1710985807743,-19307.489498117007
1710985807783,-17103.280455883592
1710985807824,-14456.51050255727
1710985807865,-13460.085646896623
1710985807904,-18182.514652561396
1710985807944,-25486.008821726777
1710985807984,-31186.294036676176
1710985808024,-35123.13377929758
1710985808065,-36976.93295456376
1710985808105,-37508.05791969318
1710985808145,-37021.91406427976
1710985808185,-36607.35766157508
1710985808225,-37145.413336879574
1710985808266,-37500.086041813716
1710985808305,-37260.88318469282
1710985808345,-37053.41854165215
1710985808385,-35470.81861962238
1710985808426,-33732.0624909522
1710985808467,-30987.646504568867
1710985808506,-27961.575102921575
1710985808546,-25412.88063132018
1710985808586,-23020.98910863325
1710985808626,-20628.152967230882
1710985808667,-18606.039939044043
1710985808707,-21375.27502237726
1710985808747,-28602.8004436139
1710985808787,-36471.63509874791
1710985808827,-42496.22434036713
1710985808868,-45818.82663826831
1710985808907,-47548.96562264534
1710985808947,-46446.9439379219
1710985808987,-44721.448644747026
1710985809028,-43863.47952058632
1710985809069,-43430.34492475912
1710985809108,-43497.05110972049
1710985809148,-42511.813920971006
1710985809188,-41004.410054094624
1710985809228,-39045.953427386004
1710985809269,-36356.821423545014
1710985809309,-33821.45929983258
1710985809349,-31886.738296591677
1710985809389,-29669.514306728262
1710985809429,-26450.8266082895
1710985809470,-24274.298185705207
1710985809509,-21853.809858683497
1710985809550,-27137.759606583044
1710985809590,-35085.85359192127
1710985809630,-41745.81295897812
1710985809671,-46960.40375368204
1710985809710,-49291.57375779608
1710985809750,-50414.05456583481
1710985809791,-49835.37415525876
1710985809831,-48333.3330874606
1710985809871,-47435.85191343678
1710985809911,-47437.86214784626
1710985809951,-46910.90890373569
1710985809991,-45517.03381356038
1710985810032,-44126.17583521642
1710985810072,-41214.895916489884
1710985810111,-38622.18985172734
1710985810152,-35709.73757863557
1710985810192,-32647.783194630407
1710985810232,-29955.16168358177
1710985810273,-27437.4487713892
1710985810312,-24778.726980254985
1710985810352,-21478.08561976021
1710985810392,-21381.365558966994
1710985810432,-27976.60853403248
1710985810473,-35903.58518409077
1710985810513,-41778.35292337276
1710985810553,-45112.40861290647
1710985810593,-46321.81254841294
1710985810633,-45488.54686668934
1710985810674,-43850.48788587283
1710985810713,-42181.99327186961
1710985810753,-40791.0114910244
1710985810793,-39974.443183116615
1710985810833,-38390.65239476366
1710985810874,-36588.47003248939
1710985810913,-34604.15834793821
1710985810954,-31400.31536274776
1710985810994,-28891.315915773157
1710985811034,-25770.54163054563
1710985811075,-22545.467813717667
1710985811114,-19389.874920342583
1710985811154,-16930.184309641365
1710985811194,-13516.339992618188
1710985811234,-9654.418140893802
1710985811275,-6652.32142759487
1710985811314,-7566.37399870716
1710985811355,-13841.497785594314
1710985811395,-19807.44690982811
1710985811435,-24499.164870218374
1710985811476,-27365.676482172683
1710985811515,-27885.430140683427
1710985811555,-26533.212517361157
1710985811595,-24428.54761588201
1710985811635,-23573.722479765303
1710985811676,-22556.12988972431
1710985811716,-21713.622368793003
1710985811756,-20210.61933618551
1710985811796,-18495.865389592014
1710985811836,-16783.116347361356
1710985811876,-14872.45149771776
1710985811916,-11910.959482992068
1710985811956,-8204.899098407477
1710985811996,-5013.0506965979
1710985812036,-2622.5074721006677
1710985812077,-333.15931443683803
1710985812117,2129.140163802076
1710985812157,4112.422956606839
1710985812197,6474.466992142145
1710985812237,6494.5314480443485
1710985812278,1436.7500348463655
1710985812317,-4868.390329210088
1710985812357,-10122.23035867326
1710985812397,-13699.570976102725
1710985812438,-14913.886753080413
1710985812478,-14891.413378169294
1710985812518,-13887.818919072393
1710985812558,-11597.179081057198
1710985812598,-10148.224763521925
1710985812638,-7819.065646176226
1710985812679,-7037.732721183915
1710985812718,-5168.963563595898
1710985812758,-1874.1717553548515
1710985812799,1084.8305007983
1710985812839,4454.273980125319
1710985812879,7738.708119705319
1710985812919,11130.17941809306
1710985812959,13588.11929287482
1710985812999,15859.236422437243
1710985813040,17346.075658677146
1710985813080,18357.74175936822
1710985813120,18554.216536981054
1710985813160,13824.537385994103
1710985813200,7060.266859662719
1710985813240,804.757026700303
1710985813282,-3309.0625053881668
1710985813321,-5159.041419148445
1710985813361,-5715.83653901564
1710985813402,-5192.609162080567
1710985813442,-4281.4216908919625
1710985813483,-3470.8573000878096
1710985813522,-3295.356283396948
1710985813562,-2921.760918075219
1710985813603,-1266.3134112833068
1710985813643,356.6489115501754
1710985813685,2468.1141248508357
1710985813724,5176.096584695391
1710985813765,7469.936549309641
1710985813805,9583.761441507377
1710985813845,11213.59885959141
1710985813886,12658.213547181338
1710985813926,13506.658982664347
1710985813966,15481.530075227842
1710985814005,16981.50805243943
1710985814044,16611.22023782041
1710985814083,11105.571090348065
1710985814122,5207.8152530211955
1710985814161,-573.6857550186105
1710985814200,-4027.460880573839
1710985814239,-5521.576070064679
1710985814278,-4672.004080947489
1710985814317,-2940.7885147454217
1710985814356,-1520.309809602797
1710985814395,-1067.8346751406789
1710985814434,-69.38279138319194
1710985814473,1459.5318691562861
1710985814512,2396.1810706248507
1710985814551,3624.086266980972
1710985814590,4745.095520399045
1710985814629,7422.97095813835
1710985814668,9991.66300037736
1710985814707,12609.362224166282
1710985814746,13948.408381809946
1710985814786,15704.341660807375
1710985814826,17519.78895770386
1710985814866,19365.799054240808
1710985814906,21139.832586056553
1710985814946,22420.703758885153
1710985814986,20352.276948790066
1710985815026,14694.318966463674
1710985815066,9545.257166563068
1710985815106,4423.935439794324
1710985815146,2025.763621820137
1710985815186,1771.036394391209
1710985815226,2490.193555724807
1710985815266,3309.8644009763375
1710985815306,3338.155244627036
1710985815346,3155.0354695473798
1710985815386,3269.433190035168
1710985815426,4267.570402080193
1710985815466,5586.928155024536
1710985815506,7289.462723862845
1710985815546,8665.930113246664
1710985815586,10217.356923044194
1710985815626,12672.831321856007
1710985815666,15370.581914898008
1710985815706,17227.790113192517
1710985815746,18689.766957862303
1710985815786,19398.550449899398
1710985815826,20090.975535649806
1710985815866,21890.836507715285
1710985815906,23086.59421319235
1710985815946,23863.692683483474
1710985815986,18489.139046744443
1710985816026,12987.515189904254
1710985816066,8217.754519751761
1710985816106,5917.570860785432
1710985816146,5052.123542570975
1710985816186,4537.632770896424
1710985816226,4684.993045852985
1710985816266,4967.973575019743
1710985816306,4516.341518763918
1710985816346,3832.631684406195
1710985816386,4313.701839883346
1710985816426,4910.671115748584
1710985816466,5392.786294740159
1710985816506,7215.495762526989
1710985816546,8961.833594335243
1710985816586,10648.2796327658
1710985816626,12165.250725290738
1710985816666,13488.297146369703
1710985816706,14632.265703452751
1710985816746,15911.38778907992
1710985816786,17602.166478341445
1710985816826,18629.40535296686
1710985816866,18900.050014242996
1710985816906,14505.083042743616
1710985816946,7309.966494486667
1710985816986,1534.2048195041716
1710985817026,-2305.590180424042
1710985817066,-2620.5654223756865
1710985817106,-1947.8922370038927
1710985817146,-607.4366880198941
1710985817186,-450.5283930953592
1710985817226,-225.3584095928818
1710985817266,59.41079380502924
1710985817306,545.4054191452451
1710985817346,1412.1576930154115
1710985817386,1403.639195415657
1710985817426,2605.5843362533487
1710985817466,4944.918468507007
1710985817506,7026.403801373206
1710985817546,9556.655186236836
1710985817586,11051.469916024711
1710985817626,12523.210643974598
1710985817666,14270.229479965754
1710985817706,15164.508165697567
1710985817746,16399.480780878104
1710985817786,16930.473714761436
1710985817826,14416.698016653303
1710985817866,8245.650931313634
1710985817906,1971.905951844994
1710985817946,-2134.554274664726
1710985817986,-3995.512447935529
1710985818026,-4921.001941274852
1710985818066,-4229.963827983011
1710985818106,-3004.2386686713435
1710985818146,-2273.228580522351
1710985818186,-2569.2469669668935
1710985818226,-2591.4746938319877
1710985818266,-3004.7926188055426
1710985818306,-3543.398133330047
1710985818346,-3111.2220372743905
1710985818386,-2155.5199137907475
1710985818426,-799.5818013977259
1710985818466,1098.4809347707778
1710985818506,2190.196835518349
1710985818546,3897.163848934695
1710985818586,5670.6256220662035
1710985818626,6625.976473007351
1710985818666,8679.230292527936
1710985818706,9442.067993466277
1710985818746,5456.311329822987
1710985818786,-1285.443426482845
1710985818826,-7856.830916150473
1710985818866,-13181.09104978526
1710985818906,-16402.484381883405
1710985818946,-17962.707029167563
1710985818986,-18235.797927741427
1710985819026,-18782.798788419925
1710985819066,-20066.951276068576
1710985819106,-20653.510258867405
1710985819146,-16499.695006640162
1710985819186,-8419.406726566143
1710985819226,256.46764028212056
1710985819266,8921.510700885206
1710985819306,17132.521362832747
1710985819346,24686.370416568592
1710985819386,33032.955596855376
1710985819426,37580.863164318725
1710985819466,41221.768032256514
1710985819506,42965.77309208829
1710985819546,46745.918184895534
1710985819586,46822.11725279968
1710985819626,45363.35478526633
1710985819666,45900.054391982965
1710985819706,41936.615456524305
1710985819746,37038.25322720315
1710985819786,32324.364713747054
1710985819826,30559.179645092227
1710985819866,31035.34452632256
1710985819906,31580.765902286395
1710985819946,30882.58861505799
1710985819986,30127.11009788653
1710985820026,30502.216066489927
1710985820066,29884.81518598646
1710985820106,29899.927416998427
1710985820146,30057.31883851718
1710985820186,31654.773049707524
1710985820226,32464.811268539634
1710985820266,34150.927175066434
1710985820306,35968.52184911072
1710985820346,38572.78282422107
1710985820386,39780.19920485187
1710985820426,37884.075137250125
1710985820466,36836.374681918416
1710985820506,32515.924821148627
1710985820546,27280.549505689647
1710985820586,23523.471619983204
1710985820626,20522.558513370343
1710985820666,17426.376734816004
1710985820706,17940.84674765542
1710985820746,18570.57917579543
1710985820786,19928.761983066797
1710985820826,19116.483850112185
1710985820866,22161.316212038975
1710985820906,24816.049020133913
1710985820946,23811.12626687484
1710985820986,25131.53642187221
1710985821026,26330.52275200095
1710985821066,27540.08592168754
1710985821106,28876.79881128529
1710985821146,29190.083280755207
1710985821186,29912.151395863388
1710985821226,30574.043264158536
1710985821266,31236.12523554871
1710985821306,23997.058512692805
1710985821346,18797.69644228788
1710985821386,15502.275630703662
1710985821426,15277.351108623203
1710985821466,15449.662495906
1710985821506,16663.857217342127
1710985821546,17779.513764953706
1710985821586,17899.066668218467
1710985821626,17436.943162472453
1710985821666,17608.038054554723
1710985821706,18501.585435327142
1710985821746,19294.19326727651
1710985821786,20258.249738895334
1710985821826,21571.167938254774
1710985821866,21833.69969061343
1710985821906,21714.461282343138
1710985821946,21893.54800390685
1710985821986,22081.694996817503
1710985822026,19106.258035432547
1710985822066,14387.203418957535
1710985822106,9288.722449129447
1710985822146,6357.953371381853
1710985822186,5232.0576484669
1710985822226,4432.845301490743
1710985822266,5091.342485926114
1710985822306,5005.590626567602
1710985822346,5788.709018195514
1710985822386,5648.583673296962
1710985822426,6661.368383074179
1710985822466,7537.98410945246
1710985822506,8769.393081399612
1710985822546,9795.918490179814
1710985822586,10221.469305347651
1710985822626,13030.038876109757
1710985822666,14918.482732256409
1710985822706,14733.799628585111
1710985822746,9823.042621023953
1710985822786,3720.0611465941183
1710985822826,-2031.5279825208709
1710985822866,-4500.841154330876
1710985822906,-6074.97301587509
1710985822946,-6506.021337667946
1710985822986,-5850.831248601899
1710985823026,-5003.627723856829
1710985823066,-4185.356885585003
1710985823106,-4410.936224079691
1710985823146,-3848.788480622694
1710985823186,-2725.349067395553
1710985823226,-1117.870312561281
1710985823266,-39.10451386962086
1710985823306,937.4742045840248
1710985823346,2474.739369818475
1710985823386,4610.574631562922
1710985823426,5559.389502972364
1710985823466,2342.988881552592
1710985823506,-4196.605892233551
1710985823546,-9933.737461450044
1710985823586,-13213.053450020961
1710985823626,-15247.638769101351
1710985823666,-15557.975690008607
1710985823706,-13863.916891214903
1710985823746,-13201.800836966373
1710985823786,-12590.51873761369
1710985823826,-12672.251171894372
1710985823866,-11023.54226183379
1710985823906,-10495.427411388606
1710985823946,-8619.882484356873
1710985823986,-6478.063365652226
1710985824026,-3777.284016962163
1710985824066,-1984.593522714451
1710985824106,-85.86992275714874
1710985824146,1447.2979757064022
1710985824186,3223.6195280971006
1710985824226,2388.9521482484415
1710985824266,-4255.572647126857
1710985824306,-11489.401591472328
1710985824346,-16597.54958401434
1710985824386,-18658.383434509393
1710985824426,-19807.59568455117
1710985824466,-17894.621317512356
1710985824506,-16424.163974390365
1710985824546,-15217.248891453724
1710985824586,-14791.930771376938
1710985824626,-13843.56312649278
1710985824666,-12816.64955099672
1710985824706,-11324.565824923571
1710985824746,-9782.836063607596
1710985824786,-8403.280628689565
1710985824826,-6259.730276987422
1710985824866,-4375.8778784563765
1710985824906,-1661.189204803668
1710985824946,33.41021630167961
1710985824986,1245.1618364863098
1710985825026,3726.432019500993
1710985825066,5251.039791111369
1710985825106,2607.3552247006446
1710985825146,-4431.597547591198
1710985825186,-10062.296109399758
1710985825226,-14344.326366093941
1710985825266,-15517.075558903627
1710985825306,-15666.306004634127
1710985825346,-13364.166445225477
1710985825386,-12021.434893651865
1710985825426,-11214.108455100097
1710985825466,-10555.483061174862
1710985825506,-9879.093858107924
1710985825546,-8291.848887652624
1710985825586,-6111.7735265064985
1710985825626,-3447.1126468270086
1710985825666,-1358.875366567634
1710985825706,1709.6914319070056
1710985825746,3564.0233009932563
1710985825786,5956.359180255327
1710985825826,7742.706777785905
1710985825866,9773.201255339198
1710985825906,11461.560896665324
1710985825946,13045.814206007402
1710985826039,13655.823312061839
1710985826079,8879.734689379577
1710985826120,2460.0815750639886
1710985826160,-3249.243371512275
1710985826200,-6094.458949647844
1710985826240,-8120.57040138077
1710985826280,-7326.31605497608
1710985826321,-5384.817971971352
1710985826360,-3943.1924548996612
1710985826401,-3857.5917961839586
1710985826441,-3330.7102634692565
1710985826481,-2206.4741365611553
1710985826522,-1878.0323818861507
1710985826561,-460.73311546444893
1710985826601,1350.9403352998197
1710985826641,3633.205856421031
1710985826681,5588.3114700699225
1710985826722,8314.164039436728
1710985826762,10589.584990381263
1710985826802,12325.099208042026
1710985826842,14059.841732629575
1710985826882,13037.13049653545
1710985826923,6937.403205124661
1710985826962,-2342.971426669508
1710985827003,-9691.19112910144
1710985827043,-15024.164534439333
1710985827083,-17050.268543143757
1710985827124,-18750.932965209708
1710985827163,-17075.37562592933
1710985827203,-16249.47522456292
1710985827244,-15702.104116710834
1710985827283,-14941.06822170224
1710985827324,-13328.389056149404
1710985827364,-11436.073916999623
1710985827404,-9367.506665885914
1710985827444,-6172.084834964015
1710985827484,-3693.77285266947
1710985827525,24.95873636333272
1710985827564,2058.3530328739434
1710985827605,4995.991494693793
1710985827645,6389.082586936653
1710985827685,8941.845577866305
1710985827726,9707.915757675655
1710985827765,9965.903873105533
1710985827805,6239.820080610458
1710985827845,767.8315372597426
1710985827885,-5497.913217268884
1710985827926,-9758.77351349499
1710985827965,-11157.264519501477
1710985828005,-11589.705702231266
1710985828045,-9930.87731829565
1710985828086,-7671.81597645022
1710985828126,-7061.658965632319
1710985828166,-5887.416542251594
1710985828206,-5427.833561620675
1710985828246,-4421.31437178934
1710985828286,-2692.023910584394
1710985828327,-1585.9734476255253
1710985828366,141.02196511626244
1710985828406,2944.5809436663985
1710985828447,5508.104381333105
1710985828487,8175.420180032961
1710985828527,10106.401011331007
1710985828567,12622.95605763048
1710985828607,14229.314521015156
1710985828647,15411.507262811996
1710985828687,17330.711302630603
1710985828728,16499.375952097587
1710985828767,11283.088179728948
1710985828807,5225.564494567923
1710985828847,1037.9888643366285
1710985828887,-1410.1215855660848
1710985828928,-2285.774195090402
1710985828968,-1858.7554925056174
1710985829008,1055.0570675437339
1710985829048,2448.516645492986
1710985829088,3012.671762768179
1710985829129,3054.1615512571298
1710985829168,4108.790257773362
1710985829208,4932.100710676983
1710985829248,5885.316711469553
1710985829289,7131.588011103682
1710985829329,7895.222164868377
1710985829369,8847.754698161501
1710985829409,10107.123260959983
1710985829449,11617.444851069711
1710985829489,12676.732168565504
1710985829530,13316.165646263398
1710985829570,13503.794927872717
1710985829610,14815.330926268362
1710985829650,15488.628416213207
1710985829690,16516.962709049694
1710985829731,14295.091295998544
1710985829771,7492.963721415028
1710985829811,2287.5790204461664
1710985829852,-3133.400870162528
1710985829892,-6478.254073714372
1710985829933,-7953.116524761543
1710985829972,-7157.961153444834
1710985830013,-5802.819887937978
1710985830053,-5400.310940055177
1710985830093,-5191.96362592373
1710985830134,-4378.858106262982
1710985830174,-3368.14566337876
1710985830215,-1491.370286676567
1710985830255,-245.52662505675107
1710985830297,720.8951000245288
1710985830338,3808.3632839163765
1710985830377,6412.50572741311
1710985830417,8221.651625408791
1710985830458,9811.903064454906
1710985830498,11794.423851104453
1710985830539,13421.230134150013
1710985830578,14619.334180863574
1710985830619,16184.118506809697
1710985830659,17395.32712672511
1710985830699,17060.002246490214
1710985830740,11592.753822427243
1710985830780,6846.947003818117
1710985830820,2187.2015777612105
1710985830860,551.0080886185169
1710985830901,95.23996939416975
1710985830942,1994.1446330049075
1710985830981,2871.375100651756
1710985831021,3557.1947470400482
1710985831062,4504.286833399441
1710985831102,3723.8961007837206
1710985831143,3133.1955738840625
1710985831182,3829.139648297336
1710985831223,5396.672229101881
1710985831263,6676.449615820777
1710985831303,8576.892534269951
1710985831344,9847.448588849977
1710985831384,13896.10542356968
1710985831424,14980.87033319287
1710985831464,16112.684990843758
1710985831504,16415.836860383395
1710985831545,17294.484387070406
1710985831585,15183.112640686799
1710985831625,7761.443644914776
1710985831665,1028.5005232542753
1710985831705,-3555.648573949933
1710985831746,-5743.427057782188
1710985831785,-6864.788671795744
1710985831826,-5905.688100144267
1710985831866,-5629.947435522452
1710985831906,-5337.750001786742
1710985831947,-5033.764456609264
1710985831986,-5243.984447520692
1710985832026,-4265.903039116878
1710985832067,-3632.009939321317
1710985832107,-1216.9093364961445
1710985832149,263.8943406827748
1710985832189,2339.377738381736
1710985832229,3401.388719594106
1710985832269,6109.971161000431
1710985832309,7778.890394471586
1710985832350,8623.523536435328
1710985832390,10736.42038622126
1710985832430,12871.002125676721
1710985832470,11661.637592769228
1710985832510,5871.870395070873
1710985832551,-1129.809610397555
1710985832591,-6528.463059943635
1710985832631,-9391.950641419739
1710985832671,-10551.816995282657
1710985832711,-9812.52677455917
1710985832753,-8892.990903637372
1710985832792,-8299.774504381232
1710985832832,-7324.175616164692
1710985832873,-7113.20336211985
1710985832913,-6000.170300877187
1710985832954,-4712.271634713747
1710985832993,-2832.726634210907
1710985833034,-846.7034770166501
1710985833074,1517.659113034606
1710985833114,3491.0984170772135
1710985833155,6533.960907531902
1710985833195,8029.200072813313
1710985833235,10138.398009795696
1710985833275,11932.374591369182
1710985833315,13273.218437593896
1710985833356,14545.842257747427
1710985833396,11699.850394200534
1710985833436,5787.465271321125
1710985833476,-457.9345583273098
1710985833517,-4349.144358763006
1710985833558,-6551.242764753755
1710985833597,-6796.316141143441
1710985833637,-5908.164877755567
1710985833677,-4810.807944897097
1710985833718,-3734.566495825071
1710985833759,-3175.221533115953
1710985833798,-2982.063018386252
1710985833839,-2110.440055959858
1710985833879,-1020.0954393204302
1710985833919,510.0413898336701
1710985833960,2196.4989514937624
1710985834000,3556.0034571718425
1710985834040,5278.417266015429
1710985834080,7430.303565102629
1710985834120,9044.025399234146
1710985834161,10270.009443887044
1710985834201,11645.87598689273
1710985834241,12517.642165708356
1710985834281,9138.552495056763
1710985834321,2971.1440721480176
1710985834363,-2442.4698546174914
1710985834402,-5740.2076003700495
1710985834442,-7305.305314010009
1710985834483,-6673.949371778406
1710985834523,-5962.294206813909
1710985834564,-5556.4381395448
1710985834603,-5091.730997662991
1710985834645,-4968.227743552066
1710985834685,-4304.304555182345
1710985834725,-3742.365284179803
1710985834766,-2488.0632228334434
1710985834806,-2030.4023895096034
1710985834846,-696.7790625775233
1710985834886,702.4148708209395
1710985834926,2492.841282699723
1710985834967,4375.0389130739495
1710985835007,5448.187121817842
1710985835047,6842.24897895474
1710985835087,8295.193376844749
1710985835127,6427.845059916377
1710985835168,-549.459909257479
1710985835208,-6987.2985667423345
1710985835248,-13044.707182939164
1710985835288,-16808.524825104512
1710985835328,-17886.646978456993
1710985835369,-18065.489658436272
1710985835408,-17518.446896773763
1710985835449,-17041.919776037335
1710985835489,-17768.8168615303
1710985835529,-17354.32260705065
1710985835570,-17161.639510098845
1710985835609,-16281.855675284285
1710985835650,-14991.628395001404
1710985835690,-13326.60999775771
1710985835730,-11714.179579378106
1710985835771,-9449.821072626859
1710985835811,-7306.44476849772
1710985835851,-5077.391505899839
1710985835891,-3568.3909461041912
1710985835932,-1575.9714798382483
1710985835973,-946.7122059715912
1710985836012,-3827.79881356284
1710985836052,-11247.448260624893
1710985836093,-18192.34698690567
1710985836133,-23817.93130595237
1710985836174,-26659.23227060493
1710985836213,-26831.644906430505
1710985836254,-26485.394833476283
1710985836294,-25421.222159435973
1710985836334,-24758.460454799235
1710985836375,-24721.981735031586
1710985836415,-23702.57207103353
1710985836455,-22469.68668927392
1710985836495,-20760.168003881816
1710985836535,-18827.597920994274
1710985836576,-15938.863307453692
1710985836616,-14198.093264305964
1710985836657,-12160.61701181624
1710985836697,-9246.771364098415
1710985836737,-6567.009364954196
1710985836778,-3724.6689642290585
1710985836818,-1813.2098757615313
1710985836858,714.2056130208075
1710985836899,2882.2532039205544
1710985836939,402.9515820359811
1710985836980,-6465.256031529047
1710985837019,-12902.111803973094
1710985837059,-18094.17613488715
1710985837100,-20759.02508536959
1710985837140,-21655.205052955076
1710985837181,-20915.995837203227
1710985837220,-19501.72370198462
1710985837261,-18487.309216435067
1710985837301,-18215.732151237316
1710985837341,-17172.526838063262
1710985837382,-15149.305157164112
1710985837421,-13389.697655183729
1710985837462,-12170.215234909207
1710985837502,-8739.00986357499
1710985837542,-6781.073054790497
1710985837583,-3790.618648460135
1710985837623,-1846.4327197200619
1710985837663,-12.245163685642183
1710985837703,1715.7350052907132
1710985837743,3501.355352221988
1710985837784,3394.7899130973965
1710985837823,-2014.391765082255
1710985837864,-8671.826471072622
1710985837904,-13411.149255248252
1710985837944,-17186.000218184665
1710985837985,-19931.18193385238
1710985838024,-20196.370603716
1710985838064,-18252.681786957197
1710985838103,-17929.14413217269
1710985838143,-17650.292334403377
1710985838183,-16761.805352479685
1710985838223,-16835.53247069847
1710985838263,-17358.438872805797
1710985838303,-15733.503452174366
1710985838343,-14323.97006343631
1710985838384,-12594.762869146653
1710985838423,-9781.95413863426
1710985838464,-4389.462579673156
1710985838504,586.7559392303228
1710985838544,4076.7890126644634
1710985838585,7493.457060152199
1710985838624,8901.162851677742
1710985838664,9183.971469418146
1710985838704,1108.3987902253866
1710985838744,-7019.347865166143
1710985838786,-13651.520736963488
1710985838825,-17175.90842491854
1710985838865,-19388.611165097915
1710985838905,-19993.651147557423
1710985838946,-18719.01313704066
1710985838987,-17779.817756584845
1710985839026,-17190.731938099023
1710985839066,-16891.210258658975
1710985839106,-17647.127759481315
1710985839147,-16985.89980083797
1710985839188,-15997.798784825485
1710985839227,-14121.541219466366
1710985839267,-11267.863836544566
1710985839308,-9068.35074107349
1710985839348,-7304.565437651239
1710985839389,-4128.577676453628
1710985839429,-2167.255635753274
1710985839469,-825.15258785896
1710985839509,-281.9815149959177
1710985839549,1419.4070430528373
1710985839590,683.7400220707059
1710985839630,-4322.150163218379
1710985839670,-11284.634908531327
1710985839710,-17481.535962729715
1710985839750,-22392.423193108756
1710985839792,-25631.602763406467
1710985839831,-26284.652820516843
1710985839871,-24981.611915310845
1710985839912,-23103.905036464334
1710985839952,-22181.472100870684
1710985839993,-19510.389160674065
1710985840032,-17708.11344186729
1710985840072,-15484.887030018494
1710985840113,-13369.993401357904
1710985840153,-11809.760385619942
1710985840194,-9246.034518070053
1710985840233,-7111.137179034762
1710985840274,-4459.654297646135
1710985840314,-1714.3680639555678
1710985840354,-744.1650239024311
1710985840395,1617.5131582133472
1710985840435,2989.790454475675
1710985840475,4314.0560172293335
1710985840515,4879.587820835412
1710985840555,-2156.174439975526
1710985840596,-8720.53167179972
1710985840636,-14416.686810714658
1710985840676,-18003.44342750637
1710985840717,-19932.598725001793
1710985840757,-20271.088157088496
1710985840798,-17949.60332745919
1710985840837,-15384.553773947991
1710985840878,-14848.837381241843
1710985840918,-15078.141793047078
1710985840958,-13905.712111344095
1710985840999,-12540.83837601589
1710985841039,-10755.612313575577
1710985841079,-8608.044631141238
1710985841119,-5809.254317404237
1710985841159,-3617.24853258254
1710985841200,-589.0561677669175
1710985841240,1658.0187641563825
1710985841280,3614.288541276939
1710985841320,5351.156253704801
1710985841361,6861.680812862702
1710985841401,8687.689528404735
1710985841441,8724.690721005201
1710985841481,1705.0330467354506
1710985841521,-5097.962025992572
1710985841561,-10969.52222229354
1710985841602,-14518.396663174033
1710985841642,-15421.389045933262
1710985841682,-14682.14186271932
1710985841722,-13148.812471234705
1710985841762,-12139.643654016778
1710985841803,-11866.633512901608
1710985841843,-10675.30649179127
1710985841883,-9947.850290804636
1710985841923,-9032.244144600816
1710985841963,-7416.059615726583
1710985842004,-4963.56539510889
1710985842043,-2793.807862404734
1710985842084,91.1224570767954
1710985842124,2174.8070349423215
1710985842164,4973.974584338721
1710985842205,6484.123810436111
1710985842244,7309.586293916218
1710985842285,8492.884040166624
1710985842325,10187.069351938087
1710985842365,10079.361703188159
1710985842406,3365.0960272629745
1710985842446,-3615.985611175187
1710985842486,-9756.312343010679
1710985842526,-12150.084083512425
1710985842566,-12631.687079948373
1710985842607,-11478.476010630839
1710985842647,-9978.282962380908
1710985842687,-9380.460481703281
1710985842727,-8545.66641504597
1710985842767,-7672.068899931386
1710985842809,-7267.795711975545
1710985842848,-6512.664472502191
1710985842888,-5208.239091483876
1710985842929,-3298.441892843228
1710985842969,-1583.6858485089615
1710985843010,635.8727587000467
1710985843050,2984.0704151582904
1710985843090,4808.580975983292
1710985843130,5799.430836241692
1710985843170,7405.425289012026
1710985843211,8874.116718518082
1710985843251,6197.948459690902
1710985843291,-1073.477088501677
1710985843331,-6707.188214881346
1710985843371,-11070.316288044676
1710985843412,-12776.62051849207
1710985843452,-13191.10662157461
1710985843492,-11715.18729247991
1710985843532,-10357.721808118746
1710985843573,-9715.112497178838
1710985843614,-10404.894603060558
1710985843653,-11188.49845536612
1710985843693,-11629.815317432396
1710985843734,-12135.348220888525
1710985843774,-11370.5232008202
1710985843815,-11390.627928798087
1710985843854,-10645.17199449474
1710985843895,-10985.343129290268
1710985843935,-10040.165741618723
1710985843975,-8865.239093387034
1710985844016,-7531.651566680986
1710985844056,-7732.295320335776
1710985844098,-14175.82676950004
1710985844138,-22966.840743992943
1710985844178,-37049.24772337871
1710985844219,-39923.46927370597
1710985844259,-39899.989448329434
1710985844299,-37424.743155616336
1710985844339,-35952.79426597152
1710985844379,-34409.64608472306
1710985844420,-33082.45432447456
1710985844460,-30847.934320892207
1710985844500,-28874.70926735364
1710985844540,-26636.999192345887
1710985844580,-23965.11845079856
1710985844621,-20449.15985574387
1710985844660,-17740.122197906952
1710985844700,-14859.0549564315
1710985844741,-11417.468954537995
1710985844781,-7566.17553580692
1710985844822,-4427.00963262748
1710985844861,-8272.481283613946
1710985844901,-15650.08600295335
1710985844942,-23276.170650319196
1710985844982,-27648.862161546946
1710985845023,-28629.79480762221
1710985845062,-29416.02645148523
1710985845102,-27686.98716474278
1710985845143,-26473.318406221922
1710985845185,-23818.335553184617
1710985845224,-22962.543784897774
1710985845263,-21997.2665131744
1710985845303,-21193.331345153507
1710985845344,-19543.64500862686
1710985845384,-16604.357908883598
1710985845425,-13835.742669495288
1710985845464,-11875.588904380333
1710985845504,-9084.708552004304
1710985845545,-7118.018043240532
1710985845585,-5635.956640201155
1710985845626,-2964.769280079752
1710985845665,-80.70000594854355
1710985845706,-2899.2712756786495
1710985845746,-11001.67223676201
1710985845786,-18814.242015403695
1710985845827,-24777.425563958474
1710985845867,-27970.75876893336
1710985845907,-29330.2267956445
1710985845947,-28174.678185882978
1710985845987,-27220.748954937793
1710985846028,-27237.1920356513
1710985846068,-27699.622811180772
1710985846109,-28144.850212722784
1710985846150,-26221.5534674644
1710985846190,-23118.769904274493
1710985846231,-18577.681838844437
1710985846270,-15542.508625364164
1710985846311,-12633.759797653649
1710985846351,-8722.999953262974
1710985846391,-5733.505994035862
1710985846432,-2446.6532445687335
1710985846472,-93.95762484613806
1710985846512,2093.997633212479
1710985846552,5404.11179570714
1710985846592,8080.203943153843
1710985846633,7877.098590044072
1710985846673,33.67371560796164
1710985846713,-8287.776903495193
1710985846753,-15283.023850782309
1710985846794,-18780.686715638265
1710985846835,-21040.103338536574
1710985846874,-21016.097919636173
1710985846915,-20118.729086607695
1710985846955,-17598.98568552127
1710985846995,-17910.034000606975
1710985847036,-18799.483411173103
1710985847075,-17554.350885135587
1710985847116,-15984.978530117078
1710985847156,-13753.587873053737
1710985847196,-11971.03274823539
1710985847237,-9183.702618259937
1710985847277,-5983.028057351243
1710985847317,-3249.7689443952404
1710985847357,-127.39960994478315
1710985847400,2341.2207892758306
1710985847438,4561.2897170155775
1710985847478,7158.319058131427
1710985847518,9668.167740239529
1710985847558,12581.979511645623
1710985847599,9289.262539193034
1710985847640,1187.8585421768948
1710985847679,-5598.278327300912
1710985847719,-11572.468772649067
1710985847759,-14206.764815931441
1710985847799,-14708.228842183482
1710985847840,-13169.303860313725
1710985847880,-11315.387731455266
1710985847920,-10548.900835688226
1710985847960,-9919.588250600267
1710985848000,-9368.874198929872
1710985848041,-8274.29578335397
1710985848081,-6777.243484750157
1710985848121,-4078.903480079258
1710985848161,-1301.8919168454595
1710985848201,1850.8906387970783
1710985848242,2615.0378213571385
1710985848282,6428.697024824098
1710985848322,9098.101834009867
1710985848362,11726.727840873413
1710985848402,13683.019027865259
1710985848443,16272.757055268623
1710985848483,17430.455649500713
1710985848523,11515.303226574324
1710985848563,2567.17467378336
1710985848604,-5406.495931035839
1710985848644,-11721.56418111152
1710985848684,-14873.54139883956
1710985848724,-15759.490474246442
1710985848764,-14760.917482481338
1710985848804,-13748.108699051198
1710985848846,-13523.840371774044
1710985848885,-13281.852186361328
1710985848925,-12345.847700182814
1710985848966,-11640.085692080203
1710985849006,-9045.90422354266
1710985849047,-6777.625828685006
1710985849086,-4228.488070151303
1710985849126,-1644.0052846577018
1710985849167,1104.2360558488872
1710985849207,4196.233552708523
1710985849248,6947.002374442061
1710985849287,9756.463288896019
1710985849328,12585.622299860232
1710985849368,15211.68038378423
1710985849408,17491.914217135403
1710985849449,16886.776231940137
1710985849489,9477.202112552943
1710985849529,670.125597991515
1710985849570,-6628.609106937423
1710985849612,-10773.362529502017
1710985849651,-14042.073577236384
1710985849690,-14174.71867783321
1710985849730,-13087.043750914978
1710985849771,-12023.096464400413
1710985849811,-10972.555484153563
1710985849852,-10417.90198764787
1710985849891,-9249.538613077719
1710985849932,-7328.236103608739
1710985849972,-5182.722492065746
1710985850012,-2526.8587166750804
1710985850053,309.9663660847582
1710985850093,3478.391388368793
1710985850133,6323.763618583325
1710985850172,9387.037689771503
1710985850211,11726.900196454022
1710985850250,14614.474846404511
1710985850289,17172.869858599268
1710985850328,19505.842600618256
1710985850367,21812.820495581254
1710985850406,24157.529482482933
1710985850445,21741.87914539664
1710985850484,14308.327405700227
1710985850523,6205.241700872779
1710985850562,-481.5266659911722
1710985850601,-3736.382420318201
1710985850640,-5169.724877141183
1710985850679,-4890.863147940021
1710985850718,-3501.4708533124067
1710985850758,-2587.55287272064
1710985850798,-1900.6861348487437
1710985850838,-1676.757765928749
1710985850878,-16.026337856194004
1710985850918,13438.467870647786
1710985850958,24302.67493998818
1710985850998,42656.33038671967
1710985851038,53886.51443463331
1710985851078,61355.1850667689
1710985851118,65903.62050219066
1710985851158,60434.12522106478
1710985851198,54643.32963842759
1710985851238,41808.33142038947
1710985851278,30403.473300029757
1710985851318,15657.251676202752
1710985851358,9628.40198899014
1710985851398,7468.2398780460935
1710985851438,1997.7836449453607
1710985851478,-14002.163924110122
1710985851518,-27573.511594605632
1710985851558,-30438.2388614784
1710985851598,-11585.138229388744
1710985851638,3334.011514787795
1710985851678,6008.358899655752
1710985851718,-14122.1000867174
1710985851758,-41215.045944131445
1710985851798,-40933.55382251553
1710985851838,-29171.39578383183
1710985851878,-12044.979307255475
1710985851918,-6582.416697867215
1710985851958,-11838.876247300068
1710985851998,-18231.559387626592
1710985852038,-7584.896615011152
1710985852078,-4903.37227566028
1710985852118,-8062.5374607078265
1710985852158,5657.853723070119
1710985852198,5315.048045994714
1710985852238,-16070.442172822542
1710985852278,-58282.66772206314
1710985852318,-81648.91041408852
1710985852358,-99456.69468279276
1710985852398,-121781.04671973642
1710985852438,-136034.24230345897
1710985852478,-147087.14427900733
1710985852518,-144512.4028130197
1710985852558,-138535.8373092059
1710985852598,-123222.29427731014
1710985852638,-110553.81242832402
1710985852678,-97036.03468167689
1710985852718,-98254.02401979035
1710985852758,-49928.91170452628
1710985852798,-19089.90079560131
1710985852838,-1485.2654618327506
1710985852878,8104.681480742991
1710985852918,9179.79231315758
1710985852958,30938.42782317521
1710985852998,53242.045093351975
1710985853038,69888.82171478099
1710985853078,63752.67150876252
1710985853118,52436.533142413246
1710985853158,27765.600020098034
1710985853198,1673.8166341085453
1710985853238,-28721.233733986737
1710985853278,-49891.51289851079
1710985853318,-61505.0239788373
1710985853358,-58614.97226628102
1710985853398,-57141.907753671985
1710985853438,-73724.77100632153
1710985853478,-87184.01946464367
1710985853518,-85194.67043032381
1710985853558,-76835.42983814981
1710985853598,-85434.8340643784
1710985853638,-95386.10075551132
1710985853678,-93101.5223414998
1710985853718,-91501.05805785954
1710985853758,-88934.04929757584
1710985853798,-81236.47606608481
1710985853838,-76145.93945245398
1710985853878,-79873.07789052045
1710985853918,-90917.22588972305
1710985853958,-103221.44673042791
1710985853998,-98025.45177947404
1710985854038,-109386.61869066209
1710985854078,-115809.31234071078
1710985854118,-113062.98896025703
1710985854158,-118384.19300226728
1710985854198,-107534.90492748446
1710985854238,-108113.87799724052
1710985854278,-106524.29709197348
1710985854318,-110215.60774317104
1710985854358,-113006.55022414122
1710985854398,-115380.04710803693
1710985854438,-114944.00146268448
1710985854478,-103670.13837129506
1710985854518,-85315.81394631183
1710985854558,-71243.44217598438
1710985854598,-69016.18122119224
1710985854638,-77007.04915650235
1710985854678,-84725.04448065418
1710985854718,-91216.48852543277
1710985854758,-94420.27920676279
1710985854798,-94098.64331015106
1710985854838,-90452.17766878312
1710985854878,-85421.9543632248
1710985854918,-80608.10554423649
1710985854958,-77301.3304202659
1710985854998,-74648.02498690505
1710985855038,-71952.57055612374
1710985855078,-66449.8006683304
1710985855118,-56807.24062265898
1710985855158,-48345.90188011713
1710985855198,-39089.354927624576
1710985855238,-29238.119460261427
1710985855278,-19285.565461419756
1710985855318,-10867.221967429854
1710985855358,-11856.65157276229
1710985855398,-20342.211473645177
1710985855438,-32042.821670371573
1710985855478,-39462.94561620499
1710985855518,-41270.97195120109
1710985855558,-38604.41979761282
1710985855598,-34501.67539782962
1710985855638,-30245.840619849972
1710985855678,-24990.561109975446
1710985855718,-22762.933559710626
1710985855758,-23237.34882115107
1710985855798,-18192.803622047417
1710985855838,-8687.059016536688
1710985855878,-5194.831843512831
1710985855918,165.16242998256348
1710985855958,7339.041967134224
1710985855998,13631.043006799184
1710985856038,18545.420661989134
1710985856078,24332.706593751907
1710985856118,21540.565805333667
1710985856158,13270.16450035153
1710985856198,6621.472399957245
1710985856238,3201.359683141578
1710985856278,3712.6811114361044
1710985856318,9127.831198527943
1710985856358,11170.141890073195
1710985856398,9561.474946418777
1710985856438,9530.965222971281
1710985856478,9115.632114648353
1710985856518,9972.622712641722
1710985856558,12689.906114268117
1710985856598,16093.86586256465
1710985856638,19289.51996624237
1710985856678,21713.451417468255
1710985856718,26395.100506681483
1710985856758,30364.66514710104
1710985856798,31955.379381238017
1710985856838,25463.764852691675
1710985856878,17734.90607191529
1710985856918,10942.933775999583
1710985856958,6338.869231799617
1710985856998,6510.167439555749
1710985857038,9711.035423703725
1710985857078,12564.849695402198
1710985857118,12629.607403879287
1710985857158,16746.467601562385
1710985857198,18250.72010205267
1710985857238,19664.05963725294
1710985857278,23291.315521675162
1710985857318,28419.79643946793
1710985857358,30183.543488206342
1710985857398,30913.907438920345
1710985857438,33204.106007162016
1710985857478,37140.08539325069
1710985857518,40065.033868608065
1710985857558,38033.27199529298
1710985857598,28526.870006491896
1710985857638,20069.530145107303
1710985857678,15222.919430261943
1710985857718,13266.299875095254
1710985857758,13371.660780761391
1710985857798,15453.139044720912
1710985857838,16887.062574964017
1710985857878,17604.125088122208
1710985857918,17911.746029350907
1710985857958,21059.3347182367
1710985857998,21987.667668894865
1710985858038,22039.364559670445
1710985858078,23485.22789568128
1710985858118,27222.84581526369
1710985858158,28812.760237184353
1710985858198,30136.727188056335
1710985858238,32932.28466408397
1710985858278,34450.81119899405
1710985858318,30522.41398074152
1710985858358,22231.09164526686
1710985858398,15503.080772335641
1710985858438,11940.173782866914
1710985858478,11018.374693715945
1710985858518,11571.369631890208
1710985858558,14680.414596658433
1710985858598,16237.697633441072
1710985858638,16255.6052750987
1710985858678,18509.911923384527
1710985858718,18996.025384271517
1710985858758,20397.372905847616
1710985858798,23620.83105148794
1710985858838,26196.699405066203
1710985858878,29762.59059117362
1710985858918,32929.0692610722
1710985858958,35557.68104144605
1710985858998,38317.02772507095
1710985859038,40582.170579457656
1710985859078,37466.55578413303
1710985859118,30034.336636100896
1710985859158,23179.323065006174
1710985859198,18971.742211745586
1710985859238,17786.82410807442
1710985859278,18569.05262427684
1710985859318,21074.281603843672
1710985859358,23255.789857760537
1710985859398,24963.347712129354
1710985859438,26213.4777950719
1710985859478,27644.116754802875
1710985859518,29573.11764886789
1710985859558,32048.38016693364
1710985859598,32690.82558244886
1710985859638,35053.30095695378
1710985859678,36068.37369684409
1710985859718,37821.903233374935
1710985859758,40240.72538020369
1710985859798,44363.260977224214
1710985859838,43268.781144042034
1710985859878,35318.382540588966
1710985859918,29343.660616752924
1710985859958,21946.8164077471
1710985859998,19973.48591866996
1710985860038,18444.49654589966
1710985860078,15684.158737336518
1710985860118,16538.058716864092
1710985860158,17202.10421597259
1710985860198,17579.09127974091
1710985860238,18368.03305954556
1710985860278,19529.002113835188
1710985860318,20959.515800280264
1710985860358,22976.813409244176
1710985860398,23484.237467856146
1710985860438,26200.347358452622
1710985860478,26602.25632654736
1710985860518,27467.62871038448
1710985860558,23603.167452973546
1710985860598,31200.64714685129
1710985860638,24432.198817742523
1710985860678,14486.314015229
1710985860718,4832.407621345017
1710985860758,1493.2070334996097
1710985860798,1282.6275224802084
1710985860838,1235.9371756319888
1710985860878,3760.0541077898815
1710985860918,2772.3169168874156
1710985860958,2732.5138559951447
1710985860998,2134.5777939097025
1710985861038,1799.479668440763
1710985861078,1139.313410948962
1710985861118,2332.426237602718
1710985861158,6081.565552437445
1710985861198,6700.866234371671
1710985861238,8953.640279473737
1710985861278,10420.059864676325
1710985861318,12176.187635903014
1710985861358,16261.822203876683
1710985861398,15769.128141914727
1710985861438,7745.09744561417
1710985861478,-1521.4663700158708
1710985861518,-9032.383019378409
1710985861558,-12358.535513657145
1710985861598,-12640.772848803783
1710985861638,-10549.41843151208
1710985861678,-7440.813287428115
1710985861718,-9012.097567149438
1710985861758,-9297.221182900947
1710985861798,-10716.534284233581
1710985861838,-6564.1395346627105
1710985861878,-16452.732939389534
1710985861918,-15267.707283322
1710985861958,-12197.103309458122
1710985861998,-7445.509111983236
1710985862038,-5137.672217309475
1710985862078,-1936.9582720850594
1710985862118,3402.3826295086183
1710985862158,5445.261584083317
1710985862198,6719.345896650571
1710985862239,790.2109743754845
1710985862278,-5326.31782195624
1710985862319,-9716.230417519342
1710985862359,-10057.088262487203
1710985862399,-8993.53796880995
1710985862440,-4977.248581548687
1710985862479,-462.60357572999783
1710985862519,2011.7922644671053
1710985862559,1550.0700714807026
1710985862600,612.537312281318
1710985862641,10.372918302426115
1710985862680,-50.97251097811386
1710985862720,312.62267266213894
1710985862760,1341.8787404182367
1710985862800,3571.068613551557
1710985862841,5664.367246175185
1710985862881,7169.914082932286
1710985862921,8938.785162772052
1710985862961,9902.450816825964
1710985863001,-4397.493791018147
1710985863042,-11813.935713205254
1710985863081,-18570.672656276496
1710985863121,-17031.424591530114
1710985863161,-14592.726666445611
1710985863201,-11579.374546593986
1710985863242,-9999.160247005057
1710985863281,-8940.754281924106
1710985863322,-8400.218635068275
1710985863362,-9436.710631484631
1710985863402,-10909.455554774962
1710985863443,-8903.161007882794
1710985863482,-7894.0518787691835
1710985863522,-4805.570557327708
1710985863562,-2555.5241450564936
1710985863602,649.4546843301505
1710985863643,3709.118627846241
1710985863683,3961.6999346176162
1710985863723,-2935.91857853299
1710985863763,-11496.442915305728
1710985863803,-16603.70961269457
1710985863844,-18547.386319678044
1710985863883,-17813.18767944048
1710985863923,-15051.77233640058
1710985863963,-13556.146823731018
1710985864003,-11909.202808302362
1710985864044,-11837.520529065514
1710985864084,-12352.11736312625
1710985864124,-12002.950023869518
1710985864164,-10049.156051683705
1710985864204,-7557.491713536205
1710985864245,-5044.947526181582
1710985864284,-1875.4543026138563
1710985864324,626.7189872013405
1710985864364,6373.802543051075
1710985864404,6223.04107672628
1710985864445,4702.61879579071
1710985864485,-3724.958739409456
1710985864525,-11527.28796563088
1710985864565,-16676.137162821367
1710985864605,-19458.92161541991
1710985864646,-19465.308389947284
1710985864685,-17640.443914575502
1710985864725,-16677.842198717175
1710985864765,-16356.610692524351
1710985864806,-15896.615629394539
1710985864847,-16127.464663272258
1710985864886,-15100.573641376104
1710985864926,-13416.794470367255
1710985864966,-10837.243767901324
1710985865006,-8026.109804817475
1710985865047,-5521.7183980182745
1710985865086,-2418.4001859927084
1710985865127,686.1211100933142
1710985865167,3793.2093325168826
1710985865207,4645.250486365287
1710985865248,-914.8201963696629
1710985865287,-7598.7247297873255
1710985865327,-11488.612709413515
1710985865367,-12149.62783611822
1710985865408,-10553.936521720141
1710985865448,-7483.971593758091
1710985865488,-4209.881293612998
1710985865528,-1884.7166729620658
1710985865568,-1114.7896065744571
1710985865608,197.68316934653558
1710985865649,1446.182397402823
1710985865688,4268.68121121591
1710985865729,6759.486505601555
1710985865769,9648.549019559752
1710985865809,12363.268089914694
1710985865850,14773.738253816497
1710985865889,17751.613102940144
1710985865929,20540.3315384998
1710985865969,23147.345772959292
1710985866010,21142.44638034748
1710985866050,16289.21205646079
1710985866090,11965.019806761062
1710985866130,9895.291320940945
1710985866170,9980.62962000817
1710985866210,12001.293583559804
1710985866251,13610.838389090728
1710985866290,14649.195696517127
1710985866330,15589.1512496504
1710985866371,16125.190275957808
1710985866411,16397.368405514862
1710985866452,17742.709046273492
1710985866491,19275.43507685396
1710985866531,20972.424645183375
1710985866571,22586.098184286617
1710985866611,24865.08947327966
1710985866652,26542.656018673908
1710985866692,28054.74791293731
1710985866732,29777.337905954104
1710985866772,26569.03378662886
1710985866812,20958.78907159902
1710985866853,17430.481413501548
1710985866892,15028.510492094792
1710985866932,15185.814934181748
1710985866973,16283.559364054818
1710985867013,18224.437495052814
1710985867054,18921.833466513548
1710985867093,19108.663059048355
1710985867133,18913.756262041396
1710985867173,18910.941964876838
1710985867214,19844.178450790234
1710985867254,21432.69217901444
1710985867294,22614.64028030634
1710985867334,24126.79993543541
1710985867374,25498.261961689685
1710985867414,26593.950839746976
1710985867455,27708.657343373634
1710985867494,28930.210323970998
1710985867534,27603.87410883652
1710985867575,22602.35875631799
1710985867615,17375.786171869608
1710985867656,14208.570752480766
1710985867695,13568.67207152024
1710985867735,13110.980197505793
1710985867775,14179.954165604198
1710985867816,15315.630232628435
1710985867856,15320.598306431202
1710985867896,14906.991797397612
1710985867936,14693.994763401803
1710985867976,15302.830478421878
1710985868016,15782.601957394276
1710985868057,17156.366168908775
1710985868097,18846.470430996036
1710985868137,19880.418219368905
1710985868177,21303.0232037697
1710985868217,22974.40425763675
1710985868258,24225.359397511464
1710985868297,24771.44168821769
1710985868337,25415.401360821677
1710985868378,21752.51618429157
1710985868418,16323.961007202044
1710985868458,11888.141425331822
1710985868498,9467.43699110765
1710985868538,8379.63766473881
1710985868578,8862.515135501046
1710985868618,10124.365381970769
1710985868659,10023.134116771631
1710985868699,9869.214616613928
1710985868739,9264.32780817151
1710985868779,8818.375796266133
1710985868819,9035.801210721023
1710985868860,9941.962995389942
1710985868900,11308.611981307156
1710985868939,12004.83382677217
1710985868980,13256.950104542775
1710985869020,14678.216207512654
1710985869060,15466.81435679784
1710985869100,16456.36037026858
1710985869140,17076.737267961726
1710985869180,16211.549608279718
1710985869220,11102.454833279131
1710985869261,5107.984725186601
1710985869300,340.3031234112568
1710985869340,-1513.8491028521676
1710985869381,-2280.458061580546
1710985869421,-1725.932452134788
1710985869461,-779.2132893439848
1710985869501,-898.1592732504942
1710985869541,-1934.5477420648094
1710985869581,-2696.2713514287025
1710985869621,-2799.0656981789507
1710985869662,-2400.975467801094
1710985869701,-1490.8837009484414
1710985869741,-383.4599870580714
1710985869781,1244.288515495602
1710985869822,2606.633920949651
1710985869863,4082.2771731950343
1710985869902,4974.554849867942
1710985869942,6367.229321042541
1710985869982,7652.768089330522
1710985870022,8008.356923603918
1710985870063,2660.6243859720416
1710985870102,-4366.012041517533
1710985870142,-9782.67891917983
1710985870182,-11722.431023614015
1710985870223,-11842.109405598138
1710985870263,-10923.75809819973
1710985870303,-9533.144306619652
1710985870343,-9489.057345241774
1710985870383,-10181.915412671166
1710985870423,-10360.257063858677
1710985870464,-10436.392435202375
1710985870503,-9652.898818924557
1710985870543,-8409.221926661674
1710985870584,-6971.043894155882
1710985870624,-5397.721996019129
1710985870665,-3658.1958626066335
1710985870704,-1500.756751659559
1710985870744,-272.4672111964319
1710985870784,1026.795956485439
1710985870824,2374.1316490457393
1710985870865,2747.9148833630607
1710985870905,-2066.735763688106
1710985870945,-8805.68338594865
1710985870985,-14126.164880896453
1710985871025,-16127.811961984728
1710985871066,-15835.909014720703
1710985871105,-14177.328288116725
1710985871145,-12141.796678828076
1710985871186,-10701.778129094746
1710985871225,-10735.460990205873
1710985871266,-11495.040743571706
1710985871306,-11421.31417003693
1710985871346,-10337.952583523002
1710985871386,-8414.453363481443
1710985871426,-6585.14770035632
1710985871467,-4607.806486768182
1710985871506,-2264.231995444745
1710985871547,203.03413828555495
1710985871587,2624.6732517005876
1710985871627,4408.916243523825
1710985871668,6067.849085823633
1710985871707,8277.631315605482
1710985871747,8838.898439180106
1710985871787,3340.4591126497835
1710985871827,-3606.4273070101626
1710985871868,-8272.352585892659
1710985871908,-10249.926907307236
1710985871948,-9833.98534733546
1710985871988,-9012.11615065555
1710985872028,-7262.874180564657
1710985872069,-6810.963482271181
1710985872108,-6963.436825231882
1710985872149,-7405.63545697974
1710985872189,-6964.045278574107
1710985872229,-6175.902130801696
1710985872270,-6138.8645879707765
1710985872309,-5359.503359514521
1710985872349,-4176.818284393288
1710985872390,-3146.8792070986237
1710985872430,-1775.0191298690625
1710985872471,-545.3263569462579
1710985872510,1618.8604337673169
1710985872550,3530.7342895322945
1710985872590,5237.3129377691075
1710985872631,7090.127790503204
1710985872671,4978.157240753528
1710985872711,-541.6327216981445
1710985872751,-5926.3880302459
1710985872791,-8406.21797742974
1710985872831,-8925.748844929505
1710985872872,-8442.898150438443
1710985872911,-6134.59361331258
1710985872952,-5152.714863592293
1710985872992,-4437.261794409249
1710985873032,-4366.421683700522
1710985873073,-4634.968240073649
1710985873112,-3671.9128529597074
1710985873152,-1948.2671481706202
1710985873192,734.8828922680113
1710985873233,3365.548985154368
1710985873273,5584.669588829391
1710985873313,7321.692706851289
1710985873353,9513.983559142333
1710985873393,11001.369531551376
1710985873433,12367.961223779945
1710985873474,13265.786943575367
1710985873514,13618.849013324827
1710985873554,14962.53162845876
1710985873594,12302.475200125016
1710985873634,6038.7091257805005
1710985873675,485.1082558296621
1710985873715,-2179.193364148261
1710985873755,-2447.550329531543
1710985873795,-2135.7179201347753
1710985873835,583.6536385184154
1710985873876,2843.8136993790977
1710985873915,4017.181933931075
1710985873956,4518.551150771091
1710985873996,5408.121257131686
1710985874036,6959.1851886103395
1710985874077,8474.768051659223
1710985874116,11183.180157044902
1710985874156,13772.190586166922
1710985874200,16337.736051967833
1710985874240,18756.604892455973
1710985874280,19824.368060509674
1710985874320,22154.822759384755
1710985874360,24891.6791612003
1710985874400,26681.11781867314
1710985874441,27894.6536705466
1710985874481,27672.734834402334
1710985874521,19679.456158484798
1710985874561,16649.640610845294
1710985874601,16310.650155704468
1710985874641,15940.544681204949
1710985874682,16742.641439354513
1710985874721,17211.14125222992
1710985874761,15933.46619745763
1710985874802,13689.869281054009
1710985874841,11665.792329748627
1710985874882,10125.253879838623
1710985874922,10139.899533597752
1710985874962,10486.527352439938
1710985875002,11916.960312463343
1710985875042,13752.054934273707
1710985875083,16420.78206546465
1710985875122,17904.81905340543
1710985875162,19476.877453348832
1710985875202,20542.20465253899
1710985875243,21694.444719870342
1710985875284,22016.935458206106
1710985875323,19105.65818871907
1710985875363,13620.983400424477
1710985875403,9057.919941470725
1710985875443,6315.699689628556
1710985875484,5416.046315670479
1710985875523,5249.777075612452
1710985875563,6608.567100945627
1710985875604,5846.252952829935
1710985875644,3703.954298972618
1710985875685,2303.4235137808137
1710985875724,623.2721486121882
1710985875764,-188.5143429362215
1710985875804,287.59616097342223
1710985875844,1081.484486161964
1710985875885,1282.9809000820387
1710985875925,2651.885352253914
1710985875965,3270.7613892324734
1710985876005,3806.2008311543614
1710985876045,4082.7795778345317
1710985876086,4823.523287602933
1710985876125,5296.1991523974575
1710985876165,3105.0220779818483
1710985876205,-3074.8385899229906
1710985876246,-8840.660470453324
1710985876286,-13423.235170839354
1710985876326,-14698.43458093889
1710985876366,-14767.634750915924
1710985876406,-13648.508812106214
1710985876446,-13346.521485889563
1710985876487,-13396.82938508736
1710985876526,-14247.229885075707
1710985876566,-14166.080932021141
1710985876607,-14105.327952040825
1710985876647,-12958.388097993564
1710985876687,-11634.23019521311
1710985876727,-9739.088388894219
1710985876767,-7600.083381833974
1710985876807,-5514.488974294392
1710985876847,-3489.681282366393
1710985876888,-2197.5703432119917
1710985876927,-169.93353628041223
1710985876968,1388.9666341559496
1710985877008,-1059.53325751191
1710985877048,-6971.726326560136
1710985877089,-13215.702762012137
1710985877128,-16971.70910052792
1710985877168,-17860.624878535047
1710985877209,-18268.521347405855
1710985877249,-16093.383877153276
1710985877289,-15484.556065930054
1710985877329,-15969.24355854094
1710985877369,-16736.017926663626
1710985877409,-17191.583098492352
1710985877449,-16567.21293630451
1710985877490,-15317.586951124715
1710985877530,-13478.801760664908
1710985877570,-11378.321293229703
1710985877610,-9740.343280236237
1710985877650,-7588.038884572685
1710985877691,-6081.709331254009
1710985877730,-4137.0062836697325
1710985877770,-2624.268086531898
1710985877811,-2770.9261628929526
1710985877851,-8537.016800865764
1710985877891,-14707.910234543495
1710985877931,-18533.567733573494
1710985877971,-19271.61307127378
1710985878011,-18866.67060273816
1710985878052,-16732.121224669972
1710985878092,-14936.777929695789
1710985878132,-14686.704662478063
1710985878172,-14272.19179022871
1710985878212,-14426.696985429153
1710985878252,-14180.615740561392
1710985878293,-12316.797656341689
1710985878332,-10143.095069229137
1710985878373,-7001.152685017791
1710985878413,-2756.080724664964
1710985878453,793.4151781920809
1710985878494,4040.640989847947
1710985878533,6777.962795057334
1710985878573,8426.583195236512
1710985878613,5943.606347511057
1710985878654,245.51096383389086
1710985878694,-4771.922007407295
1710985878734,-7610.649960162584
1710985878774,-7274.989739569137
1710985878814,-6322.911205450073
1710985878854,-4599.277479248587
1710985878895,-3599.310410314938
1710985878935,-3239.189484153874
1710985878975,-3249.6324481014162
1710985879015,-3021.8158446061425
1710985879055,-1623.789925799938
1710985879096,-896.256989619229
1710985879136,322.2517496156506
1710985879175,2496.3478242896963
1710985879216,5019.836250009481
1710985879256,6858.649314203067
1710985879297,8643.134494687198
1710985879336,10110.36202048324
1710985879376,9875.212100916076
1710985879416,4715.228716132697
1710985879457,-1385.8711204493884
1710985879498,-5611.188214160036
1710985879537,-7055.741305667441
1710985879577,-7714.69684355706
1710985879617,-7075.183898529038
1710985879657,-6010.1953195561655
1710985879698,-6170.747729626019
1710985879738,-6565.718092496274
1710985879778,-6372.415349601768
1710985879818,-6270.838252782123
1710985879858,-4711.178523574956
1710985879899,-3389.5523311491124
1710985879938,-1445.435240656836
1710985879979,447.1709031856153
1710985880019,2617.306877938565
1710985880059,4110.767213823041
1710985880100,6274.098660510965
1710985880139,8382.127993769478
1710985880179,7651.193335036747
1710985880220,2926.450129487086
1710985880259,-1254.9541305880994
1710985880300,-4206.623071903363
1710985880340,-4682.241204143269
1710985880380,-4051.4555801688693
1710985880420,-1697.4040822880343
1710985880460,-106.14498854870908
1710985880501,-25.181265438441187
1710985880540,-101.46570292161778
1710985880580,587.7710132112261
1710985880620,2031.0369921540841
1710985880660,3843.3073138915934
1710985880701,5645.402875496307
1710985880741,7900.635632358491
1710985880781,9870.41146420734
1710985880821,11774.163575643906
1710985880861,14145.65611116984
1710985880902,16367.988576504169
1710985880942,14699.377147169318
1710985880981,10592.398617227096
1710985881022,7246.175445974106
1710985881062,6103.969576528063
1710985881102,6707.92532005813
1710985881142,7670.164993345272
1710985881182,10061.629376264755
1710985881222,11671.08476646617
1710985881262,12380.6458630017
1710985881303,13265.36843692325
1710985881342,13971.301298447885
1710985881383,15525.18455238291
1710985881423,17710.756486999104
1710985881463,19322.12377044186
1710985881504,21292.96894311672
1710985881543,22730.2709659948
1710985881583,25283.01114588417
1710985881623,27302.772052776534
1710985881664,29069.67098263139
1710985881704,25980.946501916507
1710985881744,21575.26551595982
1710985881784,18685.731736570597
1710985881824,17727.969461460598
1710985881864,18396.423274240457
1710985881905,19665.413772372995
1710985881944,20821.06055724225
1710985881984,21312.295317193493
1710985882025,20780.09526825929
1710985882065,20864.994465684984
1710985882105,20554.613829559647
1710985882145,21465.749279769138
1710985882185,22341.35244140704
1710985882225,23722.094158034306
1710985882265,25445.65102795232
1710985882306,26266.44757512631
1710985882345,27136.17062465707
1710985882386,27720.12960633845
1710985882426,28409.24335858086
1710985882466,24064.641650925623
1710985882507,19379.980815878604
1710985882546,16914.318886279594
1710985882586,16029.985299534397
1710985882627,16147.552838988602
1710985882667,16876.49681946519
1710985882707,17847.774229321396
1710985882747,18446.47065867274
1710985882787,17942.748465777375
1710985882827,17818.52482261602
1710985882867,17681.162543686572
1710985882908,18026.584697641898
1710985882948,18308.956476680236
1710985882988,19445.459611263126
1710985883028,20748.147254421376
1710985883068,21738.74696275429
1710985883109,23030.178276726278
1710985883148,23430.377202773
1710985883189,22598.91129555367
1710985883229,18147.843029215
1710985883269,13765.229644203093
1710985883310,9835.825484391302
1710985883349,7908.701545405202
1710985883389,6808.071648220066
1710985883429,7315.872830342967
1710985883470,7460.885575135006
1710985883510,9407.499052932486
1710985883550,10125.081049307715
1710985883590,11436.996444610413
1710985883630,13045.954310104717
1710985883670,13875.15468906681
1710985883711,16686.18202634598
1710985883751,18975.32974572014
1710985883791,20759.91617509257
1710985883831,21288.026285469532
1710985883871,22467.149255767465
1710985883912,24414.598915509414
1710985883952,24177.17708061263
1710985883992,18678.15218889946
1710985884032,13775.169265141943
1710985884072,10262.148495133966
1710985884113,8232.411193825537
1710985884152,7468.398373567732
1710985884193,7446.368446148466
1710985884233,6949.755976920482
1710985884273,6489.959620040143
1710985884314,4210.124004567973
1710985884353,4058.914639128372
1710985884393,4328.254474113928
1710985884434,4771.079893232323
1710985884473,4744.7444056302775
1710985884514,6841.217341350159
1710985884554,9849.143738174578
1710985884594,12378.764573200839
1710985884634,15394.762148252223
1710985884674,15803.936192923225
1710985884715,11229.994349013548
1710985884755,6898.059773370624
1710985884795,2162.8049585560802
1710985884835,-119.7014384297654
1710985884875,-774.4918162624817
1710985884916,-1024.935805646237
1710985884955,-220.33276716666296
1710985884996,-2489.369699597126
1710985885036,-3630.929421604844
1710985885076,-3936.869480019901
1710985885117,-3553.2563460371457
1710985885156,-3730.6002686209977
1710985885196,-3418.7077527660877
1710985885237,-3448.6916830758564
1710985885277,-1873.6493361396715
1710985885318,-355.414320145268
1710985885357,-710.4772460935637
1710985885397,-6311.401335261762
1710985885437,-13249.325804255204
1710985885478,-22029.462761579547
1710985885518,-23101.5131445569
1710985885558,-22716.619790311903
1710985885598,-21613.096226871014
1710985885638,-21398.607063182164
1710985885678,-21467.5019759445
1710985885719,-20427.836772910552
1710985885758,-17345.9579040166
1710985885798,-16291.270078910748
1710985885838,-15205.082934231032
1710985885879,-12902.67959626764
1710985885919,-11825.499079065397
1710985885959,-10459.78345627617
1710985885999,-8609.781439410988
1710985886039,-10677.036593295401
1710985886079,-17639.811253205873
1710985886120,-24214.141540376004
1710985886159,-27714.049598461017
1710985886199,-29713.145025392994
1710985886237,-29102.6763459777
1710985886277,-27740.883394948905
1710985886317,-27227.950096779736
1710985886357,-27596.331794410013
1710985886397,-27939.51701734215
1710985886437,-27874.801659902558
1710985886477,-27575.040264948737
1710985886518,-25507.479904960142
1710985886557,-23789.298781058285
1710985886598,-21772.168757000007
1710985886638,-19097.273978121346
1710985886678,-16635.278575106757
1710985886719,-15141.782514969818
1710985886758,-17680.720795916393
1710985886798,-23629.624264694983
1710985886838,-28944.937332764734
1710985886878,-30646.333366976585
1710985886919,-30311.6357616412
1710985886959,-28958.790997122414
1710985886999,-26665.09896210837
1710985887039,-25176.603322891053
1710985887079,-24450.966190556297
1710985887120,-24588.30533380015
1710985887159,-23328.316249127034
1710985887199,-21850.692373166326
1710985887239,-18896.781692171702
1710985887280,-15933.232987019699
1710985887321,-13831.12343524117
1710985887360,-10892.022983388044
1710985887400,-8326.07010171609
1710985887440,-6207.244457555236
1710985887480,-4936.598461630754
1710985887521,-9347.74769568583
1710985887561,-14209.12708176719
1710985887600,-17291.600539973006
1710985887641,-17438.917693083407
1710985887681,-17486.475500945468
1710985887722,-14883.858395573217
1710985887761,-13139.731613923563
1710985887801,-12335.125874273479
1710985887841,-11836.786092235707
1710985887881,-11060.345846969634
1710985887922,-9740.734717987478
1710985887962,-7765.650010362035
1710985888002,-5132.919114774559
1710985888042,-3198.6500053852797
1710985888082,-541.1258736387827
1710985888123,1944.3825851557776
1710985888162,4960.509608495049
1710985888202,6708.893402541522
1710985888243,6716.126428924967
1710985888283,3178.952487429604
1710985888324,-1252.7885820199735
1710985888363,-3242.7216231548227
1710985888403,-3210.1155704336707
1710985888443,-2789.0226504001766
1710985888483,-761.2488504457287
1710985888524,725.0793533117976
1710985888564,1151.90779073257
1710985888604,1221.6960321606603
1710985888644,1711.5714338384569
1710985888684,3095.3040829855017
1710985888725,4896.554721847642
1710985888764,6913.40953284991
1710985888804,9121.18557121465
1710985888845,11139.41899935389
1710985888885,13053.756145889405
1710985888926,14556.20091864164
1710985888965,17185.393032551277
1710985889005,18766.417362134205
1710985889045,18682.720672954572
1710985889086,15040.117764037102
1710985889126,10900.891358479159
1710985889166,9107.875568186864
1710985889206,8679.438820066396
1710985889246,8967.36075202236
1710985889286,10836.001105003525
1710985889327,11802.800694952952
1710985889367,12215.874164107256
1710985889407,12123.664365961682
1710985889447,11655.800966795767
1710985889487,12384.513845679583
1710985889528,14290.54147715657
1710985889567,15510.17597872112
1710985889608,16986.082553073764
1710985889648,18179.657857754733
1710985889688,19893.860023498535
1710985889729,22387.93531977106
1710985889768,23752.947465868667
1710985889808,24518.154442464
1710985889849,25756.100068949396
1710985889889,25807.83410024736
1710985889930,22688.837984776124
1710985889969,19559.556399140973
1710985890009,18280.96770912106
1710985890049,17755.4682607851
1710985890090,18095.23992160242
1710985890130,19619.992072851863
1710985890170,20322.612410862697
1710985890210,21580.49960618955
1710985890250,21710.396040968597
1710985890290,21660.656134645455
1710985890331,22097.366213239264
1710985890371,23416.79408061318
1710985890411,24413.22575123934
1710985890451,25292.844283517916
1710985890491,26801.903959287098
1710985890532,28075.06741578062
1710985890572,28826.99049584288
1710985890612,29478.104657074437
1710985890652,30627.61076175049
1710985890692,31559.8970051629
1710985890733,31380.437266518828
1710985890772,28800.12945621903
1710985890813,25150.047260285355
1710985890853,22865.171732357237
1710985890893,22869.568436347414
1710985890934,23087.086763896514
1710985890973,23666.795266758185
1710985891013,24489.367471507285
1710985891054,24701.034979636315
1710985891093,24563.15453360742
1710985891134,24516.968872382306
1710985891174,24883.33533142414
1710985891214,25250.13762370916
1710985891254,25874.88921556645
1710985891294,26228.941392763285
1710985891335,27722.17966553755
1710985891374,28617.71314928052
1710985891415,28982.684708248824
1710985891454,30145.2983694484
1710985891495,29916.05086715799
1710985891535,29525.697695477633
1710985891575,25809.4534650743
1710985891615,21500.048662522808
1710985891655,18225.829648951767
1710985891695,15965.456222917186
1710985891736,16003.926776470616
1710985891776,15066.614515660098
1710985891815,14565.240105907433
1710985891856,13789.471694285283
1710985891896,12497.052033286076
1710985891937,11254.862709138077
1710985891976,10463.218745218124
1710985892016,10198.241271671839
1710985892056,8805.964531946927
1710985892096,8967.571985326475
1710985892137,10961.474125783192
1710985892177,10870.027234891662
1710985892217,10627.921514555346
1710985892257,9497.354634910822
1710985892297,9153.672985233366
1710985892338,9871.173706964822
1710985892377,8574.708329874557
1710985892417,2962.8307512786705
1710985892457,-3586.9405544907786
1710985892498,-7247.2305852249265
1710985892538,-8690.52260486409
1710985892578,-7803.502275860403
1710985892618,-6429.966616514372
1710985892658,-5496.516787771136
1710985892698,-5501.673814665526
1710985892739,-6462.94571830146
1710985892778,-7689.2152032121085
1710985892818,-7711.367602355313
1710985892859,-6826.540453994647
1710985892899,-6356.316872773692
1710985892940,-6538.517584646121
1710985892979,-5648.156807868276
1710985893019,-5703.244248682167
1710985893059,-4106.216621292755
1710985893099,-1953.78862200398
1710985893140,-143.15366156725213
1710985893180,-1101.34561886359
1710985893220,-7601.17868528259
1710985893260,-14332.393143632915
1710985893300,-18635.68055322906
1710985893341,-18491.454696852248
1710985893380,-17710.774206613656
1710985893420,-17018.547452981118
1710985893461,-16228.529822960263
1710985893501,-15651.954718198627
1710985893541,-15866.497984314337
1710985893581,-16665.364488002844
1710985893621,-16472.755586358486
1710985893661,-16302.596770975273
1710985893701,-15512.510904873721
1710985893742,-13768.759519495536
1710985893781,-11639.839198146481
1710985893822,-8929.584112173412
1710985893862,-7808.408789697569
1710985893902,-5441.2207468510605
1710985893943,-3885.817400694592
1710985893982,-7654.331615282223
1710985894022,-15111.285137674306
1710985894063,-21763.408471234376
1710985894103,-24561.97826049989
1710985894143,-24775.40059783496
1710985894183,-23798.855979369953
1710985894223,-21150.347310794517
1710985894263,-19573.70452634152
1710985894303,-20415.78618301428
1710985894344,-21070.602232580306
1710985894383,-20940.376527774613
1710985894424,-20443.418424313655
1710985894464,-17733.682717945427
1710985894504,-15568.322773204185
1710985894545,-13779.807263524272
1710985894584,-11305.143091784092
1710985894624,-8711.721295776078
1710985894665,-5732.666728193406
1710985894705,-6006.168337001
1710985894745,-11034.489419596735
1710985894785,-16517.223659166368
1710985894825,-20277.65734991501
1710985894865,-20778.071877225302
1710985894905,-19767.752276577987
1710985894946,-17478.999764229404
1710985894985,-15567.711580230389
1710985895026,-14510.905726258643
1710985895066,-15188.875005946262
1710985895106,-15691.393012123182
1710985895147,-14385.655340133933
1710985895186,-13845.002025309717
1710985895226,-11945.62216289388
1710985895267,-9087.547644776292
1710985895307,-6413.386181453476
1710985895348,-3669.6331748613156
1710985895387,-1569.2719621234573
1710985895427,-681.4121256330982
1710985895467,-5235.785000659525
1710985895508,-11487.711711334065
1710985895548,-16519.440775366966
1710985895588,-17327.33604797907
1710985895628,-17065.680172172375
1710985895668,-14963.202320493292
1710985895708,-12382.20978497155
1710985895749,-11830.236760539468
1710985895788,-11808.273400491104
1710985895829,-11416.436187691987
1710985895869,-11008.557403314393
1710985895909,-9946.164449335076
1710985895950,-8501.43682790501
1710985895989,-5613.810601707082
1710985896029,-3474.8950912482105
1710985896070,-1594.1172476257198
1710985896110,837.7415628619492
1710985896151,2347.8209851700813
1710985896190,135.1078558776062
1710985896230,-5031.526561015286
1710985896271,-9105.051198748406
1710985896311,-11324.59861518396
1710985896352,-10397.367597189732
1710985896391,-8677.893117343308
1710985896431,-6937.084289260674
1710985896471,-5067.852391021792
1710985896511,-4781.221607401269
1710985896552,-4901.973049520748
1710985896592,-3872.871796523221
1710985896632,-2409.2737885934766
1710985896672,-273.29052816168405
1710985896712,2175.211669696495
1710985896753,4641.734365795739
1710985896792,5577.292464511469
1710985896832,7700.372436518315
1710985896872,8898.061474336078
1710985896912,6395.17750189919
1710985896953,2190.078672703821
1710985896992,-1649.8649611771107
1710985897033,-2433.834398770705
1710985897073,-1516.2696702056564
1710985897113,-635.1554421898909
1710985897154,1186.6109623680823
1710985897193,1977.8328542411327
1710985897233,2588.819595477078
1710985897273,1848.3650372680277
1710985897314,2251.2462318078615
1710985897354,3505.4065359863453
1710985897394,4830.238327916246
1710985897434,6075.525451720227
1710985897474,7884.982780233491
1710985897514,9336.949552150909
1710985897555,10498.188353130361
1710985897594,12006.373137772782
1710985897634,10425.601909099147
1710985897675,5504.311268302146
1710985897715,1475.6888514705934
1710985897755,-847.524943178054
1710985897795,-833.4487497801892
1710985897835,233.36958117503673
1710985897875,2055.9623858430423
1710985897915,3086.295825228095
1710985897956,2783.6402723859064
1710985897996,1907.573647171259
1710985898036,1974.5519381430931
1710985898076,3361.0338717540726
1710985898116,4486.677003989229
1710985898157,6522.374224444386
1710985898196,8060.678834898863
1710985898236,9581.202670120168
1710985898276,10931.726788366912
1710985898316,11587.205811004853
1710985898357,10925.734956030734
1710985898397,6604.945540536661
1710985898437,232.18494961899705
1710985898477,-3786.0956495509017
1710985898517,-5909.004874466686
1710985898558,-5407.822365080705
1710985898597,-4597.01734303683
1710985898638,-3933.356951661175
1710985898678,-4066.616924726637
1710985898718,-4495.727241049521
1710985898759,-5346.593937918544
1710985898798,-4411.422800524626
1710985898838,-3414.7718706761952
1710985898878,-1949.8575703795068
1710985898918,-850.3919595035259
1710985898959,652.0378212325741
1710985898999,2755.3339081350714
1710985899039,4417.791596667375
1710985899079,5445.219649203587
1710985899119,5711.2798799148295
1710985899160,303.32723588775843
1710985899199,-6058.697407811414
1710985899239,-10099.259718657704
1710985899280,-12180.015837830026
1710985899320,-11855.466555187013
1710985899361,-10981.004662885796
1710985899400,-10033.561699481681
1710985899440,-9535.968523554504
1710985899480,-9914.916206177091
1710985899520,-10264.731061585248
1710985899561,-9302.918368053623
1710985899601,-7902.773863774259
1710985899641,-6645.738043935038
1710985899681,-4967.67345469119
1710985899721,-2778.8426611281466
1710985899762,-782.53290947387
1710985899801,949.8169375231955
1710985899841,2373.2413212312385
1710985899881,4036.3285213997588
1710985899922,3286.5757419066504
1710985899963,-2510.4011936450843
1710985900002,-8566.67212357279
1710985900042,-11699.554536595242
1710985900082,-13290.726105361246
1710985900122,-12990.49779236596
1710985900163,-11887.559421015205
1710985900203,-10735.720156148076
1710985900243,-10107.529240314849
1710985900283,-11174.656307958998
1710985900323,-11486.610438992735
1710985900364,-10706.56603039545
1710985900403,-9461.170437254943
1710985900443,-7625.205118707847
1710985900483,-5366.6937572723255
1710985900524,-4430.02104160795
1710985900565,-2249.190315481741
1710985900604,-559.3583535216749
1710985900644,2230.6903665750287
1710985900684,3820.884732598206
1710985900724,627.2240430875681
1710985900765,-4753.439667429775
1710985900805,-10206.517551623983
1710985900845,-12933.462750809267
1710985900885,-13342.91129357391
1710985900925,-12163.752658502432
1710985900966,-10402.102050237358
1710985901005,-9176.123453663895
1710985901046,-9207.57589199394
1710985901086,-9306.312131310813
1710985901126,-9163.019694249379
1710985901167,-8281.01562606101
1710985901206,-6763.3969270370435
1710985901246,-4974.747977649793
1710985901286,-2861.348753862083
1710985901326,-1841.577386956662
1710985901367,-378.97026697546244
1710985901407,1956.764907714678
1710985901447,3166.1090423176065
1710985901487,2374.6053659091704
1710985901527,-3522.411761067342
1710985901568,-9548.923631940968
1710985901608,-13296.99388876697
1710985901648,-14083.686029227683
1710985901688,-13782.639735566452
1710985901728,-12332.934399345191
1710985901769,-11557.121876453515
1710985901808,-10804.7218904451
1710985901848,-10767.026753608603
1710985901889,-10719.613126126584
1710985901929,-10468.662357751513
1710985901970,-8433.7784597727
1710985902009,-5881.426385312807
1710985902049,-3759.1044832821935
1710985902089,-1904.0519792672712
1710985902130,331.14794500917196
1710985902170,2221.8305657193996
1710985902210,4179.162827777211
1710985902250,6115.829281270504
1710985902290,4000.942215271527
1710985902330,-1254.5451132927556
1710985902371,-6833.17828911473
1710985902410,-9338.571416150546
1710985902450,-9543.658214305993
1710985902491,-8918.619943505619
1710985902531,-7037.314502923749
1710985902571,-5786.253034531139
1710985902611,-5544.48168669641
1710985902651,-5499.4661473874
1710985902691,-6048.289249848109
1710985902731,-4250.100518430583
1710985902772,-2368.2533432845958
1710985902811,-257.3932834281586
1710985902852,2235.711452527903
1710985902891,4314.772734305821
1710985902932,6776.345757206669
1710985902973,8735.59381802706
1710985903012,11133.827264854684
1710985903052,12710.116248577833
1710985903092,13653.457969907206
1710985903132,11145.918056030758
1710985903173,5870.501023698598
1710985903212,1696.749924712116
1710985903253,-399.6019326087553
1710985903293,201.16660718945786
1710985903333,1410.3016436600592
1710985903374,3252.840636260342
1710985903413,3681.622426778078
1710985903453,3678.964597903192
1710985903493,3929.4509111768566
1710985903533,3999.4347061761655
1710985903574,4967.731139987474
1710985903614,6288.089172872715
1710985903654,7211.035980550572
1710985903694,9005.118430921808
1710985903734,10644.056359671988
1710985903775,12306.255922254175
1710985903814,14107.663120245794
1710985903854,15807.197339686565
1710985903894,17252.210136121837
1710985903935,17208.611893433612
1710985903975,13255.297886000946
1710985904015,8767.759191930527
1710985904055,5745.58284939453
1710985904095,4894.596141963266
1710985904135,4858.630982652772
1710985904176,6772.073023429373
1710985904215,7315.190208359389
1710985904255,7696.200645206729
1710985904296,6833.605790417176
1710985904336,6861.0001687309705
1710985904376,7921.60095519782
1710985904416,9020.040297135245
1710985904456,11026.104034146294
1710985904496,12708.010741788894
1710985904536,14205.675855231937
1710985904577,15431.777362026274
1710985904617,16404.99842568254
1710985904657,17584.517424030462
1710985904697,19071.887555879308
1710985904737,18951.224267198006
1710985904778,13357.620767425513
1710985904817,8175.542819779599
1710985904857,4676.790639718529
1710985904898,3163.3331980039366
1710985904938,3054.609406515723
1710985904978,3793.8268667515367
1710985905018,4799.258627688512
1710985905058,4971.012342906324
1710985905098,4410.615915750619
1710985905138,3951.0777617283165
1710985905179,4206.317331522936
1710985905218,5075.933254651725
1710985905259,6256.364456085954
1710985905299,7042.338683890179
1710985905342,8549.037525050342
1710985905380,10496.933357446222
1710985905419,11487.784015180077
1710985905459,12781.672295835335
1710985905500,14208.886598924175
1710985905539,15149.56805613148
1710985905580,11020.925200119382
1710985905620,5864.641150680836
1710985905660,1405.7000391981564
1710985905700,148.9016139190644
1710985905740,39.32060340978205
1710985905781,742.8381143943407
1710985905820,2174.09979264671
1710985905861,2623.5831988896243
1710985905901,2869.0630712276325
1710985905941,2409.975311919814
1710985905982,2320.6186242327094
1710985906021,2971.503250411246
1710985906061,4565.642902648309
1710985906102,5664.568257287145
1710985906141,7543.974986939225
1710985906182,8912.241784308571
1710985906222,10735.699927388923
1710985906262,12434.617555995006
1710985906302,13448.791073713452
1710985906342,15056.416203217581
1710985906383,12217.513117255643
1710985906422,6588.962079736637
1710985906463,1840.6873147203587
1710985906503,-551.3936393093318
1710985906543,-920.8699856440071
1710985906584,83.80778959020972
1710985906623,1601.4873317554593
1710985906663,2499.7974300049245
1710985906704,2799.8722418826073
1710985906744,1313.0999731388874
1710985906785,1184.6508590644225
1710985906824,190.02688355068676
1710985906864,-438.19494295911863
1710985906904,3320.677321112249
1710985906945,9886.58605162683
1710985906985,12968.250158568379
1710985907025,19633.871926568914
1710985907065,23311.582587997895
1710985907105,26852.783593756612
1710985907145,26538.97147039557
1710985907186,22420.841844207607
1710985907226,18104.792079994688
1710985907266,16442.175978548126
1710985907306,15471.625922287814
1710985907346,15251.268133953447
1710985907387,16440.03121870011
1710985907427,15637.28194692405
1710985907467,12847.282683844678
1710985907507,9403.363806216279
1710985907550,6601.414646879304
1710985907588,5641.732932673767
1710985907627,5074.053533749189
1710985907668,5807.5648985463195
1710985907708,6076.812427795259
1710985907748,7932.936337486375
1710985907789,8970.95407518791
1710985907828,10589.413687886205
1710985907868,12086.526354051195
1710985907908,6223.981146545848
1710985907948,-116.44097519479692
1710985907989,-3603.10208715708
1710985908029,-3934.697640148923
1710985908069,-3903.0345251155086
1710985908109,-1533.6107329209335
1710985908149,1610.1593138161115
1710985908190,-631.8844387289137
1710985908229,-5830.605360684916
1710985908269,-5468.836173468735
1710985908309,-6410.008637272753
1710985908349,-3584.642534322571
1710985908390,-1675.06419555936
1710985908430,1043.8848420709837
1710985908470,3583.729359533172
1710985908510,5631.874800807796
1710985908550,7576.686972839292
1710985908591,8168.300476294942
1710985908630,4203.2269840505905
1710985908670,-3714.155761094298
1710985908711,-9885.180245142663
1710985908751,-13472.840145769995
1710985908791,-15021.28496685531
1710985908831,-14697.086194988573
1710985908871,-14075.021025370108
1710985908911,-12637.913887202507
1710985908951,-12582.65226415242
1710985908992,-11036.072607062757
1710985909031,-10401.32530736411
1710985909071,-8147.1938668903895
1710985909112,-6062.2423988771625
1710985909152,-4590.636490621604
1710985909193,-2068.690255225636
1710985909232,-314.25981805310585
1710985909272,1337.6996001987718
1710985909312,1667.0777701265179
1710985909352,-3070.49073864799
1710985909393,-8618.17537048203
1710985909432,-13606.650037128944
1710985909473,-15988.172960811062
1710985909513,-15840.08870241372
1710985909553,-14575.799184215954
1710985909594,-13712.585790040437
1710985909633,-13314.898006142117
1710985909673,-14205.908469943795
1710985909713,-14499.546850830782
1710985909756,-14345.358618109254
1710985909794,-12724.380323324818
1710985909834,-11800.706075282302
1710985909874,-9950.720260947943
1710985909914,-8039.652510538697
1710985909954,-5912.469205175061
1710985909995,-4643.720006953692
1710985910034,-5787.705397384707
1710985910074,-11606.622737077996
1710985910115,-17909.540093730902
1710985910155,-21763.24644714594
1710985910196,-23909.36490797717
1710985910235,-23671.408146418864
1710985910275,-22232.373973054113
1710985910315,-21166.3171623738
1710985910355,-22063.529611670412
1710985910396,-22425.037064699456
1710985910436,-22215.191451054532
1710985910476,-21589.409280332038
1710985910516,-19615.388843497727
1710985910556,-17420.2277167195
1710985910597,-15313.51973508927
1710985910636,-13485.538171624532
1710985910677,-11358.165972962044
1710985910717,-9150.067743459018
1710985910757,-10599.135461366968
1710985910798,-16913.00101016159
1710985910837,-22060.437330122804
1710985910877,-24622.689793533413
1710985910917,-25191.60104183806
1710985910957,-23697.587329199072
1710985910998,-21737.685705194715
1710985911038,-20146.885037107393
1710985911078,-20259.83826885908
1710985911118,-20102.543049474247
1710985911158,-19778.120572228916
1710985911199,-18361.69004733255
1710985911238,-16151.328203688841
1710985911279,-13639.653591900831
1710985911319,-11623.636087182676
1710985911359,-9352.89758627722
1710985911400,-7211.41051990143
1710985911439,-6488.84236470703
1710985911479,-10897.562793620396
1710985911519,-15624.739288806915
1710985911559,-18532.98239825014
1710985911600,-19234.028509210097
1710985911640,-17472.732112850295
1710985911680,-15161.1147432141
1710985911720,-13947.895420893095
1710985911760,-13231.111480538966
1710985911801,-13367.116512464825
1710985911840,-13091.152207194595
1710985911881,-11749.334876458859
1710985911921,-10078.901929421118
1710985911961,-7767.221672573127
1710985912002,-5153.547579778824
1710985912041,-3303.23886493966
1710985912081,-799.5360409549903
1710985912121,-418.7249315152876
1710985912161,-5068.077471063007
1710985912202,-9933.397700245026
1710985912242,-13397.295512738172
1710985912282,-14107.611169114476
1710985912322,-12420.924987731967
1710985912362,-9805.245640164707
1710985912403,-7929.382807143964
1710985912442,-6960.636335706338
1710985912483,-6670.219624108169
1710985912523,-6076.967790192692
1710985912563,-4431.804187935311
1710985912604,-2860.5961167304777
1710985912643,-754.015214312356
1710985912683,2000.6744154766202
1710985912724,3273.600284205051
1710985912763,5594.251032257453
1710985912804,6548.646078913705
1710985912844,2551.0478549646214
1710985912884,-2353.189232857898
1710985912924,-5437.006126904162
1710985912964,-6264.2522827498615
1710985913005,-5395.07276397408
1710985913044,-3478.447304267902
1710985913085,-1393.8949238166679
1710985913125,-161.61377392010763
1710985913165,-429.65568895149045
1710985913206,469.93357190839015
1710985913245,1115.4126672826242
1710985913285,2387.9529806307983
1710985913326,4901.377485301578
1710985913366,6927.931410095422
1710985913407,9401.500911979005
1710985913446,11691.697281317785
1710985913486,13655.691995538771
1710985913526,12075.7858922109
1710985913567,7140.968220857205
1710985913607,3229.199342554901
1710985913647,1342.2764819944277
1710985913687,1359.3240647858474
1710985913727,2975.594607682433
1710985913767,4530.331434304826
1710985913808,5413.66701181652
1710985913847,4937.716233913321
1710985913887,4563.113169315504
1710985913927,5480.842986955307
1710985913967,6080.25596126914
1710985914008,8039.011027912842
1710985914048,9412.277547071222
1710985914088,11093.900952556636
1710985914128,13115.22575073177
1710985914168,15082.15243142983
1710985914209,16448.380829407834
1710985914248,13158.154643416638
1710985914288,8279.629466403974
1710985914329,4772.083884804044
1710985914369,3317.44819557108
1710985914410,2981.7235544701107
1710985914449,4803.951085753273
1710985914489,6261.359562695026
1710985914529,6851.688458644319
1710985914569,6543.716904905392
1710985914610,6021.0346157394815
1710985914649,6610.883461638354
1710985914689,7738.048626650358
1710985914730,8674.456164796371
1710985914770,9935.48184607667
1710985914811,11613.012527227867
1710985914850,13121.18316090433
1710985914890,15165.92631622497
1710985914930,16553.138782926137
1710985914970,15215.79844500823
1710985915011,10507.896282488946
1710985915051,5685.826758253854
1710985915091,3142.4403196119238
1710985915131,2827.003721599467
1710985915171,4028.8509251105133
1710985915212,5455.277613027953
1710985915251,6663.725599498255
1710985915291,6792.982687296346
1710985915331,6425.995590815321
1710985915372,6420.188924271148
1710985915412,7457.1380813149735
1710985915452,8575.62352689961
1710985915492,9548.895200320985
1710985915532,10801.481032758486
1710985915572,12423.591272150166
1710985915613,13759.531989206094
1710985915652,14992.524256452918
1710985915692,16390.8855360006
1710985915733,14950.052614157321
1710985915772,9931.794485140592
1710985915813,5705.42117460072
1710985915853,3567.2407280504704
1710985915893,3791.308308972977
1710985915933,4641.5822850258555
1710985915973,5667.155441144016
1710985916014,6360.286526154494
1710985916053,6201.83695170912
1710985916094,5547.392511761747
1710985916134,6000.18294149451
1710985916174,6045.2884641077835
1710985916215,7526.102880073246
1710985916254,8933.369351210073
1710985916294,10334.098031994887
1710985916334,11616.359583612299
1710985916375,13378.85030060145
1710985916415,15224.40727332863
1710985916455,16460.740482151043
1710985916495,13311.704463130096
1710985916535,8483.941861453932
1710985916575,4209.602112540975
1710985916616,2766.31095380825
1710985916655,2705.2526239692234
1710985916696,3887.040515252389
1710985916736,5202.56637411518
1710985916776,5884.255710168742
1710985916817,5626.621553431265
1710985916856,5140.59410347743
1710985916896,5401.142994420137
1710985916937,6452.179413469741
1710985916977,7785.706492804922
1710985917017,8652.697627860587
1710985917057,10077.438859885093
1710985917097,11053.755771329626
1710985917137,12335.186888897093
1710985917178,13659.547947131796
1710985917218,13014.035059796646
1710985917258,7103.779532506596
1710985917298,1162.6410599718802
1710985917338,-2474.0781110255048
1710985917378,-3448.4788602897897
1710985917419,-3054.4800527838524
1710985917458,-1703.9185331934132
1710985917499,-1136.8244949970394
1710985917539,-983.2175860989373
1710985917579,-1698.8647925555706
1710985917620,-1746.0430762765463
1710985917659,-1691.680944247637
1710985917699,-576.7652121256106
1710985917740,346.5681081279181
1710985917780,1986.3078265716322
1710985917821,3790.151332326699
1710985917860,4943.802042579977
1710985917900,5766.613822394982
1710985917940,7661.358369410504
1710985917980,5567.598301462131
1710985918021,-787.0494990909938
1710985918061,-7012.87884830893
1710985918101,-11029.130737158004
1710985918141,-12057.171856401488
1710985918181,-11701.68334089918
1710985918222,-10235.09746727324
1710985918262,-9577.59742535511
1710985918302,-9361.932375165867
1710985918342,-10319.865709315054
1710985918382,-10428.675980268046
1710985918423,-10267.71916724369
1710985918462,-9682.335076001007
1710985918502,-7674.404934929451
1710985918542,-5462.6215960080735
1710985918583,-2947.9426033732016
1710985918624,-1023.598228068091
1710985918663,450.19293578271754
1710985918703,2015.2651789614465
1710985918743,3391.661696937401
1710985918783,-1135.5926888065878
1710985918824,-7377.710591950221
1710985918864,-12259.344460987952
1710985918904,-14575.075528075453
1710985918944,-15010.576244750991
1710985918984,-14127.21523057716
1710985919025,-12587.38804305764
1710985919065,-12596.555596267339
1710985919105,-13857.037044751225
1710985919145,-14411.29147747904
1710985919185,-12744.78032360482
1710985919226,-10933.174470276572
1710985919265,-8963.263085662387
1710985919305,-6381.14568559709
1710985919345,-4440.172410788946
1710985919385,-2243.199793661246
1710985919426,-725.0624418933876
1710985919466,1028.7579544819891
1710985919506,2010.09400648484
1710985919546,-1619.4191130755935
1710985919586,-7652.342640917748
1710985919627,-12863.307601728244
1710985919666,-14880.325135222869
1710985919706,-13892.468245352851
1710985919746,-12910.875788303558
1710985919786,-11377.942828059662
1710985919827,-10554.499339052942
1710985919867,-11151.388333113166
1710985919907,-11312.65660703322
1710985919947,-10556.005811264273
1710985919987,-8670.859644996934
1710985920028,-7243.308149658609
1710985920067,-5670.885043217801
1710985920107,-3440.847411374096
1710985920147,-1708.043021098245
1710985920188,428.0831851020921
1710985920228,1990.0686833644286
1710985920268,4092.0757844687905
1710985920308,5829.662252592621
1710985920348,3341.2772877591196
1710985920388,-1635.2263952922076
1710985920429,-5309.503792584408
1710985920468,-6529.334609806538
1710985920508,-6485.577633858658
1710985920549,-4960.8846049504355
1710985920589,-3411.3823062470183
1710985920629,-2364.210808076896
1710985920669,-1961.8409715727903
1710985920709,-2186.369564926019
1710985920749,-1703.0175914815627
1710985920789,-198.29118271637708
1710985920830,1198.4975089200307
1710985920870,3447.080682413187
1710985920910,5616.712186879944
1710985920950,7318.102968937485
1710985920990,9138.41711885645
1710985921031,11248.424269909738
1710985921070,11807.279877823545
1710985921110,8494.448735082522
1710985921151,4308.552606902318
1710985921190,1367.4106243145652
1710985921231,429.3976045809686
1710985921271,951.6689593885094
1710985921311,3100.4285827449057
1710985921351,4760.343537842389
1710985921391,4896.0574458292685
1710985921432,5070.8378286897205
1710985921471,5020.0009226766415
1710985921512,6395.409169443883
1710985921552,7762.768579920055
1710985921592,9155.139759888407
1710985921633,10712.819892697036
1710985921672,13113.212928575464
1710985921712,14517.097098479047
1710985921752,16082.896097165765
1710985921792,16165.487214213703
1710985921833,12067.424345942214
1710985921873,6796.084227428539
1710985921913,3641.240164180519
1710985921953,3247.9964612438343
1710985921993,3031.3248166004196
1710985922034,4069.7440523402765
1710985922073,4796.551819826011
1710985922114,5374.131746084429
1710985922154,4246.828346705064
1710985922194,3947.0313084064983
1710985922235,4657.492571345065
1710985922274,5622.467543990817
1710985922314,7293.243391604163
1710985922350,8968.144800833892
1710985922390,10069.306729811244
1710985922431,11562.60036552907
1710985922471,12727.078933116514
1710985922511,12545.042944821296
1710985922551,8093.285726034548
1710985922591,3174.322417875286
1710985922632,167.84731869213283
1710985922671,-524.1352250948548
1710985922711,-443.7881941036321
1710985922752,583.9946898762137
1710985922792,1625.921169680776
1710985922833,1558.5119773002807
1710985922872,1168.2901967216749
1710985922912,1347.6528555201367
1710985922952,1568.5765951161738
1710985922992,2776.801139792893
1710985923033,4188.34595473879
1710985923073,5726.789236363489
1710985923113,7134.671104108915
1710985923153,8821.826730599161
1710985923193,10198.320013519377
1710985923234,9091.854065310676
1710985923273,5528.2020291057415
1710985923314,1403.368056518957
1710985923354,-1200.409469848033
1710985923394,-1870.931143161608
1710985923435,-2214.0637416597456
1710985923474,-262.94869059626944
1710985923514,1265.1768649742007
1710985923554,1832.0651155239902
1710985923594,1759.5048018302768
1710985923635,2463.4603370442055
1710985923675,3355.9496827761177
1710985923715,4702.83872366976
1710985923755,6407.536935274256
1710985923795,7361.299348395551
1710985923836,8857.358765180688
1710985923876,10845.098534629447
1710985923916,12664.148632704979
1710985923956,10836.930575831328
1710985923996,6672.134801983135
1710985924037,3633.4066350278445
1710985924076,1728.6439485410228
1710985924117,1556.5825627280865
1710985924157,2812.7439891851973
1710985924197,4029.6619067098945
1710985924238,4538.527821185533
1710985924277,4551.506513314322
1710985924317,4349.021666793153
1710985924358,4389.745097142877
1710985924398,5165.895207121968
1710985924438,6028.570697074523
1710985924478,7350.339857275598
1710985924518,9031.11760932533
1710985924558,10300.567678370047
1710985924598,11474.636906214291
1710985924639,9631.134797347942
1710985924679,4832.467486309353
1710985924719,1663.4979735882953
1710985924759,-1063.5525640603155
1710985924799,-2199.716203896096
1710985924840,-1453.9291306952946
1710985924879,-287.08835737546906
1710985924919,-176.1134980369825
1710985924960,-160.51179051515646
1710985925000,-872.8494846597314
1710985925040,-390.64788640802726
1710985925080,1165.4432980213314
1710985925120,2645.953350570984
1710985925160,3923.26482216781
1710985925200,4936.157963615609
1710985925241,6554.31992042507
1710985925280,8384.779806194827
1710985925320,8330.772916357033
1710985925361,3828.2236951165833
1710985925401,-912.1359328087419
1710985925441,-4679.218880473869
1710985925481,-5776.24262671778
1710985925521,-5541.329049774911
1710985925561,-4761.046613024548
1710985925601,-4028.829949373845
1710985925642,-3335.210027008783
1710985925681,-3582.4685502923094
1710985925722,-3462.1352674637455
1710985925762,-3001.931743655121
1710985925802,-1249.2196133085527
1710985925843,233.0308259720914
1710985925882,1445.6174345065374
1710985925922,3342.0420267984737
1710985925962,4901.682447104016
1710985926002,6452.16842411994
1710985926043,7687.536358148791
1710985926083,4661.956512921955
1710985926123,18.077618210110813
1710985926163,-3374.8719418300316
1710985926203,-5245.847689622082
1710985926244,-5178.438715853728
1710985926283,-3736.3532791740727
1710985926323,-2399.3051495868713
1710985926363,-2222.925487810513
1710985926403,-2598.3620701048058
1710985926444,-2577.288478310453
1710985926484,-1467.593651310075
1710985926524,-344.4254161468707
1710985926564,1001.5791610383894
1710985926604,2406.7715759314597
1710985926645,4417.580677787308
1710985926684,5993.407297945581
1710985926724,8483.599186138483
1710985926764,10171.929948824923
1710985926805,10753.086664021946
1710985926845,8077.774015502073
1710985926885,3907.9560217992403
1710985926925,1165.3061651077587
1710985926965,516.8451124737039
1710985927005,809.1840395203326
1710985927046,2174.990951633081
1710985927085,3073.607833248563
1710985927126,4142.978630350903
1710985927166,5308.5614348985255
1710985927206,5350.094515596051
1710985927247,6801.684731966583
1710985927286,8362.835690903943
1710985927326,9772.28524691891
1710985927366,11303.828426759923
1710985927407,12283.004145919578
1710985927447,14109.768902189331
1710985927487,15690.204856595024
1710985927527,17014.667336570797
1710985927567,18143.780541450717
1710985927607,16462.57490820461
1710985927648,12985.786956926808
1710985927687,10711.818559230538
1710985927727,9592.137239898788
1710985927768,9362.296861809213
1710985927808,10563.68908347981
1710985927849,11431.42182626389
1710985927888,12036.117548792157
1710985927928,11849.59789573634
1710985927968,11935.527458943427
1710985928009,11539.791710401885
1710985928049,12087.118263122393
1710985928089,13499.338512543123
1710985928129,14337.486473834375
1710985928169,15617.953776518814
1710985928209,16475.91339576873
1710985928250,17522.21944393264
1710985928289,18839.280483529903
1710985928329,19278.69496041094
1710985928370,16176.247558064526
1710985928410,13130.268238169607
1710985928451,11186.48946208693
1710985928490,11047.27436244674
1710985928530,11212.869601788232
1710985928570,12502.151478719898
1710985928611,12626.305453022476
1710985928651,12643.588214799063
1710985928691,13442.698536564363
1710985928731,12966.344780559186
1710985928771,13628.777063696645
1710985928811,14002.813108174596
1710985928852,14903.178894404788
1710985928892,16492.271089434857
1710985928932,17257.35516175907
1710985928972,17799.001634072047
1710985929012,18685.7751628384
1710985929053,19324.601867705816
1710985929092,15745.782267161412
1710985929132,11323.318486756645
1710985929173,7713.6554915676825
1710985929213,6308.037082344294
1710985929254,5462.096032415982
1710985929293,5912.053002538625
1710985929333,6591.988578630146
1710985929373,6422.660845469683
1710985929413,5568.259014763171
1710985929454,5489.060271107592
1710985929494,5080.032605919056
1710985929534,5475.732137260959
1710985929574,6135.829823830165
1710985929614,6698.019942275714
1710985929655,7749.940779979574
1710985929695,8224.48403663165
1710985929735,8763.373871757649
1710985929775,9728.28906101361
1710985929815,9891.50376057718
1710985929856,5862.074864059687
1710985929895,1171.6112344521098
1710985929936,-3291.0426729945466
1710985929976,-5644.348800626118
1710985930016,-6177.190707435831
1710985930057,-5425.017346629873
1710985930096,-3887.908267509425
1710985930136,-3776.539938325528
1710985930176,-5146.156123142224
1710985930217,-5366.355118722422
1710985930257,-5709.665293427883
1710985930297,-5171.727888719179
1710985930337,-2544.546931409277
1710985930377,2400.9982424187474
1710985930417,5405.601008960046
1710985930458,9190.418807164067
1710985930497,9548.832358279964
1710985930538,10066.409013770986
1710985930578,7527.159230263671
1710985930618,781.1256721911486
1710985930659,-5587.708545277361
1710985930698,-9229.376495297533
1710985930738,-11074.287509901449
1710985930778,-11157.973955110647
1710985930818,-10500.717042696895
1710985930859,-10001.998360009165
1710985930898,-10461.053844726877
1710985930938,-11692.216306915972
1710985930979,-11738.576891856268
1710985931019,-11980.108289581258
1710985931059,-11207.214324199129
1710985931099,-10520.687242429703
1710985931139,-8501.613903318997
1710985931179,-7664.243963822024
1710985931219,-5229.887570532272
1710985931260,-3899.6655548927374
1710985931300,-2020.080173438415
1710985931340,-1254.3827851121314
1710985931380,-6166.120972216129
1710985931420,-11778.920988465194
1710985931461,-16236.810414990876
1710985931500,-17982.58542619599
1710985931540,-17284.542071078904
1710985931580,-16240.330214272253
1710985931620,-13521.797858440084
1710985931661,-15900.473360662349
1710985931701,-19810.660960239824
1710985931741,-20718.468710775254
1710985931781,-20213.88826982188
1710985931821,-18322.58500834834
1710985931862,-15464.846200341126
1710985931901,-11420.671713975258
1710985931941,-6898.797403029166
1710985931981,-2210.6407027705573
1710985932021,-239.9754389319569
1710985932062,2611.754921521526
1710985932102,4020.3361381492577
1710985932142,1477.0818239133805
1710985932182,-2857.9477947752457
1710985932222,-5381.267945388798
1710985932263,-6302.66721290024
1710985932302,-4155.4101589631755
1710985932343,-1531.3337112127338
1710985932382,1188.169547519181
1710985932423,2471.7632903615013
1710985932464,3661.126344016753
1710985932503,3351.4361452246085
1710985932543,4325.486612262903
1710985932583,5671.615066804923
1710985932623,6812.097770313732
1710985932664,8623.636514203856
1710985932704,9532.417465039063
1710985932744,11369.98576397635
1710985932784,13005.658440929838
1710985932824,13383.905315899756
1710985932865,10995.453480440658
1710985932904,3325.8663754616864
1710985932944,-2801.0036438938696
1710985932984,-6686.7394600582775
1710985933024,-8485.809259006288
1710985933065,-7925.84369058907
1710985933105,-5227.1267518224195
1710985933145,-3077.324601173168
1710985933185,-1546.2336767201778
1710985933225,-1321.925387501251
1710985933266,-1639.319177890895
1710985933306,-176.53129728371277
1710985933346,882.6205414724536
1710985933386,3381.231453976361
1710985933426,4735.647910331143
1710985933467,7148.135727429297
1710985933506,8357.527529445011
1710985933546,10842.128167938907
1710985933586,12364.158172575757
1710985933626,10317.216213017702
1710985933667,6006.887163938023
1710985933707,2141.2391262506135
1710985933747,603.6043634219095
1710985933787,1432.2033831826411
1710985933827,2487.1019229711965
1710985933868,3398.8130298946053
1710985933907,3366.2530392166227
1710985933947,3326.16210558312
1710985933988,2711.0757764205337
1710985934028,2344.703244464472
1710985934069,2737.088580719661
1710985934108,4790.148076382
1710985934148,6912.915688938927
1710985934188,8230.750672718976
1710985934228,9945.670834865421
1710985934269,11554.547003967687
1710985934309,13880.586421339307
1710985934349,14440.645181504311
1710985934393,9721.668341867626
1710985934433,4508.265003906563
1710985934474,743.5958401774988
1710985934513,-545.9831191210542
1710985934553,8.184100054204464
1710985934593,761.613528280519
1710985934634,1946.1833585065324
1710985934674,-272.76499996194616
1710985934714,-2370.239579555113
1710985934754,-4597.8366336131
1710985934794,-5356.61163297249
1710985934834,-5329.175599088892
1710985934875,-4564.179941159207
1710985934915,-3180.341609691968
1710985934955,-1445.1970440936275
1710985934995,718.4936794997193
1710985935035,3057.8861196152866
1710985935076,4390.924132129643
1710985935116,1490.6752112610266
1710985935156,-2746.5040611983277
1710985935196,-5583.158338217996
1710985935236,-6391.667110980954
1710985935277,-5647.9298634994775
1710985935316,-3510.6191582493484
1710985935356,-1714.9174532308243
1710985935396,-1657.6751591332722
1710985935437,-1738.3251069232356
1710985935478,-242.7324524014257
1710985935517,715.2977760350332
1710985935557,1784.7101138723083
1710985935597,2192.186801985139
1710985935637,3959.6489461963065
1710985935678,5159.468380050268
1710985935718,6127.506102195242
1710985935758,6681.427734275814
1710985935798,4104.447160213254
1710985935838,-2686.0929229115136
1710985935879,-8603.929599459749
1710985935919,-12657.711084126262
1710985935959,-14225.66326727951
1710985935999,-14017.266829505796
1710985936039,-13730.594795725308
1710985936080,-13205.786061994499
1710985936119,-14246.87252637744
1710985936160,-15343.728124327725
1710985936200,-15761.882368730381
1710985936240,-15346.239797138609
1710985936280,-14456.447171126492
1710985936320,-13425.769038825296
1710985936360,-11728.633447146043
1710985936400,-10611.615117057925
1710985936440,-9049.009031768423
1710985936481,-7808.094798718579
1710985936520,-10355.602497731335
1710985936560,-16672.68103535846
1710985936600,-23157.826379834674
1710985936640,-27961.4524134323
1710985936681,-29388.656264355406
1710985936721,-28996.74942302052
1710985936761,-28597.187331616646
1710985936801,-28380.234514018986
1710985936841,-28499.334249024745
1710985936882,-28593.25516764936
1710985936921,-28996.968348652357
1710985936961,-27224.964102722937
