Timestamp,Cleaned_PPG
1712226188896,0.0
1712226188939,0.0
1712226188977,0.0
1712226189016,0.0
1712226189056,0.0
1712226189097,0.0
1712226189137,0.0
1712226189178,0.0
1712226189217,0.0
1712226189257,0.0
1712226189297,0.0
1712226189337,0.0
1712226189378,0.0
1712226189417,0.0
1712226189457,0.0
1712226189498,0.0
1712226189538,0.0
1712226189579,0.0
1712226189618,0.0
1712226189658,0.0
1712226189698,0.0
1712226189738,0.0
1712226189779,0.0
1712226189818,0.0
1712226189858,0.0
1712226189898,0.0
1712226189938,0.0
1712226189979,0.0
1712226190019,0.0
1712226190059,0.0
1712226190099,0.0
1712226190139,0.0
1712226190180,2080018.0
1712226190219,1942005.9742345246
1712226190259,1817695.141954036
1712226190299,1705965.2820252406
1712226190339,1603134.9990574312
1712226190380,1509125.4671044622
1712226190420,1418788.1575259473
1712226190459,1325862.4729070421
1712226190499,1227977.7462937497
1712226190540,1169101.0463944492
1712226190581,1186830.0536252758
1712226190620,1235863.1155837243
1712226190660,1246465.685291667
1712226190700,1174904.56616233
1712226190740,1428143.1509930321
1712226190781,1490167.2383906813
1712226190820,1230796.183117412
1712226190860,1123074.1378253289
1712226190901,1044107.6005485654
1712226190941,944041.9460815638
1712226190982,845928.3356978977
1712226191021,1173899.8474834252
1712226191061,1898451.326093153
1712226191101,1376278.4055434288
1712226191144,791933.8006131612
1712226191182,1001032.8709805552
1712226191221,775630.075835696
1712226191261,761273.3498229794
1712226191301,1109853.357842585
1712226191341,938887.7398862364
1712226191382,1720317.2455916782
1712226191422,1635132.6980266795
1712226191462,1468804.7200135374
1712226191502,1372343.5429668487
1712226191542,1297902.9582743784
1712226191583,1197842.1059411825
1712226191622,1141270.338468317
1712226191662,1081978.1784690823
1712226191702,1040597.6720228372
1712226191743,956398.8964870842
1712226191783,906860.8815246867
1712226191823,854290.0101181772
1712226191863,749368.5464461995
1712226191903,629462.1349407658
1712226191943,488075.6594145838
1712226191984,470039.3414696939
1712226192023,506082.7191082686
1712226192063,513687.3478928497
1712226192104,474982.4799385872
1712226192144,411859.6401500376
1712226192184,384245.4706900087
1712226192224,381946.6512607215
1712226192264,340094.7403751584
1712226192304,328933.13603891805
1712226192344,311058.4715733747
1712226192385,337009.9417629312
1712226192424,329910.81134112366
1712226192465,255989.7267111726
1712226192505,185753.31958752684
1712226192545,131968.26818720065
1712226192586,49029.87909539789
1712226192625,-287562.7004014747
1712226192665,-358479.6179702906
1712226192705,130407.47954303818
1712226192745,235475.73115105368
1712226192786,199973.29844068224
1712226192825,149855.67555694282
1712226192865,143709.14579799166
1712226192906,109650.87626590487
1712226192946,79292.89114273619
1712226192986,50057.32766328007
1712226193026,33599.95293442113
1712226193066,43102.54254485387
1712226193106,3984.7718595094047
1712226193146,9767.876303046942
1712226193187,124983.85647490062
1712226193226,207072.67033380643
1712226193266,171658.26942167105
1712226193307,130899.86048983922
1712226193349,35912.992575091776
1712226193387,59389.71546394564
1712226193427,57174.48697807314
1712226193467,64135.93638147041
1712226193507,64417.70887355879
1712226193547,84538.69680435536
1712226193588,109434.86098674638
1712226193628,130988.36051706877
1712226193668,107460.68776959181
1712226193708,126871.45424703229
1712226193748,22705.24769929191
1712226193789,-272707.4793904405
1712226193828,-257929.00098668924
1712226193868,-276951.04471818125
1712226193908,-161300.20984213613
1712226193948,-157116.29866503133
1712226193989,-105186.4303586767
1712226194029,-155501.27319760667
1712226194069,295939.38359625265
1712226194109,247519.26701684855
1712226194149,224862.60741016734
1712226194190,121128.1387401321
1712226194229,229791.99063248793
1712226194269,180139.0710380869
1712226194309,194581.6897846684
1712226194350,185034.97120875306
1712226194390,182477.69161302038
1712226194430,182694.95471454272
1712226194470,163261.0126209017
1712226194510,151229.6631895597
1712226194550,125.37076325062662
1712226194591,-79312.13692524051
1712226194631,9085.39095997531
1712226194670,27934.901107669808
1712226194711,48964.096482184716
1712226194751,66960.40095668845
1712226194791,17449.94142626878
1712226194831,-4302.574451830704
1712226194871,739.9785667778924
1712226194911,3584.99585245084
1712226194951,54167.110283120535
1712226194992,63201.27941422537
1712226195032,75632.94808717817
1712226195072,68701.70501061203
1712226195112,67067.38298872625
1712226195152,76839.81965519581
1712226195193,63502.535429556854
1712226195232,65162.62740063248
1712226195272,72229.70441351179
1712226195312,63675.89503156999
1712226195353,-1231.6899680811912
1712226195393,36196.26974167302
1712226195433,68899.69805034949
1712226195473,104503.54794751434
1712226195514,69210.68307043519
1712226195555,-426.8317020609975
1712226195596,7384.381428959779
1712226195635,-11622.415374746546
1712226195675,2143.4607809400186
1712226195716,7017.545541962143
1712226195756,-343.1289481148124
1712226195797,4526.429654610809
1712226195837,-6622.538786848076
1712226195877,-19067.709613882937
1712226195918,-40097.32123023458
1712226195958,-40312.09583458491
1712226195999,-27575.37819346413
1712226196038,-20860.581358675845
1712226196078,41276.0219953917
1712226196118,89039.06284048501
1712226196159,82928.49550964311
1712226196200,85102.37608820153
1712226196239,68317.20620698901
1712226196279,64218.961065350566
1712226196319,52177.93479546299
1712226196359,37567.34842896415
1712226196400,31160.91160301119
1712226196440,27356.178855245933
1712226196480,35377.576084350236
1712226196520,46483.182123634964
1712226196561,47035.87914315704
1712226196601,50323.07070158422
1712226196641,51204.23797639599
1712226196681,49545.55237888824
1712226196721,44851.954149492085
1712226196761,15543.232810326852
1712226196802,33963.03280277271
1712226196842,95825.87811236363
1712226196882,78836.07612720132
1712226196922,105911.05267574592
1712226196963,81849.66488440149
1712226197004,74532.2090191911
1712226197046,76040.1411503125
1712226197086,102652.75692078797
1712226197127,93920.73236290179
1712226197167,93341.05358260218
1712226197208,98352.46879104152
1712226197247,110864.2915307479
1712226197288,107300.58543187287
1712226197328,86425.3021858707
1712226197368,47579.000388859306
1712226197409,53066.331386698876
1712226197449,56368.89502451662
1712226197489,40355.75016577449
1712226197529,36318.28906135773
1712226197570,-2391.97394826822
1712226197611,7968.763148046564
1712226197650,16335.5550940549
1712226197690,14677.592370145023
1712226197731,13460.900965051726
1712226197771,15533.98627561843
1712226197813,-1720378.9470770806
1712226197853,-1616160.6929026889
1712226197893,-1514679.9826056147
1712226197933,-1412063.3574290625
1712226197973,-1345552.4208797882
1712226198014,-1286170.9406025503
1712226198054,-1223262.2163537336
1712226198094,-1166467.69481239
1712226198135,-1114081.984028425
1712226198175,-1047628.6628660033
1712226198216,-1307833.9506808836
1712226198255,-1209048.9519361379
1712226198295,-1125996.4927516598
1712226198335,-1062430.0861960757
1712226198376,-1011117.2263379516
1712226198417,-1021314.9658425478
1712226198456,-995158.2488628076
1712226198496,-911110.8062532414
1712226198536,-865474.8028509896
1712226198577,-803612.8802558803
1712226198618,-570217.1767211659
1712226198657,-527932.2481708708
1712226198697,-487607.0505250357
1712226198737,-450690.66667967103
1712226198777,-416341.95916410396
1712226198818,-547257.7222640556
1712226198857,-498691.2420554962
1712226198897,-469103.5141408872
1712226198938,-446948.6297722794
1712226198978,-376201.7884756611
1712226199019,-360956.974759439
1712226199058,-329117.62287472375
1712226199098,-345778.60945455823
1712226199138,-376740.27209314145
1712226199179,-354069.570813674
1712226199220,-348358.32812741864
1712226199259,-292161.22993757203
1712226199299,-249308.07400463521
1712226199339,-216828.31327872956
1712226199380,-177233.56255438924
1712226199421,-144407.09945795964
1712226199460,-127995.03252790403
1712226199500,-112060.35500043351
1712226199540,-129605.70617812965
1712226199581,-137977.13462986238
1712226199622,-135052.89720807038
1712226199661,-135222.4305037167
1712226199701,-143688.05764793092
1712226199741,-119749.62873047171
1712226199782,-91888.12964013172
1712226199823,-72400.26980249444
1712226199862,-52903.18874361832
1712226199902,-29541.687804476358
1712226199943,-13372.76757883327
1712226199983,-20721.06542041246
1712226200024,-17513.964087661356
1712226200064,-29083.239535590634
1712226200104,-42164.77331464179
1712226200144,-18071.37161180377
1712226200184,-14953.7555180192
1712226200225,-20380.085970323533
1712226200265,-15998.452506531961
1712226200306,-35504.72323160805
1712226200346,-54830.71158623928
1712226200387,-45705.603853266686
1712226200428,-40009.08362676762
1712226200467,-37811.982918927446
1712226200508,-22061.851814343594
1712226200548,-8468.16099742474
1712226200588,-4654.777234575711
1712226200629,5856.944294071756
1712226200669,4197.507396919653
1712226200709,8822.995696018916
1712226200749,13267.198635671753
1712226200790,6428.708309222013
1712226200832,16415.755069291685
1712226200871,11867.926323278807
1712226200912,11933.527418147773
1712226200951,16519.27856597025
1712226200990,17524.558724723756
1712226201029,28411.083265339024
1712226201068,32370.755262278486
1712226201107,32362.844482842833
1712226201146,40349.04026979674
1712226201185,39947.14326405246
1712226201224,40028.03464845847
1712226201263,37834.19343169592
1712226201302,46599.37198413955
1712226201341,46144.51766981417
1712226201380,49237.64941290161
1712226201419,32379.837728407234
1712226201458,24580.55397241516
1712226201497,35278.31682010228
1712226201536,31490.72775484156
1712226201575,53416.892534937244
1712226201614,65731.91400284925
1712226201653,58815.27044738643
1712226201692,56011.8158949567
1712226201731,49720.57991299778
1712226201770,44061.70256576501
1712226201809,31916.370100066997
1712226201848,23897.23925479874
1712226201887,14022.95694008004
1712226201926,12406.661072878167
1712226201965,9706.485724117607
1712226202004,8987.580655719154
1712226202044,7746.420440185349
1712226202084,13918.64720710367
1712226202124,16886.92369320523
1712226202164,1207.5037793461233
1712226202204,-9358.159220904578
1712226202244,-17049.639247750863
1712226202284,-26528.78973955009
1712226202324,-25674.2904193555
1712226202364,-22470.50775320595
1712226202404,-21245.308565084822
1712226202444,-13015.162985571194
1712226202484,-7256.020867494401
1712226202524,-1879.5537787158974
1712226202564,-3491.5370990824886
1712226202604,24678.955060190056
1712226202644,126868.29899354745
1712226202684,286389.0098170354
1712226202724,285337.07163518295
1712226202764,139559.66087421356
1712226202804,72581.83353999071
1712226202844,45608.71874055825
1712226202884,45536.299186901655
1712226202924,55648.82236019056
1712226202964,58232.27589556901
1712226203004,57014.73529163189
1712226203044,53287.932577673346
1712226203084,51581.83894030657
1712226203124,51420.697431369685
1712226203164,50138.75948948646
1712226203204,51116.992301825434
1712226203244,44753.62989676604
1712226203284,37641.24714261014
1712226203324,41097.48690115381
1712226203364,47101.170169373974
1712226203404,67012.33919698652
1712226203444,92563.160130898
1712226203484,89403.11121027404
1712226203524,67741.78719879314
1712226203564,48524.62071010796
1712226203604,35854.844927875325
1712226203644,15098.41781619424
1712226203684,-2625.8123290529475
1712226203724,-25747.54239094397
1712226203764,-44873.31320021488
1712226203804,-55382.78494022181
1712226203844,-61210.80723156314
1712226203884,-56785.84986754088
1712226203924,-33657.53074970003
1712226203964,-2430.6149658532813
1712226204004,31657.509773605037
1712226204044,45860.4205480041
1712226204084,34943.95502117276
1712226204124,34409.851139597595
1712226204164,26516.66446900135
1712226204204,13448.567018649075
1712226204244,11398.470119698904
1712226204284,5455.804608783219
1712226204324,3390.504440483637
1712226204364,-35515.379411548376
1712226204404,-36936.1108809826
1712226204444,-36104.71001626551
1712226204484,-40537.68156215735
1712226204524,-33517.364952778444
1712226204564,-19096.455471801106
1712226204604,-1591.5996684161946
1712226204644,-6196.19945769012
1712226204684,-7025.750634121709
1712226204724,-32878.1517141005
1712226204764,-10283.227940333076
1712226204804,5315.587553994264
1712226204844,21275.9374288572
1712226204884,22938.295138131827
1712226204924,46678.992377455346
1712226204964,59142.97992943227
1712226205004,78059.91414422821
1712226205044,87187.21798686683
1712226205084,92364.83233584277
1712226205124,94204.25933599332
1712226205164,76399.05318313139
1712226205204,66644.01192258392
1712226205244,52881.942031031474
1712226205284,48617.96051488025
1712226205324,40108.81585180992
1712226205364,25809.437380515505
1712226205404,16451.56509037176
1712226205444,-12675.603522592224
1712226205484,27881.352845803834
1712226205524,47028.50438916031
1712226205564,216735.33103752602
1712226205604,240764.3680173331
1712226205644,355771.6563579035
1712226205684,375691.25221804343
1712226205724,588814.8668779796
1712226205764,958675.9134757705
1712226205804,1083218.6685534315
1712226205844,1268989.8453148436
1712226205884,868886.8213488767
1712226205924,-173044.79589052033
1712226205964,-459361.5377896116
1712226206004,-465289.6807840457
1712226206044,-449992.35525655746
1712226206084,-397167.02725315
1712226206124,-360103.8782570595
1712226206164,-316828.68307713047
1712226206204,-285313.3835121342
1712226206244,-251456.89118306106
1712226206284,-228411.77617215365
1712226206324,-211028.20330074104
1712226206364,-195460.65106584132
1712226206404,-192810.3301513889
1712226206444,-184831.28674320364
1712226206484,-195281.39310787525
1712226206524,-199381.76169949025
1712226206564,-204706.7704698108
1712226206604,-183570.29689246695
1712226206644,-163492.94038159866
1712226206684,-149707.6748424936
1712226206724,-100575.98462327104
1712226206764,-110430.98962951358
1712226206804,-92271.86550050182
1712226206844,-5805.327169023454
1712226206884,80807.07872637268
1712226206924,-70558.05865055975
1712226206964,-391819.7979400987
1712226207004,-503662.94579288084
1712226207044,-657298.655572366
1712226207084,-536136.0449608276
1712226207124,-485233.7253103787
1712226207164,1596163.5420748303
1712226207204,1472165.6851567375
1712226207244,1392289.1278331373
1712226207284,1264137.897664797
1712226207324,1155006.9895105343
1712226207364,1045636.9408776416
1712226207404,378360.3919936642
1712226207444,-633217.3243173785
1712226207484,-1221348.4013344971
1712226207524,-1501326.5017038295
1712226207564,-1422136.0970360897
1712226207604,-1266881.9550779108
1712226207644,-1287276.675311517
1712226207684,-753067.287001281
1712226207724,146158.55164343957
1712226207764,618819.5815746738
1712226207804,461798.95087682735
1712226207844,742402.4433791498
1712226207884,909050.3631476164
1712226207924,11043.878120326437
1712226207964,-141949.9456685139
1712226208004,-373259.6066352241
1712226208044,-499542.269000181
1712226208084,-264899.70025059674
1712226208124,192498.33382747928
1712226208164,576585.2207185961
1712226208204,674584.6849808558
1712226208244,1117809.5497440705
1712226208284,1340462.2333235964
1712226208324,1603012.6788426698
1712226208364,1492416.3767436333
1712226208404,1445678.4051131052
1712226208444,1382440.3254293208
1712226208484,1264004.6597817447
1712226208524,1190474.410822024
1712226208564,1158512.7895235694
1712226208604,1079785.3331596972
1712226208644,999080.7330280673
1712226208684,924646.1036151787
1712226208724,864028.697340196
1712226208764,801965.2473762999
1712226208804,756067.9586065956
1712226208844,684313.402917427
1712226208884,662579.7974434034
1712226208924,621226.3281302894
1712226208964,572911.7994478024
1712226209004,543833.4646890573
1712226209044,528142.9138588575
1712226209084,485519.2723167115
1712226209124,422567.7670228672
1712226209164,-1651117.5822501094
1712226209204,-1256870.3164537502
1712226209244,587199.7077778373
1712226209284,565191.812154727
1712226209324,552566.4058538019
1712226209364,491773.6949713072
1712226209404,442295.46981278155
1712226209444,418462.34420123417
1712226209484,394203.669259008
1712226209524,374779.6619956391
1712226209564,330115.5963370176
1712226209604,322439.31393030705
1712226209644,298378.7276460873
1712226209684,275192.3762284275
1712226209724,241710.80205341708
1712226209764,261541.58206868125
1712226209804,237644.32723790174
1712226209844,199574.2314613443
1712226209884,220177.85642236425
1712226209924,118278.83076283056
1712226209964,-769154.8694506167
1712226210004,151809.5180807812
1712226210044,148128.8661892088
1712226210084,139508.97563312855
1712226210124,148980.24142553937
1712226210164,111321.85303733218
1712226210204,70496.47545348946
1712226210244,-1131261.673871609
1712226210284,-1245889.3285515355
1712226210324,-2030976.9074644716
1712226210364,-2359284.3779151514
1712226210404,-1776723.1689639995
1712226210444,243922.06843615416
1712226210484,589752.1185500901
1712226210524,551293.6033160007
1712226210564,483314.5081337807
1712226210604,-1614016.4535551788
1712226210644,-527964.2459953981
1712226210684,611193.3622263279
1712226210724,573354.6683891616
1712226210764,506998.0155270044
1712226210804,497216.25274239574
1712226210844,-728329.3043920961
1712226210884,484431.89220956154
1712226210924,481499.3437884031
1712226210964,458357.79537113477
1712226211004,-476353.32113047875
1712226211044,-687091.2477974426
1712226211084,-26054.70929055009
1712226211124,484174.9491375126
1712226211164,426362.08862890676
1712226211204,-1806371.2670109142
1712226211244,-1742075.6719641192
1712226211284,-1723099.0122155398
1712226211324,-1568850.6728387754
1712226211364,-1397909.901568558
1712226211404,-1291103.5676187961
1712226211444,-1172483.8121641302
1712226211484,-1050027.9731158596
1712226211524,-944961.8204098167
1712226211564,-876068.4339772593
1712226211604,-826043.7883950113
1712226211644,-773838.0895972215
1712226211684,-690884.0729220686
1712226211724,-689284.0193645959
1712226211764,-692108.8205021708
1712226211804,-637018.4043251434
1712226211844,-585550.467887904
1712226211884,-546650.5887059281
1712226211924,-506590.1381390146
1712226211964,-480410.5337412781
1712226212004,-468874.0220858613
1712226212044,-425938.03034922853
1712226212084,-428921.83340430725
1712226212124,-392831.9426885741
1712226212164,-349161.595284197
1712226212204,-342425.0402356703
1712226212244,449807.1866464969
1712226212284,2009664.546668984
1712226212324,1911972.8901277427
1712226212364,1802613.0148727288
1712226212404,1659380.2749693133
1712226212444,1559502.101994384
1712226212484,1467928.1500455914
1712226212524,1401551.4340675697
1712226212564,1339274.055131427
1712226212604,1264727.8852659697
1712226212644,1179522.2248088107
1712226212684,1105525.4159425548
1712226212724,1031107.9292758331
1712226212764,956932.1253607217
1712226212804,900474.8069038293
1712226212844,826180.0776741244
1712226212884,778705.4461132903
1712226212926,724466.9234620193
1712226212966,675678.9109172365
1712226213007,628251.6356797027
1712226213046,597411.0169025697
1712226213086,582498.1520065516
1712226213127,554413.367992742
1712226213167,524475.2846683804
1712226213208,499742.62838916853
1712226213247,472142.4838612005
1712226213287,226552.61298966827
1712226213327,-955704.2522352133
1712226213367,-1096605.26550744
1712226213408,-1029362.1623997884
1712226213447,-946972.175188866
1712226213488,-874859.2504732441
1712226213528,-779969.2829894396
1712226213568,-755943.3775146687
1712226213609,-751500.5265981518
1712226213648,-671022.0826367997
1712226213688,-612588.3236755785
1712226213728,-560365.3384722611
1712226213768,-502495.4271349739
1712226213809,-461958.1567322165
1712226213848,-236101.90699254395
1712226213888,36213.50515898317
1712226213929,401703.4831777159
1712226213969,412792.90381687693
1712226214010,684374.9199718349
1712226214049,880872.1384703307
1712226214089,830714.6622500573
1712226214129,739605.1826078352
1712226214169,501585.36636950355
1712226214210,395256.8539119549
1712226214249,446883.0423420761
1712226214290,660059.5724350056
1712226214330,626107.0581657421
1712226214370,584940.8015593486
1712226214411,548070.2790931743
1712226214450,504215.57918196963
1712226214490,465493.102052412
1712226214530,434437.6876942795
1712226214570,414525.90854002954
1712226214611,370765.70588396396
1712226214651,349801.87326402636
1712226214691,336022.5253102323
1712226214731,324452.20341951214
1712226214771,305289.9993799641
1712226214812,-55714.21214650804
1712226214851,-825481.3528198753
1712226214891,-1125141.0924179638
1712226214931,-1205136.2304598852
1712226214971,-1206519.725294808
1712226215012,-1169622.0623316653
1712226215052,-1128144.8711174577
1712226215092,-1042942.0149850091
1712226215132,-992691.6691806912
1712226215172,-937614.6666333843
1712226215213,-879724.2522521075
1712226215252,-826914.0453109387
1712226215292,-772613.2839367981
1712226215332,-712151.5280264039
1712226215372,-683180.4183324315
1712226215413,-634568.19758764
1712226215452,-592159.4895428745
1712226215493,-561504.3033566736
1712226215533,-522830.39358868543
1712226215573,-524801.7593493243
1712226215614,-508205.42214328656
1712226215653,-484254.8992015356
1712226215693,-448254.3426846713
1712226215733,-402105.4600377199
1712226215773,-373062.18041913444
1712226215814,1439769.055048393
1712226215853,1330137.5562856258
1712226215894,1235734.3765555858
1712226215934,1159290.9409993114
1712226215974,1092300.4634279534
1712226216015,997025.5393879083
1712226216054,946848.5103780809
1712226216094,895237.9639900886
1712226216134,834401.767704308
1712226216174,781519.2350467457
1712226216215,398274.1987610217
1712226216255,-755907.2102226187
1712226216295,-1005850.5245282389
1712226216335,-1135979.4803249757
1712226216375,-1159936.1948803142
1712226216416,-949236.1548504462
1712226216455,-692976.3099535517
1712226216495,-471053.152575667
1712226216535,-287414.1711661974
1712226216575,-170281.90258384123
1712226216616,65156.46815124899
1712226216656,129371.87996948231
1712226216696,137836.50045633968
1712226216736,266278.79798479564
1712226216776,-44536.73805868905
1712226216817,-439407.2096065865
1712226216856,-186101.22590441862
1712226216896,269070.2474434171
1712226216936,653848.7298162673
1712226216977,1104516.8072911105
1712226217017,999416.422592035
1712226217057,923881.2874747384
1712226217097,879867.9368928713
1712226217137,839067.3627608623
1712226217177,797726.7195115164
1712226217218,744641.3604661273
1712226217257,684217.0653038388
1712226217297,655177.3032700666
1712226217338,609659.5448866044
1712226217378,562588.6570468582
1712226217418,545376.3109398349
1712226217458,532639.0029172231
1712226217498,281045.4115604139
1712226217538,118844.06461996725
1712226217578,449717.3715588674
1712226217619,427206.29262027796
1712226217658,400278.927579097
1712226217699,368478.26028798614
1712226217739,330619.57347329706
1712226217779,-84797.19404028356
1712226217820,-412386.4406720195
1712226217859,-341114.4581027292
1712226217899,136951.83828950953
1712226217939,416309.7866490772
1712226217979,408383.4159607133
1712226218020,375209.89082244737
1712226218060,334737.78803263884
1712226218099,296806.7795799598
1712226218140,273996.1303906869
1712226218180,256599.30720516108
1712226218221,268568.5940309004
1712226218260,230974.6870289473
1712226218300,-1323780.3886812367
1712226218340,-2016690.34776218
1712226218380,-2069420.057553465
1712226218421,-1909797.7135876324
1712226218460,-1673624.0590664167
1712226218500,-1409061.801284302
1712226218540,-1286296.2003800478
1712226218580,-1214249.4539532228
1712226218621,-1180997.6060827607
1712226218661,-1108529.3835464371
1712226218701,-1046460.1064402675
1712226218741,-992905.9167824159
1712226218781,-926776.1824453482
1712226218822,-879381.0542071695
1712226218861,-799598.4111108789
1712226218901,-695340.8232832802
1712226218941,-378359.0585760344
1712226218981,1026286.2836856437
1712226219022,1403739.0775170801
1712226219061,1316794.423658057
1712226219101,1226732.9031085134
1712226219142,1139246.5953457216
1712226219182,1070573.2874192987
1712226219223,948092.5965096438
1712226219262,853348.4254861977
1712226219302,805664.9379147314
1712226219342,-1273627.2020453634
1712226219382,-1190980.9722340768
1712226219423,-1104246.4687900674
1712226219462,-1045517.0918022771
1712226219502,-1035022.3664112026
1712226219542,-974496.5715059582
1712226219582,-889016.7712519234
1712226219624,-827894.5594241023
1712226219663,-741202.2486206517
1712226219703,-702254.9164246693
1712226219743,-654102.9799992996
1712226219783,-621358.7271639816
1712226219824,-441569.98269326193
1712226219863,-405762.08204807155
1712226219903,-398769.92555445153
1712226219943,-344088.29091860773
1712226219983,-303341.981977046
1712226220024,-260548.83139682235
1712226220064,-223105.2177141048
1712226220104,-207366.6140668774
1712226220144,-173037.49232976744
1712226220184,-148342.2807547073
1712226220225,-157952.92045480758
1712226220264,-159537.30934242066
1712226220304,-126196.62368210405
1712226220344,-120252.20101697836
1712226220384,-109205.406535435
1712226220425,-92022.4215598302
1712226220465,-98454.31199997291
1712226220505,-88229.6204541279
1712226220545,-44504.61563557107
1712226220585,-37998.03662605584
1712226220626,-36811.770475363825
1712226220665,-40391.54482397577
1712226220705,-59223.322538249195
1712226220745,-77085.70424543228
1712226220785,-89215.82127015898
1712226220826,-93271.91494165082
1712226220865,-105135.02846722258
1712226220905,-88732.97066260502
1712226220946,-69938.65013669664
1712226220986,-44586.81991007505
1712226221027,-33792.88367964467
1712226221066,-31511.69493338652
1712226221106,-28743.582625877112
1712226221146,-24618.243863990996
1712226221186,-66956.24618604872
1712226221227,57379.79939319845
1712226221266,352467.3721287297
1712226221306,41869.47594218701
1712226221346,94778.06946184393
1712226221386,1702920.4626391595
1712226221428,18536.174873537384
1712226221467,-85745.69890989689
1712226221507,-89999.6420553485
1712226221547,-63543.02903044131
1712226221587,-62447.38367643487
1712226221628,-57913.00202648435
1712226221667,-20186.608278957196
1712226221707,-37784.41311006714
1712226221747,-11567.076365901157
1712226221788,-6891.907022133004
1712226221828,5878.631548236124
1712226221868,91765.18147798348
1712226221908,120078.31939584762
1712226221948,81922.42623710725
1712226221988,52056.200589195825
1712226222029,44805.54080662271
1712226222068,-12845.348496100865
1712226222108,-20879.306226333138
1712226222148,-1036.3048211308196
1712226222188,3665.075108575169
1712226222229,-18463.67070807377
1712226222269,-78689.26881950162
1712226222309,-98497.34012578335
1712226222349,-97804.43261609878
1712226222389,-107541.00468108244
1712226222430,-135314.57756366394
1712226222469,-134957.56404837035
1712226222509,-82940.0765381488
1712226222549,-279559.8474359559
1712226222589,-276240.3266222859
1712226222630,-263694.5584198404
1712226222669,-169542.52689988166
1712226222710,-120650.85219905712
1712226222750,-94029.9822400324
1712226222790,583985.2253543241
1712226222830,1245527.5852820994
1712226222870,970448.9869200373
1712226222910,596904.557939427
1712226222950,1300848.7941855257
1712226222990,1544304.5654590372
1712226223031,1445166.1914404845
1712226223070,1376170.9176275618
1712226223110,1288557.7112728124
1712226223151,1196023.4969238108
1712226223191,1133568.9205709687
1712226223232,1015842.4436232261
1712226223271,590068.8349883812
1712226223311,-1102609.7742645624
1712226223351,-823521.0635941788
1712226223391,-941263.9249582514
1712226223432,-813163.3684153389
1712226223471,-329521.7490212638
1712226223511,545839.8419642416
1712226223551,1120668.7192982072
1712226223592,1049621.5630556052
1712226223632,964628.8721159585
1712226223672,881615.4077510023
1712226223712,888947.2270007371
1712226223752,845715.9725033185
1712226223792,816923.6036474481
1712226223833,746759.7219781857
1712226223872,706555.6802397203
1712226223912,653055.4968518075
1712226223953,618631.1701135375
1712226223993,575401.9568661684
1712226224033,526045.7291050805
1712226224073,503243.51545360684
1712226224113,481282.5262711472
1712226224153,469873.2306322986
1712226224193,429593.10422781063
1712226224234,386156.8896609526
1712226224273,380527.8360674875
1712226224314,364914.7921332754
1712226224353,362988.36865946976
1712226224394,347063.7469202145
1712226224435,321834.10114459135
1712226224474,278304.8111627856
1712226224514,320090.0375234806
1712226224554,264690.1646912424
1712226224594,243905.34957300313
1712226224635,212666.72513494547
1712226224674,213514.12183736358
1712226224714,204072.40969985677
1712226224755,152735.30086273793
1712226224795,164292.21133133303
1712226224835,138212.02127411123
1712226224875,137154.46229059994
1712226224915,146767.12855824362
1712226224956,131815.4002113836
1712226224996,145656.0483273985
1712226225037,130067.2368652639
1712226225076,113892.7942731874
1712226225116,115968.54649326578
1712226225157,108616.12411608733
1712226225197,120138.94084600266
1712226225237,105609.65177109605
1712226225277,93642.66069294047
1712226225317,101685.09436327312
1712226225357,74569.16813349351
1712226225397,34026.43882148806
1712226225438,26411.65241245879
1712226225477,685.8717522406951
1712226225518,-4575.965155742131
1712226225557,-2292.5107455342077
1712226225598,-17368.299081699923
1712226225639,-59153.319539159536
1712226225678,-73350.17887419928
1712226225718,-49815.06154117733
1712226225758,-38222.85819710605
1712226225798,-60354.2225139318
1712226225839,-46695.84610879421
1712226225879,-11984.403712003492
1712226225918,23699.312340883538
1712226225959,25146.38352792198
1712226225999,11422.338581461925
1712226226039,39685.191362562124
1712226226079,15685.824946845416
1712226226119,27109.85097019933
1712226226159,14698.782394919544
1712226226199,8262.503211507108
1712226226240,23042.49169967184
1712226226279,-9313.958752478939
1712226226320,4004.121109620668
1712226226360,12426.685642402153
1712226226400,17495.775635804515
1712226226441,14431.8294402631
1712226226480,22344.154473484494
1712226226520,24327.15998902172
1712226226560,-4076.717108520679
1712226226600,9408.619102128781
1712226226641,50540.43186351657
1712226226680,-1597386.4093354559
1712226226721,-1440616.3871926917
1712226226761,-1332602.1304692593
1712226226801,-1141847.304372943
1712226226842,-472914.50500649353
1712226226881,-625244.111417532
1712226226921,-1182911.4552494353
1712226226961,-1101912.6022471664
1712226227001,-1811723.8627871778
1712226227042,-551607.3363500084
1712226227081,50892.9086899017
1712226227121,-182771.5512700146
1712226227161,-185256.034559126
1712226227201,798929.6061824877
1712226227242,747919.842345492
1712226227282,-132404.6988159772
1712226227322,-685353.0000706911
1712226227362,-961013.2235036362
1712226227402,-3398581.6436346252
1712226227443,-3189468.4036489166
1712226227482,-669594.289032734
1712226227522,-672906.7114719679
1712226227562,-1052800.4429993145
1712226227602,1357544.6715270248
1712226227643,1276090.2794454661
1712226227682,-2996353.1243038634
1712226227722,-2810631.7107751044
1712226227763,-2639170.4794080164
1712226227803,-2497207.0040780166
1712226227843,-2318609.6459908467
1712226227883,-2175437.707243407
1712226227923,-2051094.7251952507
1712226227963,-1011593.3012395105
1712226228003,-415337.9256416019
1712226228044,-232297.82957572653
1712226228083,838914.1968179166
1712226228123,921235.39885217
1712226228163,778753.9399276148
1712226228203,606201.7181714657
1712226228244,478586.62891223654
1712226228284,536490.900463243
1712226228323,538424.624176489
1712226228364,593343.4634170127
1712226228404,551280.6191470698
1712226228444,619184.1755065434
1712226228484,598938.9721333794
1712226228524,505312.4714965401
1712226228564,464416.8572438103
1712226228604,441137.92489766935
1712226228645,344373.0654813112
1712226228684,652948.6351436046
1712226228724,798233.9302977799
1712226228764,264809.9427437107
1712226228804,-280753.0911251586
1712226228845,-879394.2784226811
1712226228885,-1256693.682808958
1712226228925,-1272921.3735371325
1712226228965,-1221817.8239556383
1712226229005,-961219.5498515791
1712226229045,-442855.5133090613
1712226229085,-276464.0341142658
1712226229125,-612948.1524720532
1712226229165,-802389.2459685048
1712226229205,-811630.6132680816
1712226229246,-834817.0744282559
1712226229285,-1426784.1046090536
1712226229325,-388953.5347454606
1712226229365,-808176.4009828749
1712226229405,-818566.545197176
1712226229446,137260.58499474777
1712226229486,-1647497.3321738746
1712226229526,-1545961.5871007699
1712226229566,-924429.1430402347
1712226229606,-963270.6104682954
1712226229647,-1338096.4964929067
1712226229686,-1255447.0231511996
1712226229726,-1176374.813322548
1712226229766,-1107029.3582011904
1712226229806,-1034364.7907352201
1712226229847,-970832.1657710087
1712226229886,-913690.3695038181
1712226229926,-860173.1999624136
1712226229967,-804873.4065716752
1712226230007,-753981.5168106465
1712226230047,-707063.5354551317
1712226230087,-662404.9993449769
1712226230127,-621376.9531749147
1712226230167,-582232.3438083949
1712226230207,-545455.0067920426
1712226230248,-512808.0036144084
1712226230287,-481775.8929932746
1712226230327,-453180.8823934145
1712226230367,-425596.31176230335
1712226230408,-399731.6206956966
1712226230448,-374310.6100998022
1712226230488,-348153.47546997835
1712226230528,-327687.8353797712
1712226230568,-308185.2297824747
1712226230608,-289530.3009858668
1712226230649,-273059.9262040745
1712226230688,-253364.21503473294
1712226230728,-240067.22439056943
1712226230768,-225010.55644185608
1712226230808,-210376.05920427508
1712226230849,-196885.5779688795
1712226230888,-182648.2458542094
1712226230929,-171064.18947305283
1712226230969,-159132.6243317693
1712226231009,-150378.43088371196
1712226231050,-142159.92466434196
1712226231089,-134055.17621690672
1712226231129,-126174.79068179458
1712226231169,-118836.36385693267
1712226231209,-112679.92069138036
1712226231250,-105153.71024004536
1712226231289,-97998.22216786351
1712226231329,-92920.67946743693
1712226231369,-86064.75880277928
1712226231410,-79704.18368121766
1712226231450,-75275.04881155564
1712226231490,-71042.9868434554
1712226231530,-66453.69823094239
1712226231570,-62144.1012085984
1712226231610,-58810.93330988639
1712226231651,-54899.29001081479
1712226231690,-51152.47662825382
1712226231730,-49250.82866460795
1712226231771,-46631.85347479931
1712226231810,-44433.51612751387
1712226231851,-41724.2314911192
1712226231891,-38996.554063902266
1712226231931,-36838.18757505735
1712226231971,-32436.159215801163
1712226232011,-32427.445251688878
1712226232052,-29021.051876473008
1712226232091,-26432.090730437834
1712226232131,-25865.263891472925
1712226232171,-23064.0060602215
1712226232212,-22773.59432891837
1712226232252,-20816.55024210853
1712226232292,-20703.37850693285
1712226232332,-19930.228597094607
1712226232372,-13699.492952440629
1712226232412,-17231.579942709366
1712226232453,-16129.88683400257
1712226232492,-14181.128249505759
1712226232532,-15697.691020812526
1712226232572,-16370.791584349801
1712226232613,-17620.418479195123
1712226232653,-13681.928586329877
1712226232693,-10537.267615609784
1712226232733,2508420.461084116
1712226232773,2346753.9467342277
1712226232813,2197242.8040154516
1712226232854,2056137.2127413042
1712226232893,1923817.2864215188
1712226232933,1801650.9840274132
1712226232973,1653523.2496443382
1712226233013,1538749.5603537362
1712226233054,1468452.3750415407
1712226233094,933355.5770251472
1712226233134,842940.8736773594
1712226233174,758861.5607739671
1712226233214,680191.3776227199
1712226233255,628577.263657891
1712226233294,530959.2412577118
1712226233334,490963.13167915004
1712226233374,454493.857569159
1712226233414,429102.6331737954
1712226233455,404285.41844163183
1712226233494,399956.57155080396
1712226233535,379628.4914990058
1712226233575,351663.773030557
1712226233615,319048.0193554186
1712226233656,313393.3418628315
1712226233695,256088.72504094057
1712226233735,213217.05519721517
1712226233775,261450.2270483584
1712226233815,380536.913366138
1712226233856,486711.2405465848
1712226233895,621952.1859947969
1712226233936,2102974.1196261426
1712226233976,2114749.268230899
1712226234016,1402268.4023901788
1712226234057,348326.9098380124
1712226234096,345753.4159624553
1712226234136,1793946.4632247165
1712226234176,1629830.7854906563
1712226234216,1495349.5530309519
1712226234257,1592484.445942047
1712226234297,1498165.4273633594
1712226234337,1400680.1214547213
1712226234377,1317010.2587086987
1712226234417,1227784.3423650404
1712226234458,1163038.0660174033
1712226234497,648904.9022937496
1712226234537,-1097803.0167697747
1712226234577,-1034571.4684014698
1712226234617,-965120.0342566492
1712226234658,-908717.1265435489
1712226234697,-869971.3964063604
1712226234738,-813063.6487662038
1712226234778,-758093.0605533244
1712226234818,-715957.6465417244
1712226234859,-670506.6672520582
1712226234898,-632037.2791262302
1712226234938,-599500.5396662345
1712226234978,-568417.3448650516
1712226235018,-528637.742325562
1712226235059,-498855.0500783492
1712226235099,-454535.19345825724
1712226235139,-435728.37287433585
1712226235179,-389579.35402833484
1712226235219,-365520.25141902594
1712226235260,-338311.734768264
1712226235299,-323808.97621020116
1712226235339,-286906.98627048684
1712226235379,-242666.65200083982
1712226235419,-178654.9954683166
1712226235460,-219422.01543869497
1712226235500,1932074.7629404664
1712226235540,1810484.2276773676
1712226235580,1708753.8444674537
1712226235620,1599430.552188905
1712226235661,1495396.4376503485
1712226235700,1393081.1493692752
1712226235740,1294451.1465302808
1712226235780,1218295.6068390603
1712226235820,1140469.3914859993
1712226235861,1063058.1632338976
1712226235901,998557.8622704158
1712226235941,941594.9298726036
1712226235981,880266.2225763006
1712226236021,812375.6471546381
1712226236062,760054.5253553567
1712226236101,710481.6504691336
1712226236141,675459.8925285847
1712226236181,629354.4480354763
1712226236221,577713.5729727196
1712226236262,549586.9225954809
1712226236301,533075.9962149626
1712226236341,497723.7123109526
1712226236381,460974.7526450078
1712226236421,408395.5354932393
1712226236462,387981.3285899325
1712226236501,370290.2608804838
1712226236541,-166083.94744154718
1712226236582,-1352239.4684287645
1712226236622,-1726107.8370449399
1712226236662,-1685809.6325193085
1712226236702,-1671679.0055960156
1712226236742,-1483148.0693704626
1712226236782,-1374087.7271312606
1712226236822,-1260909.7404568112
1712226236863,-1164092.0263198614
1712226236902,-1084479.0421870803
1712226236942,-1007166.2567396141
1712226236978,-934107.8191700089
1712226237018,-825636.1454374734
1712226237059,-638585.0663813334
1712226237099,-589103.7162642172
1712226237139,-481713.9961151369
1712226237179,-16711.102878160775
1712226237219,224693.58496288117
1712226237259,667072.4302478265
1712226237299,903773.1398529052
1712226237339,397699.46122286934
1712226237379,-435353.36529138405
1712226237419,-752832.3098512478
1712226237460,-753820.9632646404
1712226237499,-720453.788450418
1712226237539,-683917.9173942176
1712226237579,-661665.989502064
1712226237619,-628013.2694391734
1712226237660,-585332.0159793356
1712226237700,-530334.8344143936
1712226237740,-501725.3619906381
1712226237780,-478134.07916608546
1712226237820,-457323.25448715454
1712226237861,-440082.4505849811
1712226237900,-427219.4149574614
1712226237940,-395212.9826856218
1712226237980,-374919.559875716
1712226238020,-356721.55037471186
1712226238061,-346608.60397737706
1712226238100,-318727.62081639003
1712226238140,-284491.38946503913
1712226238180,-264820.712638143
1712226238221,-234879.5370198423
1712226238261,-207338.8766826596
1712226238301,-185545.26883365726
1712226238341,-173930.02840869036
1712226238381,-166076.5313339834
1712226238421,-136981.2244182527
1712226238462,-127301.01035127044
1712226238501,-128042.62556396145
1712226238541,-126297.2860352844
1712226238581,-119916.63639614591
1712226238621,-110303.93749659043
1712226238662,-105074.36493749078
1712226238701,-96045.95882546436
1712226238742,-92189.79869954102
1712226238781,-95848.60157581884
1712226238822,-100403.98298083153
1712226238862,-43607.874821960926
1712226238902,23349.050032668747
1712226238942,19020.33805286046
1712226238982,-11362.205635625403
1712226239022,-45641.16877595661
1712226239063,-57082.8639597171
1712226239102,2594.2336759355385
1712226239142,553408.9321776466
1712226239182,687993.3464623382
1712226239222,627569.3357257205
1712226239263,726036.2097556014
1712226239302,1368308.9745077193
1712226239343,1596119.948365583
1712226239382,1746726.4191212454
1712226239423,1623159.7066859938
1712226239464,1521880.8038405208
1712226239503,1423189.7732787435
1712226239543,1334165.2737357616
1712226239583,1252959.6596021256
1712226239623,1173212.3906717757
1712226239664,1053745.3931254107
1712226239703,979119.8204711475
1712226239743,-1288088.7477697702
1712226239783,-1255007.6232514172
1712226239823,-1177722.5090304022
1712226239864,-1034550.7479557823
1712226239903,-747421.6807213454
1712226239944,-761557.4030990633
1712226239984,-736817.649544064
1712226240024,-716231.9421859533
1712226240065,-651103.8581665191
1712226240104,-577628.2426462346
1712226240144,-487387.914394618
1712226240184,1495396.3137168884
1712226240224,370207.3898142697
1712226240265,-383894.6504876958
1712226240304,-615270.7433050033
1712226240344,-605852.3016564152
1712226240384,-592538.2121171253
1712226240425,-568200.7147546425
1712226240465,-576815.8010516572
1712226240505,-532268.5149854827
1712226240545,-503410.1758629489
1712226240585,-486661.7739824541
1712226240625,-433283.9994435273
1712226240666,-405501.9824451208
1712226240705,-376940.82729591057
1712226240745,-337720.2894923673
1712226240785,-307964.00009819306
1712226240825,-284604.3740229653
1712226240866,-264880.7864920553
1712226240906,-257146.42407623958
1712226240946,-173136.02108863695
1712226240986,-147024.51207076898
1712226241026,-152025.73100421997
1712226241067,-135379.15926900087
1712226241106,-101600.74148084596
1712226241146,-96895.91877334844
1712226241186,-110503.62076183315
1712226241226,-100966.28075559763
1712226241267,-85726.0802723635
1712226241306,-56745.7846591468
1712226241346,-126533.32209213171
1712226241387,581371.5268536331
1712226241427,2001887.3304077927
1712226241467,1878392.5968490345
1712226241507,1759070.5664341906
1712226241547,1649679.0134543255
1712226241587,1548315.2377981776
1712226241627,1433929.1388712386
1712226241668,1322744.2677058326
1712226241707,1229369.03108645
1712226241747,1149798.7998185707
1712226241787,1070102.927927557
1712226241827,1000519.6322840014
1712226241869,931127.4370053671
1712226241908,857831.9627470402
1712226241948,290696.05055375677
1712226241988,-873240.6210600273
1712226242028,-1378750.883814375
1712226242069,-1358117.0722384658
1712226242108,-1393519.5907765105
1712226242148,-1428430.756360191
1712226242188,-1353500.365604003
1712226242229,-1276964.3257054398
1712226242269,-1193069.8803720763
1712226242309,-1120504.5511608506
1712226242349,-1045630.9283172302
1712226242389,-984283.0224323468
1712226242429,-925302.1499334364
1712226242470,-875366.4446465475
1712226242509,-826847.8536408455
1712226242549,-800072.7289225282
1712226242589,-762481.5178812025
1712226242629,-722394.8627304779
1712226242670,-654537.9629544066
1712226242710,-582834.1975606354
1712226242750,-527612.9395784196
1712226242790,-482552.17269062763
1712226242830,-437979.2121890974
1712226242871,-396372.1343377824
1712226242910,-357694.48375427886
1712226242950,-318589.9344123169
1712226242990,-285987.11502039805
1712226243030,-268311.27777197445
1712226243072,-250480.00808329438
1712226243111,-225018.9771194742
1712226243151,-197261.20177350426
1712226243191,-178106.78874365985
1712226243231,-166363.64631245704
1712226243272,-145475.33630055585
1712226243311,-128014.77751935995
1712226243351,-115798.26353179105
1712226243391,-98900.36789841251
1712226243431,-84977.31374928658
1712226243472,-75524.82169890567
1712226243511,-65539.61900554411
1712226243552,-62642.504513920285
1712226243591,-59610.74763824418
1712226243632,-61112.05614472693
1712226243673,-59204.624660563655
1712226243712,-56568.41970981588
1712226243752,-52295.20429290272
1712226243792,-48963.480518714525
1712226243832,-57201.001469613984
1712226243873,-62718.01650326257
1712226243912,-57159.30861586216
1712226243952,-50071.64835673431
1712226243993,-45236.85568058537
1712226244036,-45170.05003461242
1712226244074,-46584.5129740159
1712226244113,-45562.79745384981
1712226244153,-34823.28892106796
1712226244193,-19824.17262180522
1712226244233,439296.3484903448
1712226244274,909352.2791259259
1712226244313,660225.5009346937
1712226244354,171314.51613765373
1712226244394,-29825.370422207052
1712226244434,-98918.75993878627
1712226244475,-100096.3823936116
1712226244514,79997.18492563907
1712226244554,1091358.0751850612
1712226244594,892771.5483364407
1712226244634,1509348.2691870506
1712226244675,2113086.481978327
1712226244715,1936425.229633601
1712226244755,1869598.1702107796
1712226244795,1742020.899310086
1712226244835,1623303.756378674
1712226244876,1510609.9736928847
1712226244915,1431999.4391951421
1712226244955,1337264.7168981005
1712226244996,1261139.5944653405
1712226245036,1161502.2402853193
1712226245077,1077237.5857967064
1712226245116,1038129.3335469761
1712226245156,978995.218985315
1712226245196,923697.5615483765
1712226245236,-1493450.2887884956
1712226245277,-1411380.7679605181
1712226245316,-1310421.768933292
1712226245357,-1253746.1980801718
1712226245397,-1198798.1384080602
1712226245437,-1167609.1759680621
1712226245478,-1112638.567649799
1712226245517,-1063141.5517743854
1712226245557,-1011121.9775724965
1712226245597,-957119.6065633455
1712226245637,-922718.3313211994
1712226245678,-865368.1577101722
1712226245717,-803545.9359222855
1712226245757,-757618.8064870518
1712226245797,-714245.348247285
1712226245837,-671575.4600171167
1712226245878,-640947.1761054993
1712226245918,-605689.3224739796
1712226245958,-552100.7540855967
1712226245998,-530543.6276172232
1712226246038,-495842.2133557433
1712226246079,-459881.39128306275
1712226246118,-427386.09321774985
1712226246158,-395463.79740793374
1712226246198,-382717.8075451844
1712226246241,-351452.8802286638
1712226246279,-333980.06121407123
1712226246319,-300966.8531451719
1712226246359,-275386.25243869517
1712226246399,-261968.32124746917
1712226246439,-241272.41668319074
1712226246480,-224001.34022664698
1712226246519,-206312.85203541373
1712226246559,-193092.2851762534
1712226246599,-179700.92680538702
1712226246639,-174628.16122491425
1712226246680,-166110.5864075157
1712226246719,-149654.4021108239
1712226246759,-139885.31623250805
1712226246800,-131166.52061094553
1712226246840,-121282.8645900893
1712226246881,-110259.74942762824
1712226246920,-98549.23527302803
1712226246960,-86043.40831524692
1712226247000,-78535.03945448436
1712226247040,-75131.27953153104
1712226247081,-68468.00646132836
1712226247120,-57045.11203767592
1712226247160,-45899.28010527929
1712226247200,-30510.739004044095
1712226247241,-28884.853206229163
1712226247282,-28030.29360371013
1712226247321,-33225.36762069422
1712226247361,-46867.882340498036
1712226247401,-25369.939148996724
1712226247441,41047.71373710642
1712226247482,52565.74993742281
1712226247521,51004.30193792796
1712226247561,17281.140785019845
1712226247601,5806.7803618060425
1712226247642,2252.246560213156
1712226247682,-4496.342041139491
1712226247722,-13021.556984464172
1712226247762,-16612.457943052985
1712226247802,-21508.68906469131
1712226247842,-12342.121431628242
1712226247883,936.1234991580714
1712226247922,14141.082611548249
1712226247962,8072.706701883348
1712226248002,-1801.4628464090638
1712226248042,-6733.037179096602
1712226248083,-11362.394539357862
1712226248123,-12207.915196661837
1712226248163,-10846.450746838935
1712226248203,-8031.445270572789
1712226248243,-6097.98192073917
1712226248284,-3335.175976266386
1712226248323,2085.4352695667185
1712226248363,5936.4412191146985
1712226248403,861.6423205551691
1712226248446,4423.347633521305
1712226248484,9731.360870327568
1712226248524,9775.538852497004
1712226248564,5539.252668341855
1712226248604,8684.488496483304
1712226248644,7348.818173523061
1712226248685,4634.921905652154
1712226248724,4884.570759542985
1712226248764,11876.641841425328
1712226248804,13298.028799160384
1712226248845,14565.527217068942
1712226248885,19567.693562013796
1712226248925,26888.658860613126
1712226248965,37796.41301398468
1712226249063,40461.022398376605
1712226249103,40465.01204680838
1712226249144,35548.4349961495
1712226249183,34031.0888120248
1712226249223,24680.268955232343
1712226249263,31966.346890127752
1712226249303,23378.892899658065
1712226249344,16424.654369910015
1712226249384,5017.545322270598
1712226249424,-8411.17104944354
1712226249464,-19935.271877951687
1712226249504,-36821.57119203545
1712226249545,-47106.889902661555
1712226249584,-43284.639134889934
1712226249624,-30587.08526843181
1712226249664,-12037.495797760552
1712226249704,15255.188393070363
1712226249745,38171.911196621135
1712226249784,49528.6923690571
1712226249825,55891.405889343005
1712226249865,70842.42604893423
1712226249905,85538.50216745911
1712226249946,84322.12010992877
1712226249985,93267.07879852108
1712226250025,77047.31601548311
1712226250065,71006.3784294189
1712226250105,75684.8854559355
1712226250146,86437.59142931737
1712226250185,108920.38180202525
1712226250226,125757.1579454639
1712226250266,134952.11284074094
1712226250306,142250.8197710351
1712226250347,134523.5697036176
1712226250386,119031.79469327838
1712226250426,119395.05607899185
1712226250466,102909.01088601374
1712226250506,44794.84884432214
1712226250547,-13616.227940199431
1712226250587,-6931.764748175163
1712226250627,9081.948248826666
1712226250667,-2900.5005560261197
1712226250707,-45079.241960036336
1712226250748,-99192.34830564959
1712226250787,-132697.97104273387
1712226250827,-136476.421451641
1712226250867,-142047.30343572143
1712226250907,-134255.38162078476
1712226250948,-104585.00503962324
1712226250987,-70673.83224274684
1712226251027,-53314.908862898126
1712226251068,-37733.89854344027
1712226251108,6548.347264174139
1712226251148,43612.69651427632
1712226251188,45669.0130931593
1712226251228,27387.160034217406
1712226251268,-10283.39069348434
1712226251308,7841.676947382744
1712226251349,40254.7946964039
1712226251388,65506.986201352905
1712226251429,45797.23133508582
1712226251469,25946.968459901167
1712226251509,10463.900484721642
1712226251550,-18643.198060399387
1712226251589,-51724.42188279657
1712226251629,-57834.90660385694
1712226251669,-58152.702913592104
1712226251709,-60655.73755556578
1712226251750,-42147.86379576754
1712226251790,35940.64986925712
1712226251829,91304.22025216278
1712226251870,96122.01134348172
1712226251910,67333.31731301034
1712226251951,55048.10892718332
1712226251990,68226.32063759817
1712226252030,94186.84290369204
1712226252070,120490.45310789347
1712226252110,148953.27959215036
1712226252153,183480.63527047983
1712226252193,178289.5134313556
1712226252233,157854.4670682652
1712226252273,128620.49706790457
1712226252314,117157.65259763272
1712226252355,103157.97955648974
1712226252394,58562.62703300407
1712226252434,35078.940865367185
1712226252475,33195.29390058643
1712226252515,38556.94172267895
1712226252556,49375.92807478923
1712226252595,36142.754335374106
1712226252635,9299.020934114233
1712226252676,-12217.46753670089
1712226252716,7995.569223139901
1712226252757,-1935.9725593118928
1712226252796,-9706.271884252317
1712226252836,-13494.045296234079
1712226252877,-12967.209662776906
1712226252917,-12378.79988418473
1712226252957,-7986.79836581694
1712226252997,5204.848176030675
1712226253037,16457.196263468126
1712226253077,15875.672446914949
1712226253117,14221.42788802809
1712226253158,11951.992018170888
1712226253198,-31240.81766592292
1712226253238,-34875.025403211126
1712226253278,-43525.298801535275
1712226253318,-30878.929583213292
1712226253359,-29141.6286640428
1712226253398,-46304.7258838499
1712226253439,-53526.96535268985
1712226253479,-61759.43687446718
1712226253519,-62743.266236681724
1712226253560,-69416.78150869953
1712226253599,-78728.55795844947
1712226253639,-64533.45646925084
1712226253680,-40226.083872647956
1712226253720,-37361.63604053366
1712226253761,-47382.879289872246
1712226253800,-49154.604546905495
1712226253841,-49154.75807580608
1712226253881,-33384.51003069477
1712226253921,-34260.56373316748
1712226253962,-37419.612263691844
1712226254001,-43583.18810201553
1712226254042,-27427.195674647577
1712226254082,115106.10448034294
1712226254122,1591171.768499415
1712226254164,2182267.512691685
1712226254203,2033582.397219197
1712226254243,1907521.2447470594
1712226254283,1793064.2907771864
1712226254324,1673995.7814335274
1712226254365,1547599.871191265
1712226254404,1433479.4891155637
1712226254444,1340283.9303699783
1712226254484,1355172.6575229801
1712226254525,209870.21776562743
1712226254566,-43102.46800935455
1712226254605,1240297.5700166672
1712226254646,1174394.2147563891
1712226254686,-935060.0343657564
1712226254726,-870902.340833229
1712226254767,-1076811.287242135
1712226254807,-1105941.3667572085
1712226254847,-1021934.1927530374
1712226254888,-928292.278575812
1712226254928,-659675.4369152058
1712226254969,-903526.7588590141
1712226255008,-907267.7121298024
1712226255049,-874837.4562549121
1712226255089,-830231.9721461204
1712226255129,-643563.7451749416
1712226255170,-669063.2223908389
1712226255209,-689774.9025764698
1712226255250,-641243.8369929795
1712226255290,-449678.8324432159
1712226255330,-591172.7548427591
1712226255371,-573538.2097152141
1712226255411,-548204.9591353033
1712226255451,-512130.21916410467
1712226255491,-454507.73709894856
1712226255532,-401965.9290246265
1712226255573,-359630.23052363563
1712226255612,-303089.69726527296
1712226255652,-329106.8171928094
1712226255692,-303874.1212840001
1712226255733,-326625.9796570013
1712226255774,-346041.15186492726
1712226255813,-287014.07795222057
1712226255854,-265641.03071829956
1712226255894,-258618.66669386835
1712226255934,-250450.21322201425
1712226255975,-247854.98727338435
1712226256015,-217257.6916438453
1712226256055,-201190.51895378344
1712226256095,-188091.40341769299
1712226256135,-183073.89994705655
1712226256176,-163282.01600974798
1712226256215,-146478.5014817398
1712226256256,-146406.45861387393
1712226256296,-126119.04607735085
1712226256336,-124256.07851706562
1712226256377,-124765.81304716622
1712226256416,-132268.69410203816
1712226256456,-126304.50115734944
1712226256497,-97606.63896239968
1712226256537,-93367.27248920803
1712226256577,-81306.403949033
1712226256617,-76739.02434424497
1712226256657,-80574.22242072597
1712226256697,-83280.16852475214
1712226256738,-78121.29851724464
1712226256778,-63707.041090489365
1712226256818,-54937.428827435244
1712226256858,-64340.950349052204
1712226256898,-77390.50229109218
1712226256938,-58927.13702198281
1712226256979,-62603.081268856535
1712226257019,-51960.134099794086
1712226257059,-49101.46053999546
1712226257099,-41682.8825757748
1712226257139,-43165.92281827284
1712226257180,-40440.239745634375
1712226257220,-42181.11142384377
1712226257260,-40238.715581139084
1712226257300,-39410.439493438695
1712226257340,-36532.460849686526
1712226257381,-41304.47239924525
1712226257421,-37588.32127624238
1712226257463,-36315.21284519066
1712226257503,-27327.16115959827
1712226257543,-27614.99335957598
1712226257584,-30119.55783486273
1712226257624,-30060.01696131914
1712226257664,-28002.454629926942
1712226257704,-24054.243867954705
1712226257745,-27718.4073043284
1712226257786,-28080.13177652657
1712226257825,-32738.213866486214
1712226257865,-38673.56762664905
1712226257906,-34303.09447590448
1712226257946,-12290.982277150732
1712226257987,-855.9034834434278
1712226258026,4700.146343130153
1712226258067,6496.727041585837
1712226258107,4984.043659327785
1712226258147,-3549.519907971844
1712226258188,4934.503218996571
1712226258228,121.13133368082345
1712226258268,-1917.2684869549703
1712226258308,3026.0361950888764
1712226258348,15197.255961570423
1712226258389,13115.954899940873
1712226258429,20227.29100632528
1712226258469,36039.74486506637
1712226258510,28672.30080252327
1712226258551,25722.151129549835
1712226258592,25653.820338865276
1712226258631,23175.935273879906
1712226258672,16593.895480935695
1712226258712,8320.367782476824
1712226258752,15408.409802414477
1712226258793,18796.44166459632
1712226258832,28440.605097830296
1712226258873,35480.28093651356
1712226258913,31126.237312153447
1712226258953,29710.45247269934
1712226258994,18308.200176239014
1712226259034,10840.170833365992
1712226259074,9318.041769522475
1712226259114,4544.792913217563
1712226259155,-753.5947868069634
1712226259196,4013.284365892643
1712226259235,8704.694886623416
1712226259276,10381.177436387166
1712226259316,-3175.977015852928
1712226259356,-575.9488105298951
1712226259397,5123.291645465186
1712226259436,12681.610189403873
1712226259476,13638.082718343241
1712226259517,13270.463509605266
1712226259557,25898.64049868984
1712226259598,27496.992148071527
1712226259637,21706.811082123313
1712226259677,16244.548679344356
1712226259717,16284.600244889967
1712226259757,15245.321979128523
1712226259798,16717.059409857728
1712226259837,14950.941088540014
1712226259878,6688.748287254246
1712226259918,3566.6947752505075
1712226259958,-2785.852623377461
1712226259999,-1708.947028176859
1712226260038,-2060.5902843624353
1712226260078,1092.762325834483
1712226260119,4958.540401067352
1712226260159,1994.72808513348
1712226260200,5897.47798274993
1712226260239,12063.672565971036
1712226260279,17832.219511426985
1712226260319,14560.86952307215
1712226260360,10514.096184872556
1712226260401,8672.609572053887
1712226260440,14593.956150579732
1712226260480,27129.162627986632
1712226260520,997661.2774712546
1712226260561,1370368.1758666825
1712226260602,1687324.6738272153
1712226260641,1297164.025704908
1712226260681,1208856.5753954174
1712226260722,622314.5541343524
1712226260762,590556.4585393216
1712226260803,1234395.6472911653
1712226260843,1971969.2805081848
1712226260883,1844914.7288376829
1712226260923,1728597.5402598665
1712226260964,1626964.549372334
1712226261005,1539055.9309129226
1712226261044,1450750.8682695506
1712226261085,1355889.5850142017
1712226261124,1279362.9126752238
1712226261163,1199260.8676574524
1712226261202,1119380.8451936045
1712226261241,1052559.4658734924
1712226261280,1001197.7032806631
1712226261319,941050.1975708324
1712226261358,869607.2262329813
1712226261397,817661.2154850219
1712226261436,75105.26430628542
1712226261475,-772973.2562902123
1712226261514,-1146278.030720578
1712226261553,-1364485.220495367
1712226261592,-1373288.0076240813
1712226261631,-1324342.4115884472
1712226261670,-1246628.0537786754
1712226261709,-1182059.8266862836
1712226261748,-1116953.9348340575
1712226261787,-1065602.81990482
1712226261826,-989183.894700801
1712226261865,-913692.9389159023
1712226261904,-813267.5325047416
1712226261943,-775990.2905257493
1712226261982,-689163.3506450593
1712226262021,-616470.5158575112
1712226262060,-581082.5532897622
1712226262099,-571757.1689697756
1712226262138,-557426.5606121821
1712226262177,-527786.6028821408
1712226262216,-499641.3478548024
1712226262255,-499576.83267158736
1712226262294,-496614.43200082565
1712226262334,-456881.5751969004
1712226262374,-355401.7431203574
1712226262414,-290558.96474359557
1712226262454,10051.168870063499
1712226262494,247771.75706147728
1712226262534,306441.0711916452
1712226262574,104796.18176216912
1712226262614,-297125.53085243655
1712226262654,-351351.6801770949
1712226262694,-335432.94028145727
1712226262734,-322447.7289270521
1712226262774,-303434.96126630856
1712226262814,-256872.23932904983
1712226262854,-89356.22365667578
1712226262894,-6260.76625333447
1712226262934,164063.24942794535
1712226262974,-55361.29473965289
1712226263014,-55538.41958695324
1712226263054,-133160.47770575993
1712226263094,-200387.48070818838
1712226263134,-193398.53418256668
1712226263174,-200656.6624611253
1712226263214,-206384.87683839118
1712226263254,-227235.89604552975
1712226263294,-221012.34223777615
1712226263334,-210091.59279902792
1712226263374,-205120.20708674286
1712226263414,-188389.50623536017
1712226263454,-154666.37322618067
1712226263494,-120976.20208469871
1712226263534,-15761.176483627642
1712226263574,-84030.50300758681
1712226263614,-123866.69739551027
1712226263654,-106917.47316883481
1712226263694,249661.48486564495
1712226263734,2220125.9266837323
1712226263774,2067674.4769192701
1712226263814,1954040.2414354132
1712226263854,1770008.1074538156
1712226263894,808334.6867863229
1712226263934,-729327.1979958788
1712226263974,-355027.9090813957
1712226264014,916602.0520252539
1712226264054,205823.62539235502
1712226264094,-1070677.4749915386
1712226264134,-1702444.1437733178
1712226264174,-1847314.2741205636
1712226264214,-1759815.2351133004
1712226264254,-1654171.6777277347
1712226264294,-1441144.098201261
1712226264334,-1085013.3996320828
1712226264374,-789769.2298137369
1712226264414,-813732.807344086
1712226264454,-974808.2369186445
1712226264494,-1087447.561164321
1712226264534,-805050.514693894
1712226264574,-216867.00423469022
1712226264614,-117520.92447770434
1712226264654,24198.35414139228
1712226264694,-436201.4117989801
1712226264734,-437257.4200953769
1712226264774,499839.1114099384
1712226264814,2562163.043350135
1712226264854,2416992.236929894
1712226264894,1518364.759819032
1712226264934,2131946.592451657
1712226264974,1985503.4212603578
1712226265014,1848120.3282424705
1712226265054,1698739.8606241886
1712226265094,1573855.6826476874
1712226265134,1537267.3500423604
1712226265174,1431071.6715260493
1712226265214,1337010.2760536019
1712226265254,1270897.2444590218
1712226265294,1189528.3418807182
1712226265334,1139301.7744886018
1712226265374,1077803.402536422
1712226265414,971470.4150719335
1712226265454,910375.005909963
1712226265494,840155.3335457984
1712226265534,780052.441570051
1712226265574,746843.0760458312
1712226265614,688226.2469842779
1712226265654,601567.6180708921
1712226265694,664949.3248890331
1712226265734,640918.543954568
1712226265774,590626.6199840112
1712226265814,539349.0907117212
1712226265854,454971.9658382535
1712226265894,427608.40657131467
1712226265934,407854.57546619046
1712226265974,391216.5035242699
1712226266014,400489.8286665017
1712226266054,377126.70962497126
1712226266094,318161.75874223094
1712226266134,260479.4444982377
1712226266174,285888.6945823245
1712226266214,270197.61940143723
1712226266254,220783.9442314445
1712226266294,211509.68304631254
1712226266334,277559.6028252868
1712226266374,-2357566.6959753702
1712226266414,-2273381.4110512156
1712226266454,-2114284.341711451
1712226266494,-1960450.910202466
1712226266534,-1820545.6528602252
1712226266574,-1689887.2631666763
1712226266614,-1594723.4456202248
1712226266654,-1516181.408287154
1712226266694,-1405158.9103186587
1712226266734,-1303118.797300104
1712226266774,-1172871.177897594
1712226266814,-1072048.3141454374
1712226266854,-1016056.593417733
1712226266894,-944847.6687327721
1712226266934,-859194.5458338931
1712226266974,-793711.4675708241
1712226267014,-729827.7090739319
1712226267054,-682587.3635011148
1712226267094,-632433.0789520922
1712226267134,-585740.547730634
1712226267174,-558758.7556159594
1712226267214,-535298.9119194467
1712226267254,-504630.37049239315
1712226267294,-494258.8564836909
1712226267334,-474196.33134176536
1712226267374,-436880.6169889977
1712226267414,-403152.5337039563
1712226267454,-372961.78487736965
1712226267494,-349531.00879015913
1712226267534,-332619.90735838516
1712226267574,-299854.3672812104
1712226267614,-277585.32252073917
1712226267654,-254590.97036503372
1712226267694,-238932.2409031638
1712226267734,-225393.32652017055
1712226267774,-213565.52103311382
1712226267814,-194836.6896787046
1712226267854,-176449.59402595717
1712226267894,-164263.18939486519
1712226267934,-150149.38156101108
1712226267974,-137339.39399040933
1712226268014,-126435.27395683131
1712226268054,-132342.63196384022
1712226268094,-142437.8493756475
1712226268134,-130488.07958134962
1712226268174,-94197.54477501428
1712226268214,-65845.65034800116
1712226268254,-48619.10331422184
1712226268294,-34242.918773966376
1712226268334,-30107.419118857244
1712226268374,-24381.050101335626
1712226268414,-17106.771246646065
1712226268454,-12054.406478887191
1712226268494,-7238.976503085811
1712226268534,-4379.89629152487
1712226268574,-4850.197695856681
1712226268614,-8633.73418629542
1712226268654,1309.587685180828
1712226268694,-1243.346564894775
1712226268734,-704.6703852550127
1712226268774,8419.329178252723
1712226268814,11115.000430117361
1712226268854,6823.833922656253
1712226268894,10217.284655243624
1712226268934,17214.094103532843
1712226268974,19080.780947918072
1712226269014,18688.73730481509
1712226269054,25534.932228964288
1712226269094,31189.098518686602
1712226269134,30990.730518647237
1712226269174,30833.874634129927
1712226269214,22615.925968542695
1712226269254,54936.57376677776
1712226269294,65276.59046082781
1712226269334,68430.30899759987
1712226269374,66471.95048288559
1712226269414,53117.053370552836
1712226269454,42960.34510610998
1712226269494,48028.6778107523
1712226269534,49236.98013374605
1712226269574,21528.06002469221
1712226269614,15176.7447756459
1712226269654,16236.548523934558
1712226269694,18183.59225385217
1712226269734,19899.76240791846
1712226269774,24550.047895219875
1712226269814,9968.826255375054
1712226269854,11535.071183567634
1712226269894,2329.5370801100507
1712226269934,-26973.81254227832
1712226269974,-13277.039993359474
1712226270014,14325.6379604158
1712226270054,-23196.413651114795
1712226270094,-136792.25197064038
1712226270134,-21391.37833795743
1712226270174,-208245.3647113461
1712226270214,-200159.9001156357
1712226270254,-257776.65212062793
1712226270294,-215733.35760129732
1712226270334,-167861.5941284555
1712226270374,-141605.90843911143
1712226270414,-131461.35078753345
1712226270454,-155745.46958948346
1712226270494,-139610.450401532
1712226270534,-181104.14567640843
1712226270574,-188463.24408796313
1712226270614,-138849.58597569657
1712226270654,-142885.18791967095
1712226270694,-118015.28403150663
1712226270734,-107875.27636767924
1712226270774,-103939.16693167808
1712226270814,-74573.15490323165
1712226270854,-57960.935826372355
1712226270894,-45438.15935563948
1712226270934,-58608.42683935864
1712226270974,-86728.68200300075
1712226271014,26607.226102263434
1712226271054,108967.77277753083
1712226271094,156961.61008200096
1712226271134,120827.72318083071
1712226271174,62871.46797506185
1712226271214,3191.354042767547
1712226271254,-38560.3327036968
1712226271294,-27757.198039843235
1712226271334,-32783.29375800956
1712226271374,-3427.9583107358776
1712226271414,4562.873985404847
1712226271454,3637.385585331591
1712226271494,19855.42933738511
1712226271534,-86736.86301536695
1712226271574,-10233.714590206277
1712226271614,-42968.48407854559
1712226271654,-20414.187782949302
1712226271694,1436.0326022342779
1712226271734,35274.36819053255
1712226271774,60654.57403720752
1712226271814,85006.62383529684
1712226271854,70072.50868553622
1712226271894,57308.51831326983
1712226271934,51375.0214673616
1712226271974,61286.87325313222
1712226272014,44913.07359970501
1712226272054,30996.20222870633
1712226272094,3590.873566049384
1712226272134,-29964.635676205624
1712226272174,-55326.515812451486
1712226272214,-78180.47856225027
1712226272254,-86254.85087232199
1712226272294,-83352.2487075401
1712226272334,-74846.33437599242
1712226272374,-68653.59812063118
1712226272414,-54129.56858483795
1712226272454,-32932.83063694462
1712226272494,-1855.6809788369574
1712226272534,32889.99236222892
1712226272574,45624.37571515981
1712226272614,66547.41864092182
1712226272654,74816.51981805661
1712226272694,94484.86841651937
1712226272734,99138.47713858844
1712226272774,97437.94648990454
1712226272814,88291.09968006518
1712226272854,84429.18185502896
1712226272894,74804.50943585136
1712226272934,41553.268268129556
1712226272974,46739.02389320335
1712226273014,52146.52179830521
1712226273054,27238.165846752934
1712226273091,-13900.327505944064
1712226273131,11170.273102692561
1712226273173,32747.917902668007
1712226273212,46713.04515189491
1712226273252,65176.57886076905
1712226273292,90277.53622081876
1712226273332,121993.5046843756
1712226273373,152032.75783339282
1712226273412,178762.80941767758
1712226273452,188720.12924674456
1712226273492,233550.69913985836
1712226273533,270138.9056569291
1712226273573,277897.6312200045
1712226273613,284995.71650969144
1712226273653,299860.55760355294
1712226273693,286189.7889874426
1712226273733,276048.1311789141
1712226273774,235754.15099728992
1712226273813,180160.40220104996
1712226273854,126078.76393168955
1712226273894,86567.32666167524
1712226273934,18023.14520526468
1712226273974,-8143.587262027897
1712226274014,-11562.005995289888
1712226274054,-19490.51269178046
1712226274094,-39463.67550517083
1712226274134,-42121.98413822241
1712226274175,-34578.413634033874
1712226274214,-3929.0087520536035
1712226274254,-6418.021132340655
1712226274294,-26427.051926854998
1712226274334,-2205.7732905158773
1712226274375,8597.702123722527
1712226274414,5144.754098717589
1712226274455,4377.394507520832
1712226274495,27062.36408387567
1712226274535,22669.659521889407
1712226274575,12034.246723083546
1712226274615,-10713.881399985403
1712226274655,-31877.483738183975
1712226274695,-54484.7946497323
1712226274735,-46765.64224087959
1712226274776,-57224.426710175816
1712226274815,-57150.70370979747
1712226274855,-55057.5694788727
1712226274895,-49119.80700978637
1712226274935,-64250.15835572104
1712226274976,-62656.55364526948
1712226275016,-79083.25552475685
1712226275056,-69129.33826460736
1712226275096,-51299.20406604977
1712226275136,-13624.967629399383
1712226275177,15758.566489944234
1712226275216,75480.54622078035
1712226275256,73886.51342700073
1712226275296,63453.86294608703
1712226275336,68657.76060449984
1712226275377,64229.80126283993
1712226275416,59716.550136268605
1712226275457,57210.50173610286
1712226275497,57152.57268190477
1712226275537,54838.29368652962
1712226275578,46888.02253462118
1712226275617,42886.37471710751
1712226275657,42895.74184688227
1712226275697,45515.80312019074
1712226275737,47310.554636138724
1712226275778,39398.915508280974
1712226275818,36776.5965032957
1712226275857,30502.530088565312
1712226275898,24272.662624647375
1712226275938,24069.512302271323
1712226275978,26458.247542712837
1712226276018,22052.58518815809
1712226276058,17680.229472617153
1712226276098,19116.199985810556
1712226276138,15920.761542042717
1712226276179,13666.501189460512
1712226276218,12253.561541126575
1712226276258,11264.52746759518
1712226276299,8040.341783820884
1712226276339,5081.588343651034
1712226276379,6130.098382515833
1712226276419,3714.94119673362
1712226276459,2330.8285664301366
1712226276499,-2363.6267205041368
1712226276539,291.0290844554547
1712226276580,-4695.656213028356
1712226276619,-6845.872531073401
1712226276659,-7409.915469545405
1712226276700,-8553.622818428092
1712226276740,-9687.183994920226
1712226276780,-12622.095403038431
1712226276820,-9935.248851655517
1712226276860,-6903.340059008449
1712226276900,-5863.9165456746705
1712226276940,-5255.392558426596
1712226276981,-5311.173460901249
1712226277020,-4371.803153473418
1712226277060,-2927.117653920781
1712226277100,-2080.2351495502517
1712226277141,-1366.1017247801647
1712226277181,-3555.0046939053573
1712226277221,-6632.84923860617
1712226277261,-8661.13397780573
1712226277301,-9311.292205248028
1712226277341,-10714.26983642159
1712226277382,-11131.47171343863
1712226277421,-11079.097145785578
1712226277461,-11165.16219750652
1712226277502,-11070.71112241596
1712226277542,-11468.4096519351
1712226277582,-10923.552425772883
1712226277622,-9900.680057480931
1712226277662,-8994.429046226665
1712226277702,-7213.597103041131
1712226277742,-6299.465518840589
1712226277783,-5191.672032858478
1712226277822,-3465.984092376195
1712226277862,-2141.8530421277974
1712226277902,-978.7264637248591
1712226277942,-755.1233935435303
1712226277983,-1587.463485735003
1712226278022,-3720.33423877554
1712226278063,-5124.063550195424
1712226278103,-5849.146368091926
1712226278143,-7208.066238760017
1712226278183,-7905.532598496182
1712226278223,-7379.927582139615
1712226278263,-6782.72631103755
1712226278303,-6477.907795615494
1712226278343,-6293.113415197004
1712226278384,-6460.7017868156545
1712226278423,-5684.812610810855
1712226278463,-3737.019125031773
1712226278503,-2637.662486195797
1712226278544,-1840.112720369827
1712226278585,-1285.7533083441667
1712226278624,-582.8095066880342
1712226278664,321.17103929584846
1712226278704,1516.9442010829225
1712226278744,2400.965473323129
1712226278785,1258.8301291035023
1712226278824,-213.91059116483666
1712226278864,-1568.1008448924404
1712226278904,-2300.043999839574
1712226278945,-3116.2146631116048
1712226278985,-3033.9134758869186
1712226279025,-2206.7394715971313
1712226279065,-1018.8013332809787
1712226279105,-117.68123994255438
1712226279145,1347.7298667384312
1712226279186,1605.5930421929806
1712226279225,3641.4908728152514
1712226279265,4952.612195698079
1712226279305,5301.777999206679
1712226279345,5954.428098660894
1712226279386,6849.713117413688
1712226279426,9332.34520459408
1712226279466,10612.381205346435
1712226279506,12719.605700397631
1712226279546,15018.935465394054
1712226279587,16242.538262936287
1712226279626,16693.113908482715
1712226279666,15718.209852949018
1712226279706,14464.945829355624
1712226279746,12747.401836218545
1712226279787,11309.765157626243
1712226279827,10855.445051133167
1712226279867,11507.511699368712
1712226279907,11054.21723166015
1712226279947,11723.452457919717
1712226279988,10727.626940589165
1712226280027,11517.132840385195
1712226280067,12011.463584892219
1712226280107,10821.215026887134
1712226280148,11122.176674811868
1712226280188,10620.875625726301
1712226280228,9308.540846204152
1712226280268,8105.102405995596
1712226280308,8704.716304123634
1712226280348,9701.569688357413
1712226280389,9461.705844426528
1712226280428,8884.15462439484
1712226280468,7990.130840657279
1712226280509,3933.0056615509093
1712226280548,-576.5069515514188
1712226280589,-2687.1303050299175
1712226280629,-2417.3679353012703
1712226280669,-2978.8974023663905
1712226280709,-2494.238319587661
1712226280749,-585.4676784242038
1712226280790,1465.930770860985
1712226280829,3922.9544544271193
1712226280870,6560.9265908245
1712226280910,7970.0066528138705
1712226280950,11070.040204590885
1712226280990,13152.420568209374
1712226281030,13775.164218146354
1712226281070,13156.28303757892
1712226281110,13500.5992473308
1712226281150,12215.162355417851
1712226281191,13503.098339072894
1712226281230,14012.546356409322
1712226281270,14208.580077945953
1712226281310,16292.428612928372
1712226281351,16524.012763941195
1712226281391,13052.30864518648
1712226281431,9126.582610472571
1712226281471,10212.852308961563
1712226281511,13317.034163513687
1712226281551,16305.316804705653
1712226281592,18687.795693621738
1712226281631,15707.924520379165
1712226281671,12014.566266174428
1712226281712,10001.811515066773
1712226281752,10073.836308044149
1712226281792,11327.141967909876
1712226281832,14448.366554063046
1712226281872,16257.4748324533
1712226281912,14781.442355337553
1712226281952,16307.585981314536
1712226281993,12736.502496041823
1712226282032,12891.297534894664
1712226282073,15979.474318884313
1712226282113,11653.97602116107
1712226282153,5751.875422219746
1712226282194,5280.31689128303
1712226282233,4065.6899397545494
1712226282273,4263.625181120355
1712226282313,9193.896947438829
1712226282353,11134.498586597154
1712226282394,7692.452682461124
1712226282433,5697.771014382597
1712226282473,8053.539881955599
1712226282513,11471.961950423196
1712226282554,13486.918894685805
1712226282594,9991.523246527184
1712226282634,8175.202776682563
1712226282674,10755.01655927999
1712226282714,12009.348226854578
1712226282754,11713.41716515529
1712226282795,14749.554713581223
1712226282834,15992.702212384436
1712226282874,12582.11660153512
1712226282914,12823.982662558556
1712226282954,12463.687544505578
1712226282995,10836.017725820187
1712226283035,10081.461567771621
1712226283074,11118.888425274985
1712226283115,9755.765707413433
1712226283155,10791.338145184563
1712226283195,13212.186815587804
1712226283235,15736.769565269817
1712226283275,18257.05913322419
1712226283315,14942.774446232244
1712226283355,9883.766489160713
1712226283396,14136.036705432925
1712226283435,15914.701614997815
1712226283475,16392.648092933
1712226283515,18550.826571061276
1712226283555,18067.91484903707
1712226283596,11737.256388004636
1712226283636,11507.757486477261
1712226283676,14133.483325059526
1712226283716,13270.744209912373
1712226283756,9628.768453881377
1712226283797,8254.320726524573
1712226283836,4950.599443137646
1712226283876,1009.295560545288
1712226283916,-318.5948677039705
1712226283956,52.20319189783186
1712226283997,933.0491785521153
1712226284036,1722.331090906635
1712226284076,1938.3917671199888
1712226284117,1824.6425254149362
1712226284157,1726.9271077695303
1712226284198,2861.6111516237725
1712226284237,2357.3794874367304
1712226284277,2849.396720754914
1712226284317,2812.5867162081413
1712226284357,4536.054273514077
1712226284398,6600.598584339488
1712226284437,5143.353316346416
1712226284477,4212.550723046297
1712226284517,6312.600870643742
1712226284558,6783.041097144596
1712226284598,5129.19192477013
1712226284638,4203.782340703532
1712226284678,1936.281853260938
1712226284718,1360.5550526645966
1712226284758,135.42659160215408
1712226284799,1860.2141161200125
1712226284838,3024.4171571985353
1712226284878,2147.9609451021533
1712226284918,1845.3703391123563
1712226284959,2870.4470490440726
1712226284999,3700.3998481447343
1712226285039,3096.745732285548
1712226285079,2057.1850371747278
1712226285117,3444.9370466503315
1712226285157,4309.023638814222
1712226285198,4149.651299417485
1712226285237,3831.5538360159844
1712226285277,4353.568559426814
1712226285317,4445.054607893806
1712226285357,5614.760816916823
1712226285398,6000.667576282751
1712226285438,4674.0477110533975
1712226285478,3051.5661416323856
1712226285518,2534.429510863265
1712226285558,1717.8366566332988
1712226285599,1218.7356993004214
1712226285638,354.89967674808577
1712226285678,1106.5141298978124
1712226285718,984.8011371770408
1712226285758,1389.088055765722
1712226285799,1180.7091818707995
1712226285839,922.3471904725302
1712226285879,2033.760158302728
1712226285919,2516.8642807200085
1712226285959,2836.302488346817
1712226286000,2716.3729466928635
1712226286039,3522.985142634716
1712226286079,3968.688627548516
1712226286119,3943.971676197136
1712226286159,4051.7691757210996
1712226286200,4694.379739512922
1712226286239,4940.284720458556
1712226286280,5400.526342229452
1712226286320,5296.037675687578
1712226286360,3982.857663187897
1712226286401,2704.5455419735517
1712226286440,1742.3784812400118
1712226286480,1291.0991916691419
1712226286520,685.988512334181
1712226286560,481.3534558825195
1712226286601,1457.4200294306502
1712226286641,1467.1673817494884
1712226286681,2238.5939001671504
1712226286721,2980.2756233238615
1712226286761,2937.6493701401632
1712226286802,3453.7046945230104
1712226286841,4283.420439803507
1712226286881,4777.898932019714
1712226286921,4911.576794010587
1712226286961,4654.524119477486
1712226287002,5402.045630479697
1712226287041,6271.145340202842
1712226287082,7073.499696008861
1712226287122,7474.405891590752
1712226287162,7266.768606577767
1712226287202,7819.245625419542
1712226287242,7969.74406998232
1712226287282,7487.348562065046
1712226287322,6098.2468333132565
1712226287362,4691.832627267344
1712226287403,4879.961420490406
1712226287442,5640.1761327602435
1712226287483,5086.413164220285
1712226287523,5282.975262662629
1712226287563,5273.313446428627
1712226287604,5441.94279578235
1712226287643,6196.876400735462
1712226287683,6327.136713843327
1712226287723,6808.8660956311505
1712226287763,7327.814327336149
1712226287804,8047.016509291483
1712226287844,8274.29075158434
1712226287884,8589.583674434572
1712226287924,9027.0076534783
1712226287964,9314.623850208009
1712226288005,9774.21825151029
1712226288044,9924.829699643655
1712226288084,10133.940424080938
1712226288124,10563.81417064974
1712226288164,10037.459486833308
1712226288205,8938.123942437815
1712226288244,7992.63766388176
1712226288284,7924.824353882112
1712226288325,7250.498381668935
1712226288365,7260.487226017751
1712226288406,7209.594800270628
1712226288445,7750.028159652138
1712226288485,7658.744074568152
1712226288525,7417.844593648799
1712226288565,7111.336496086558
1712226288606,7107.759345530998
1712226288645,7827.80996246147
1712226288686,7576.755933192791
1712226288726,7076.637949229684
1712226288766,7332.922499815235
1712226288807,7425.154027738841
1712226288846,8345.715401487192
1712226288886,9115.800013151485
1712226288926,9450.393562449608
1712226288966,9618.553338025231
1712226289007,9740.611181891523
1712226289047,9784.13110924
1712226289087,9958.967860163655
1712226289127,10236.738000585698
1712226289167,9641.901134261396
1712226289208,8542.274625683203
1712226289247,7279.380633278051
1712226289287,6337.480533887632
1712226289327,6921.867399710929
1712226289367,6322.240514312871
1712226289408,5966.601526251063
1712226289448,5954.42192153167
1712226289488,5283.594784334302
1712226289528,5738.899448188953
1712226289568,5759.919205981307
1712226289609,6126.911365644075
1712226289648,6232.649406311568
1712226289688,6651.708006031346
1712226289728,6785.571329629747
1712226289769,6906.811698219739
1712226289809,7081.53927976219
1712226289849,7552.046224728692
1712226289889,7611.6965169990435
1712226289929,7910.795385138132
1712226289969,8803.945623739157
1712226290010,9340.56323181116
1712226290049,9311.181169863092
1712226290089,9725.284871256677
1712226290130,10280.212199375965
1712226290170,10252.516031418694
1712226290210,7962.284040192608
1712226290250,6430.923820909113
1712226290290,6501.832811628934
1712226290330,5887.796097153332
1712226290370,6289.461826715153
1712226290411,6541.822142753517
1712226290451,6581.904555858113
1712226290491,6836.430452039
1712226290531,6221.519524475094
1712226290571,6351.835754047614
1712226290612,6015.393222008133
1712226290651,5897.719225174282
1712226290691,6127.497242932441
1712226290731,6459.62273263745
1712226290771,6837.185042610392
1712226290812,6933.97886293917
1712226290851,6848.98856255319
1712226290891,7211.287899947958
1712226290931,6901.672238985077
1712226290972,7107.518827517983
1712226291012,7731.875476486515
1712226291052,7057.765045547858
1712226291092,7378.781910629477
1712226291132,7697.122205099557
1712226291172,6846.135850340826
1712226291213,5320.246589292539
1712226291252,4061.9355771045666
1712226291292,3176.8399186441675
1712226291332,3186.2454414244276
1712226291372,2642.0814952033106
1712226291413,2258.8059477000497
1712226291453,2227.5547377360053
1712226291493,1385.6038980691228
1712226291533,1461.0125964484178
1712226291573,802.4638389020693
1712226291613,1447.6099243834615
1712226291653,1637.7788451830857
1712226291693,1072.1459175485652
1712226291733,1343.3286383384839
1712226291773,1022.2604803342838
1712226291814,1120.225121788215
1712226291853,1122.4979230626486
1712226291893,1377.949402809143
1712226291934,1495.6674341857433
1712226291974,1523.8200821992941
1712226292014,2237.823334316723
1712226292054,2685.6908954463433
1712226292094,2675.603886323981
1712226292134,2452.0647255769
1712226292174,1231.4268317101523
1712226292215,-683.8097189008258
1712226292254,-2523.2151104970835
1712226292294,-3471.9224357954226
1712226292334,-3491.8842166841496
1712226292374,-4547.9037710996345
1712226292415,-4485.720053995494
1712226292455,-4225.0019640713
1712226292495,-4703.94801708078
1712226292535,-5798.104778668378
1712226292575,-6376.050789867761
1712226292616,-5473.72181502264
1712226292655,-5630.521167153027
1712226292695,-6355.217876754468
1712226292735,-6311.877220266964
1712226292776,-5227.7830394436605
1712226292816,-5944.074858358363
1712226292856,-5277.6252310848795
1712226292896,-5150.680770823732
1712226292936,-5044.952705768868
1712226292976,-5039.458369300701
1712226293017,-4455.992706098827
1712226293056,-3800.686032990925
1712226293096,-3361.4699618704617
1712226293136,-5528.1128455461
1712226293176,-8147.531909258803
1712226293217,-8380.131818177644
1712226293257,-9013.181797394063
1712226293296,-9874.282057766104
1712226293337,-9690.766993945464
1712226293377,-10282.68393464759
1712226293417,-10483.104322331492
1712226293457,-10416.434326207032
1712226293497,-10507.517737223068
1712226293537,-10440.975430432009
1712226293577,-9947.133588937577
1712226293618,-9121.850870934082
1712226293657,-8615.294080767082
1712226293698,-8668.314982922282
1712226293738,-8688.69671237981
1712226293778,-8140.208526363596
1712226293819,-7340.754350215662
1712226293858,-6278.458360999823
1712226293898,-6313.039576192386
1712226293938,-5378.606579752639
1712226293978,-4467.897422457114
1712226294019,-4245.561809028499
1712226294058,-4224.870414698031
1712226294099,-2963.237113701878
1712226294139,-2497.2668890804052
1712226294179,-2857.0928254947066
1712226294220,-5316.60362342
1712226294259,-6784.784133159323
1712226294299,-7917.480376587715
1712226294339,-9317.788781421725
1712226294379,-9957.395003872458
1712226294420,-10071.343832559418
1712226294460,-9440.07508552866
1712226294499,-10360.837404569378
1712226294540,-9856.489119778387
1712226294580,-9374.154275565641
1712226294620,-9387.095869183075
1712226294660,-9134.784800261725
1712226294700,-8881.088675760198
1712226294740,-8430.30210119905
1712226294780,-8158.09282865026
1712226294821,-7718.824951240094
1712226294860,-7694.966027182527
1712226294900,-7182.185599044897
1712226294941,-6986.189288692549
1712226294981,-6547.6388185019605
1712226295022,-5481.785411809571
1712226295061,-5383.259705039673
1712226295101,-5364.017265996197
1712226295141,-4781.435838562669
1712226295182,-4212.380652493797
1712226295222,-5648.711595224217
1712226295262,-7568.303224605741
1712226295302,-8351.606905660592
1712226295342,-8545.227434034692
1712226295382,-9669.04175511864
1712226295423,-9773.965903109405
1712226295462,-9862.180910099065
1712226295502,-9332.134636564413
1712226295542,-9235.795188677264
1712226295582,-9751.662994509097
1712226295623,-9199.138721593656
1712226295663,-8335.045225583017
1712226295703,-8190.7987052765675
1712226295743,-7799.71884352644
1712226295783,-7499.924666734412
1712226295824,-7199.092266673222
1712226295863,-6453.595891583711
1712226295903,-6287.081747826422
1712226295943,-5737.654188564746
1712226295984,-5212.858719495591
1712226296024,-4164.4514517239295
1712226296064,-3848.521675415337
1712226296104,-3048.3065114039928
1712226296144,-1853.9586243371014
1712226296184,-852.6985904159956
1712226296225,-503.3811295472551
1712226296264,-1524.638903177809
1712226296304,-4020.7697395063005
1712226296345,-4513.126062658383
1712226296385,-4796.660009117331
1712226296425,-5378.280864298809
1712226296465,-5258.016981393099
1712226296505,-5430.778614529874
1712226296545,-5235.867986448109
1712226296585,-5340.848607977387
1712226296626,-5323.5450258543715
1712226296665,-5271.512703257147
1712226296706,-5066.605455640703
1712226296746,-4858.9719846553635
1712226296786,-4303.840241611237
1712226296826,-3960.0828378871083
1712226296866,-3154.517356335884
1712226296906,-3280.0777622149326
1712226296946,-2699.6260577463545
1712226296986,-2456.7332438572776
1712226297027,-1215.235609995667
1712226297067,-147.59894956438802
1712226297107,320.6577462130226
1712226297150,270.71160608390346
1712226297190,1382.8745330190286
1712226297231,2059.979871591553
1712226297270,2378.6567009272985
1712226297310,2473.9333434673026
1712226297351,3028.815077801468
1712226297391,3784.295332562644
1712226297431,4021.0768121983856
1712226297471,3407.069184836466
1712226297511,1305.4818806555122
1712226297551,141.9250443414785
1712226297591,-206.6442812588066
1712226297632,-1244.3987787598744
1712226297671,-1612.2183017977513
1712226297712,-1032.4762125543784
1712226297752,-1000.9168067318387
1712226297792,-840.9220353965648
1712226297833,-1103.0598601053935
1712226297872,-2710.917645133799
1712226297912,-3108.264868150465
1712226297953,-6592.465838349657
1712226297992,-7406.632552330615
1712226298033,-2017.7800097782165
1712226298073,-925.5489221233875
1712226298113,8459.810149938101
1712226298153,17781.170825813897
1712226298193,19198.737496505026
1712226298234,24217.47687012516
1712226298273,24433.130929371808
1712226298313,20421.683516206685
1712226298353,20589.55722037563
1712226298393,13826.476604729658
1712226298434,-7244.67364281835
1712226298474,-26775.61422343133
1712226298514,-38465.72809081781
1712226298554,-44316.506861732574
1712226298594,-38831.9480791362
1712226298634,-33693.199422780424
1712226298674,-32545.907313446514
1712226298714,-39745.099864838645
1712226298754,-41128.274068017025
1712226298794,-22423.627053837525
1712226298835,-12974.129420407815
1712226298874,-11036.31715338258
1712226298915,-727.1733963896986
1712226298954,3756.495303270407
1712226298995,-4089.667300859466
1712226299036,-19095.948766344693
1712226299075,-18538.476581697818
1712226299115,-18816.999577993527
1712226299155,-7323.45263680513
1712226299195,-7495.776320348727
1712226299236,4516.376379887806
1712226299275,8785.718773883069
1712226299315,20703.917906147428
1712226299355,48006.97013417608
1712226299395,37225.61521995673
1712226299436,7862.294384565204
1712226299476,5977.866416533478
1712226299516,-19452.123790822458
1712226299556,-33864.19419489289
1712226299596,-43463.811513463734
1712226299637,-43207.45266597811
1712226299676,-48680.517164874356
1712226299716,-35756.95351419761
1712226299756,-56010.89497811347
1712226299796,-75531.64085717406
1712226299837,-67211.04489120794
1712226299876,-64089.949768874096
1712226299916,-54086.3634265447
1712226299956,-41047.973314641975
1712226299997,-14331.796756412135
1712226300037,3999.8156390725635
1712226300077,31843.588301945012
1712226300117,50395.638126042206
1712226300157,55657.8759798822
1712226300197,51586.89488548506
1712226300238,47955.95098898513
1712226300277,51462.093926388305
1712226300317,70406.8357953555
1712226300357,66186.07395696547
1712226300397,63311.146429277724
1712226300438,56884.06774051045
1712226300478,57904.049743388314
1712226300518,44222.103214432485
1712226300558,44291.789236368146
1712226300598,27214.454245451372
1712226300639,17705.301419956144
1712226300678,11348.283896664623
1712226300718,20439.64105275995
1712226300758,25620.128802836174
1712226300798,60210.82095702295
1712226300839,86658.41864083707
1712226300879,98871.96027689544
1712226300919,82414.78628695081
1712226300959,74750.00387540832
1712226300999,46340.47982369317
1712226301040,72748.3695432716
1712226301079,100503.1693031541
1712226301119,96988.3372913627
1712226301159,88138.8797343832
1712226301199,68412.46964200959
1712226301240,65352.13776959665
1712226301280,44034.9548957916
1712226301320,20381.720277622808
1712226301360,-9936.493573076325
1712226301400,-33731.12745202775
1712226301441,-44662.72508391808
1712226301480,-66722.38550302992
1712226301520,-75270.12866000831
1712226301560,-69606.11317676771
1712226301600,-66998.51626258134
1712226301641,-47231.69181898725
1712226301681,-39863.08513803966
1712226301721,-45084.97382829478
1712226301761,-39269.22323401505
1712226301801,-46827.30811927421
1712226301841,-44655.11427016556
1712226301881,-42715.5147065483
1712226301921,-46214.641382972244
1712226301961,-31676.161694664042
1712226302001,-13100.707803822123
1712226302042,1508.1994936252013
1712226302081,-1326.5337766692974
1712226302122,-2561.3377305702306
1712226302162,-14940.302269181237
1712226302202,-19491.28094390384
1712226302242,-13306.458457823377
1712226302282,4839.687438226538
1712226302322,1593.5188224744052
1712226302362,15584.05053828843
1712226302402,10820.719619656447
1712226302443,11782.232034626417
1712226302482,10066.144384178566
1712226302523,3597.486372766085
1712226302563,15665.839738782495
1712226302603,19815.175763529493
1712226302644,23882.577235401608
1712226302683,14464.821553931106
1712226302723,15167.73231295566
1712226302763,17287.08598602959
1712226302803,8361.949934598524
1712226302844,1503.542688156478
1712226302883,-4421.2582321066875
1712226302923,-14588.128185627284
1712226302963,-27489.54922194779
1712226303004,-38392.379933823366
1712226303044,-50669.818416913506
1712226303084,-55063.383027543314
1712226303124,-54680.62919258792
1712226303164,-58724.09652135335
1712226303204,-39685.813817639835
1712226303245,-31094.313917925116
1712226303284,-10591.07616673573
1712226303324,573.5450910499785
1712226303365,2054.997032786254
1712226303405,5362.92030034354
1712226303445,22327.27168462309
1712226303485,16711.396724801976
1712226303525,-8341.327136324253
1712226303565,-20566.67422517971
1712226303605,6898.23805398331
1712226303646,-9455.52416496817
1712226303685,-18827.332698540762
1712226303726,-33200.46274328325
1712226303766,-20741.245467274915
1712226303806,3007.6148854536004
1712226303847,-16132.72473169677
1712226303886,-27867.500050916802
1712226303926,-24098.08863057359
1712226303966,-15856.687135791639
1712226304006,-20506.13344642194
1712226304047,-25159.72043769993
1712226304087,-19143.703547810204
1712226304126,-17842.14423372154
1712226304167,-8059.008108243113
1712226304210,-8876.497477582656
1712226304248,-21090.17677198327
1712226304287,-50533.510115073994
1712226304327,-43652.22748638876
1712226304367,-29715.40942963399
1712226304407,-37586.571280267555
1712226304448,-33298.2392756301
1712226304487,-30522.40337806428
1712226304528,-28801.22570354631
1712226304568,-51106.82231156109
1712226304608,-44352.41496043047
1712226304649,-34372.84614967555
1712226304688,-45955.260641067754
1712226304728,-54052.00021816138
1712226304768,-16093.680098597426
1712226304808,27177.5144466802
1712226304849,12132.160561898258
1712226304889,-11645.365740853827
1712226304929,-15533.982830293244
1712226304969,-1687.2822885327041
1712226305009,8153.537889950909
1712226305050,2238.893522523809
1712226305089,-7856.008893717546
1712226305129,-12156.1197659038
1712226305170,-14103.589281870052
1712226305210,-15787.404753376264
1712226305250,-19836.894352737814
1712226305290,-20576.305503242183
1712226305330,-21508.776418125723
1712226305370,-21530.84046369116
1712226305410,-21205.061061072396
1712226305451,-22248.446290689986
1712226305490,-22377.7078077076
1712226305531,-20716.81192095764
1712226305571,-20379.12807585369
1712226305611,-19614.310234339442
1712226305652,-18974.930213686544
1712226305691,-17923.737289168406
1712226305731,-16668.136867069406
1712226305771,-15907.570024571382
1712226305811,-14855.171556290006
1712226305852,-13608.869773248443
1712226305892,-12057.235729651293
1712226305932,-12449.672958005685
1712226305972,-14698.061326080468
1712226306012,-16886.68162045302
1712226306053,-18173.176386989653
1712226306092,-19087.08244220633
1712226306132,-19008.869275511708
1712226306173,-18786.720440957695
1712226306213,-18103.27310379455
1712226306253,-17614.652957212646
1712226306293,-17216.492610706482
1712226306333,-16444.71418799972
1712226306373,-15500.023981968407
1712226306416,-14918.239480776247
1712226306454,-13977.593378637219
1712226306493,-12916.945845431415
1712226306533,-12064.13649372803
1712226306573,-11175.338344082935
1712226306614,-10208.83943622373
1712226306654,-9743.568584409775
1712226306693,-8293.83986634342
1712226306734,-7041.20347581571
1712226306774,-6043.042296892032
1712226306814,-5004.424294829601
1712226306855,-4251.638629564084
1712226306894,-4200.027065623552
1712226306934,-6203.043355472386
1712226306974,-8638.43975217361
1712226307014,-10097.102677049581
1712226307055,-10695.571146723349
1712226307094,-10837.123198358808
1712226307134,-11399.703425595537
1712226307174,-11006.825669913087
1712226307215,-9874.766026056372
1712226307255,-11366.955949549098
1712226307295,-10211.116234966321
1712226307335,-8217.130766939372
1712226307375,-6963.8114133155905
1712226307415,-6887.317127045477
1712226307456,-5866.724872020772
1712226307495,-4883.914944865741
1712226307535,-4152.805233839434
1712226307575,-3513.7286075127777
1712226307615,-2961.469030963257
1712226307656,-2458.170284707332
1712226307696,-1170.7696024929173
1712226307736,-295.86256856890395
1712226307776,28.251402228605002
1712226307816,921.9795178817585
1712226307857,1550.4640612327494
1712226307896,988.5148293843959
1712226307936,-861.2593830595724
1712226307976,-2841.0926632578485
1712226308016,-3911.8210328849964
1712226308057,-4348.7894906015135
1712226308097,-3874.226823330391
1712226308137,-3291.339710464934
1712226308177,-3335.109951159451
1712226308217,-3314.424527930096
1712226308257,-1902.0121134249493
1712226308297,-1459.2569771925919
1712226308337,-1286.9363579505589
1712226308377,-115.32845364557579
1712226308417,624.3312662802637
1712226308458,1240.1298904088326
1712226308497,1244.484949915437
1712226308538,4127.648759892676
1712226308578,4303.693071877118
1712226308620,4817.426936805714
1712226308659,5804.649278440978
1712226308698,7128.572419052711
1712226308738,7784.948657363653
1712226308778,8963.543649467407
1712226308818,9032.921639614506
1712226308859,7613.626750085037
1712226308898,6091.9952070242725
1712226308938,5458.528845233377
1712226308978,4764.700365516823
1712226309019,4859.398770623375
1712226309059,4827.109679358546
1712226309099,4771.693833449855
1712226309139,5344.638973365305
1712226309180,5940.962230720092
1712226309220,6270.779170530848
1712226309261,6646.00588914426
1712226309300,7175.164722241228
1712226309341,8227.618823926896
1712226309381,8096.880033155903
1712226309421,8341.553886921378
1712226309461,8760.097248689504
1712226309501,9152.881568265613
1712226309541,9326.415870440193
1712226309581,9947.837324683554
1712226309621,10222.804185046116
1712226309662,10845.329344383674
1712226309701,11666.32960170228
1712226309742,11719.273710464826
1712226309782,10437.089818465523
1712226309822,7907.681096946821
1712226309863,6249.881324041169
1712226309902,5269.6845568805
1712226309942,4615.373051632661
1712226309982,5348.294642247958
1712226310022,5469.3216164065525
1712226310063,5216.306230458198
1712226310103,5337.83561211708
1712226310143,5277.801843909547
1712226310183,5262.525009217672
1712226310223,5189.517935846932
1712226310264,5671.995807020692
1712226310303,6001.104755543871
1712226310343,7075.884385285201
1712226310383,6692.363820471801
1712226310423,6778.631140498444
1712226310464,7423.312936536502
1712226310504,7415.372594439192
1712226310544,7648.496126701124
1712226310584,7698.454566982109
1712226310624,8719.938768287655
1712226310665,9197.312929303851
1712226310704,8142.723874110263
1712226310744,6863.365412736079
1712226310784,5676.800306534627
1712226310825,4942.531653341837
1712226310865,4227.861315714195
1712226310905,4539.97779281158
1712226310945,5120.577207095455
1712226310985,4737.356685101055
1712226311025,4918.28544197022
1712226311066,4776.761863050982
1712226311105,4277.8417686126195
1712226311145,4478.952350843931
1712226311185,5607.189334504772
1712226311225,6486.627606099006
1712226311266,6619.867074125679
1712226311306,6987.227462165058
1712226311346,7418.9359376512
1712226311386,8625.335664379178
1712226311426,8914.33693376137
1712226311467,9069.078121162718
1712226311506,10071.221099989023
1712226311546,10937.262318023713
1712226311586,10886.071731141303
1712226311626,9265.610727718566
1712226311667,8398.459863557015
1712226311707,7059.041305547813
1712226311747,6269.413288497366
1712226311787,6192.329734401777
1712226311827,6455.116615993204
1712226311868,6653.13106388133
1712226311907,5658.03725782549
1712226311947,5746.125868692063
1712226311987,6066.630302057136
1712226312027,5786.954234967241
1712226312068,5044.08558866079
1712226312107,5865.92454236187
1712226312148,6588.876967815915
1712226312188,7492.623234255705
1712226312228,7802.464895782992
1712226312269,8284.42305190512
1712226312308,8452.502796436893
1712226312348,8736.258518717717
1712226312388,8532.152041487861
1712226312428,6552.596683664015
1712226312469,4333.773487618659
1712226312509,2730.2877769097686
1712226312549,1927.3400508719496
1712226312589,1714.9952720829751
1712226312629,1844.6281831485685
1712226312670,1499.1535605723038
1712226312709,1036.409722625045
1712226312749,1341.7087177529465
1712226312789,1004.0749785525259
1712226312830,1642.8079890792724
1712226312870,1826.4502371933777
1712226312910,1596.2863759251777
1712226312950,1338.0899150925688
1712226312990,1713.2460516532883
1712226313030,2579.9778839065693
1712226313071,3350.03178301733
1712226313110,3307.8289109817706
1712226313150,3638.7750054085627
1712226313191,4441.967316459166
1712226313231,5167.487759817159
1712226313271,5492.213034624234
1712226313311,5657.133897191845
1712226313351,4896.235456729308
1712226313391,3395.2599149765447
1712226313431,1634.2817206215113
1712226313472,350.45196431223303
1712226313511,-305.2356184516102
1712226313551,-659.3027638609055
1712226313592,-714.8603653414175
1712226313632,-1201.4586293264292
1712226313673,-651.2194734495133
1712226313712,-849.4606724567711
1712226313752,-1086.4732334087603
1712226313792,-437.0647904078942
1712226313832,172.9318661086727
1712226313873,184.494856194593
1712226313913,97.99772327300161
1712226313953,147.79876180621795
1712226313993,971.8785593381617
1712226314033,1118.402257918613
1712226314074,1791.762955949176
1712226314113,1365.500663627172
1712226314153,1865.666175387567
1712226314193,2666.3286986635067
1712226314233,3676.2844078261405
1712226314274,2576.693090455141
1712226314314,725.6822392086033
1712226314353,-2013.6000831674319
1712226314394,-2579.9620658135973
1712226314434,-2474.159511905862
1712226314474,-2338.844515022356
1712226314514,-2591.500874229474
1712226314554,-2514.414852237096
1712226314594,-2585.842864541337
1712226314634,-2356.0895853976253
1712226314675,-2546.515456812922
1712226314714,-1767.191942192847
1712226314754,-1520.9669459215365
1712226314794,-1204.0136124799028
1712226314834,-672.9322236734442
1712226314875,-101.75149121833965
1712226314915,826.6632953844965
1712226314954,1232.1596728207078
1712226314995,1417.1721843956038
1712226315035,2235.1832807203755
1712226315075,2092.578266008757
1712226315115,2484.6672117763665
1712226315155,4018.3217077467125
1712226315195,4728.833158276277
1712226315235,3884.123585831141
1712226315276,870.6166232717223
1712226315315,-961.2583007742651
1712226315355,-1646.641638761852
1712226315396,-1395.663396086311
1712226315435,-1789.1128746340983
1712226315476,-1798.7005671865772
1712226315516,-2354.7389721742366
1712226315556,-1842.4848410496488
1712226315596,-2064.4918602481484
1712226315636,-1529.484548011329
1712226315677,-2002.3556012099143
1712226315716,-1838.7739965217188
1712226315756,-1360.5835040763486
1712226315796,-962.0626529254951
1712226315836,-344.27788827125914
1712226315877,215.2288767262362
1712226315917,781.4195945768151
1712226315957,839.2201992776245
1712226315997,1204.1834947245661
1712226316037,1845.8234761403874
1712226316078,2097.43500937894
1712226316117,2942.083612405695
1712226316157,3767.680744426325
1712226316197,3427.8021149274427
1712226316237,762.7683241355699
1712226316278,-1709.3230537185445
1712226316317,-2939.964134993963
1712226316357,-2436.1181542179547
1712226316397,-2807.616945200367
1712226316438,-3604.7137758703902
1712226316478,-3282.8412269135006
1712226316518,-3445.6679260972887
1712226316558,-3501.4610128188506
1712226316598,-3425.142238580622
1712226316638,-3586.337372479029
1712226316679,-3410.9893809054047
1712226316718,-3228.1106357420795
1712226316758,-2507.5254996074364
1712226316798,-1666.5982421133667
1712226316838,-1581.511882478604
1712226316879,-1042.4555004192516
1712226316918,-844.7135406807065
1712226316959,377.80509716505185
1712226316999,926.9640856445767
1712226317039,1885.6391882258467
1712226317080,2529.9827979404945
1712226317119,1820.4126662663184
1712226317159,-933.2087666592561
1712226317199,-2947.49728820147
1712226317239,-3664.575212039752
1712226317280,-4145.293929656036
1712226317319,-4115.975052325986
1712226317359,-4086.7038051390555
1712226317399,-3751.65774795739
1712226317440,-3576.9076072378084
1712226317480,-3835.237130650785
1712226317520,-3644.2317142593674
1712226317560,-2443.0525637052488
1712226317600,-1941.0431639866438
1712226317640,-1708.533230027184
1712226317681,-1041.2372487382963
1712226317720,-142.09801358892582
1712226317760,555.1434213703033
1712226317800,592.9225028087385
1712226317840,1013.6926581189036
1712226317881,1808.0180476102978
1712226317921,2618.925602881238
1712226317961,3065.8387851058505
1712226318001,3456.9889997926075
1712226318041,3734.9102155165747
1712226318082,3035.269290148746
1712226318121,930.558432945516
1712226318161,-1073.091532829916
1712226318201,-2566.4637581638526
1712226318241,-2480.5665613925084
1712226318282,-2717.581811133772
1712226318321,-2721.7674932878
1712226318361,-1970.9235978387296
1712226318402,-2012.5154596497305
1712226318442,-2126.3411539793015
1712226318482,-1895.0847224232275
1712226318522,-1495.1962287409697
1712226318562,-993.324297813233
1712226318602,-486.49878749623895
1712226318642,171.21990245277993
1712226318683,-169.2713099126704
1712226318722,-244.67119090841152
1712226318763,86.70771031128243
1712226318802,390.9174959869124
1712226318843,389.1402782315854
1712226318884,889.3078940154519
1712226318923,1138.8810364590026
1712226318963,2027.0676329659764
1712226319003,2580.8150549996644
1712226319043,3083.9802969726734
1712226319084,2246.5176037505735
1712226319123,117.60013060783967
1712226319163,-1393.706906909356
1712226319203,-1912.3699171785265
1712226319243,-1872.0310602218378
1712226319284,-1493.3247964538168
1712226319323,-991.3562462027185
1712226319364,-1119.3252783496864
1712226319404,-1393.9140958439093
1712226319444,-1443.2299952488393
1712226319485,-1272.61266562948
1712226319524,-1811.4216613243334
1712226319564,-1305.254724231083
1712226319604,-935.6828425866552
1712226319644,-1039.8086927444674
1712226319685,-1180.7535889628343
1712226319724,-56.20081242895685
1712226319764,592.3555243071169
1712226319804,1153.6053601806052
1712226319845,2266.2514313803986
1712226319885,3100.209445932647
1712226319925,3635.452919125557
1712226319965,4782.419867281802
1712226320005,5332.460840989603
1712226320045,5240.4546038564295
1712226320086,3744.983013901394
1712226320125,1455.7519969816785
1712226320165,475.81229946389794
1712226320205,268.4836146077141
1712226320245,-166.29903551610187
1712226320286,-695.4303177283145
1712226320325,-587.683485021349
1712226320365,-760.7449266286567
1712226320406,-491.1618794989772
1712226320446,-481.5789097296074
1712226320486,-601.696617896203
1712226320526,-448.098420125898
1712226320566,-212.58396967174485
1712226320606,576.8331899489276
1712226320646,980.0219677882269
1712226320687,1266.0485254204832
1712226320726,1610.559006069554
1712226320766,2088.234774202574
1712226320807,2487.6778711967636
1712226320847,2826.3578602985945
1712226320887,3353.722438594792
1712226320927,4021.682710606372
1712226320967,4317.459857576294
1712226321007,3883.418361851014
1712226321047,2181.452313491609
1712226321088,685.7766231666319
1712226321127,-399.2609678739682
1712226321168,-463.6346454026643
1712226321207,-665.3001096940134
1712226321248,-750.685359400697
1712226321288,-277.3704733001068
1712226321328,374.9019284781534
1712226321368,316.8021288055461
1712226321408,-234.34083265787922
1712226321448,-56.417509239632636
1712226321489,252.9925084616989
1712226321528,930.0140899685211
1712226321568,970.2052105506882
1712226321608,1459.6738852444105
1712226321649,1474.382504218258
1712226321689,1938.4013355360366
1712226321729,2523.640500712674
1712226321769,3079.1708020125516
1712226321809,3615.457131473813
1712226321849,3980.0486330215354
1712226321890,4385.7534839625005
1712226321929,5043.31320087635
1712226321969,2915.2107952586375
1712226322009,327.59971224493347
1712226322049,-1042.1204156416934
1712226322090,-1033.669554658467
1712226322130,-1362.2835776330903
1712226322170,-2673.8032325471286
1712226322210,-3042.192510705674
1712226322250,-2441.192688395502
1712226322291,-2421.026912377216
1712226322330,-3410.507442475762
1712226322370,-4370.954384225421
1712226322410,-4076.693243711721
1712226322450,-3812.8852439506445
1712226322491,-3727.9270904948935
1712226322530,-2884.1588997822255
1712226322570,-2932.6993345278315
1712226322611,-2907.1516341366805
1712226322651,-2472.7366212652996
1712226322691,-683.1544798666146
1712226322731,-621.3654283252545
1712226322771,-313.4025839269161
1712226322811,129.11300031957217
1712226322851,978.6378296227194
1712226322892,-144.1232517187018
1712226322931,-1901.0367699204944
1712226322972,-4004.948648665333
1712226323012,-4844.339909216622
1712226323052,-5546.914132236736
1712226323093,-5796.14493313618
1712226323132,-5992.864464321639
1712226323172,-6074.742895135423
1712226323212,-6312.56377680623
1712226323252,-6694.573321305448
1712226323293,-6137.0057161287405
1712226323333,-6249.753276518546
1712226323372,-6181.72240900388
1712226323412,-5537.896508586127
1712226323453,-4220.16393847554
1712226323493,-3676.914919471368
1712226323532,-3577.994082136778
1712226323573,-3373.5951556605287
1712226323613,-1470.154485795414
1712226323653,-447.3766767757479
1712226323694,-196.39484891481698
1712226323733,688.4148969533853
1712226323773,297.34796377969906
1712226323813,-1908.6780808076728
1712226323853,-3575.6181300024036
1712226323894,-5050.535091991071
1712226323933,-5645.173195030075
1712226323973,-6513.5374430581
1712226324013,-5901.3750838977285
1712226324054,-5924.152863717172
1712226324094,-6288.302368617849
1712226324134,-5593.320163093507
1712226324174,-6176.128772068303
1712226324214,-5730.094718725188
1712226324254,-5264.838041511131
1712226324295,-5373.451290303841
1712226324334,-5273.24045733409
1712226324374,-4180.88964083395
1712226324414,-2906.5497815175913
1712226324454,-2220.058043576777
1712226324495,-3532.3881811266765
1712226324535,-3683.7448192762677
1712226324575,-2087.29999367008
1712226324615,862.3980518190656
1712226324655,2156.393072272418
1712226324695,273.1484886968974
1712226324735,-2892.4012875803746
1712226324775,-4551.620775335003
1712226324815,-5232.689407149795
1712226324855,-6831.596002883045
1712226324896,-7396.753269516397
1712226324935,-7930.377614376834
1712226324975,-8429.498933692696
1712226325016,-7582.249418526888
1712226325056,-8747.22542891372
1712226325096,-10680.779087028932
1712226325136,-10193.83825625712
1712226325176,-8395.642137768213
1712226325216,-9424.963686581934
1712226325256,-9202.141554994509
1712226325297,-8830.791642626515
1712226325336,-7336.671331435442
1712226325377,-6887.833847947884
1712226325416,-6635.299365503248
1712226325457,-7512.295459454181
1712226325497,-6821.706543442793
1712226325537,-2952.4179829740897
1712226325577,-1310.200408632867
1712226325617,-1242.4116377253085
1712226325657,-3359.0319019278977
1712226325698,-5168.231638845522
1712226325737,-7301.173010411905
1712226325777,-5210.103668494616
1712226325817,-5087.11441186443
1712226325858,-5389.054001986515
1712226325898,-8300.788315903395
1712226325938,-7102.057413775241
1712226325978,-5749.836603648728
1712226326018,-8263.017222420312
1712226326058,-9850.841368048918
1712226326099,-8472.158403438283
1712226326138,-6887.432704466395
1712226326178,-10315.074729742715
1712226326218,-10350.465068115387
1712226326258,-7750.832119305152
1712226326299,-6933.974828920094
1712226326338,-1680.6080644831527
1712226326378,4249.313899710774
1712226326419,5487.217444229871
1712226326459,18779.169578820467
1712226326499,49965.97316398495
1712226326539,60568.51149537042
1712226326579,58928.693733690074
1712226326619,60195.94209706271
1712226326659,56272.054097649874
1712226326700,62476.165944988374
1712226326739,61942.93617511634
1712226326779,61061.92842692975
1712226326820,60661.90997179155
1712226326860,65466.82879649545
1712226326900,63003.529076399514
1712226326940,64268.41488566855
1712226326980,61970.632221320644
1712226327020,56347.48619868141
1712226327060,56896.73027565773
1712226327101,58065.418154781684
1712226327140,57962.84747521393
1712226327181,54334.671756754164
1712226327221,49270.77338551218
1712226327261,53266.04987254413
1712226327302,57618.46918724524
1712226327341,59226.63220623648
1712226327381,56177.90916087548
1712226327421,55708.127688257024
1712226327461,53800.00072953501
1712226327502,50888.56748351897
1712226327542,45970.253369566984
1712226327582,32388.61974876211
1712226327622,24174.72283903649
1712226327662,22228.22081232583
1712226327703,26903.808759021107
1712226327742,27592.48255563248
1712226327782,28401.019984127488
1712226327822,20327.908411647193
1712226327862,29619.22378735384
1712226327903,38346.93572719209
1712226327943,50350.590683676535
1712226327983,48709.29286752525
1712226328023,56129.568493270315
1712226328063,57848.78762731189
1712226328104,54063.01050399919
1712226328143,38227.056390404
1712226328183,39333.02953196876
1712226328223,32523.503980461042
1712226328263,28266.253910934553
1712226328304,39281.34830714157
1712226328344,34499.477019272745
1712226328384,20007.821224281564
1712226328424,3820.181417184416
1712226328464,-8702.9305124206
1712226328505,-36135.44757670653
1712226328544,-65363.2066338365
1712226328584,-75160.27434390108
1712226328624,-71973.84821899561
1712226328665,-60238.853332380764
1712226328705,-51522.85758154141
1712226328745,-36652.42655789666
1712226328785,-31335.761168316007
1712226328825,-27567.54554041312
1712226328865,-15317.778601270635
1712226328906,4738.336852673441
1712226328945,14696.69442166551
1712226328985,15844.64071205887
1712226329025,10372.504957273137
1712226329066,2861.9108744463883
1712226329106,3924.57630031975
1712226329146,-1708.1871182962786
1712226329186,-11345.916495681275
1712226329226,-24197.61245090328
1712226329266,-26436.409196837805
1712226329307,-32602.381409361493
1712226329346,-39906.45327123441
1712226329386,-39556.20057595172
1712226329426,-32738.38251390867
1712226329467,-34328.66980478866
1712226329507,-33868.23014124809
1712226329547,-24889.65083381487
1712226329587,-26540.704517497215
1712226329627,-23371.204138376284
1712226329667,-22772.24351775041
1712226329708,-19852.252155114897
1712226329747,-14287.562202869216
1712226329787,-16901.969184577
1712226329828,-20097.66800580523
1712226329868,-17823.72855067416
1712226329908,-19058.738829812035
1712226329948,-17493.22269823309
1712226329988,-18843.265500073554
1712226330028,-22167.460062230937
1712226330068,-27383.218330864795
1712226330109,-27933.033221144928
1712226330149,-23868.224551758263
1712226330189,-27048.068941994105
1712226330229,-19398.688833181513
1712226330269,-20566.732818828663
1712226330310,-20414.79980044719
1712226330349,-25602.492146377917
1712226330389,-28594.069062216673
1712226330429,-32205.57549000671
1712226330469,-34584.28437726898
1712226330510,-39934.52056635427
1712226330550,-42514.043873075396
1712226330590,-46138.416489336174
1712226330630,-48893.40264783357
1712226330670,-48868.97076310031
1712226330711,-48272.46880889265
1712226330750,-50627.44040493341
1712226330790,-51320.354591158684
1712226330830,-52468.15648225881
1712226330871,-52107.52537261043
1712226330911,-55686.5207188488
1712226330951,-50330.224337297026
1712226330991,-50525.65811298671
1712226331031,-44769.632343922975
1712226331071,-44093.050932352664
1712226331112,-38562.8841379995
1712226331151,-33237.504630380776
1712226331191,-19229.606924958993
1712226331231,-3362.3874253565446
1712226331272,3527.9457074850798
1712226331312,5980.375997315161
1712226331352,8614.144733944442
1712226331392,11653.470864718314
1712226331432,14573.396030699369
1712226331472,18892.322333833203
1712226331513,19751.17575783818
1712226331552,24838.346569719957
1712226331592,30324.243057533866
1712226331632,36710.769159410615
1712226331672,36152.438310991274
1712226331713,36566.44899228169
1712226331752,34382.543404749595
1712226331792,33959.613351035165
1712226331832,33804.29362829821
1712226331873,31369.60240450944
1712226331913,29573.852010437055
1712226331953,28777.44932139502
1712226331993,27699.624811817193
1712226332033,23857.171570168342
1712226332073,20764.09874702408
1712226332114,19605.622953609563
1712226332153,19553.417442045175
1712226332193,19838.199813640444
1712226332233,20363.606194781372
1712226332273,20598.77436750522
1712226332314,18827.379082810134
1712226332354,20773.648121488048
1712226332394,18127.43370742211
1712226332434,20033.378447998082
1712226332474,26791.785410258453
1712226332514,27840.075592109468
1712226332554,28366.705807424616
1712226332594,29394.12024446251
1712226332634,31674.42656184896
1712226332674,31371.28977569565
1712226332715,32520.411082575796
1712226332754,33716.303871033946
1712226332794,36552.49765244848
1712226332835,36884.10022238619
1712226332875,37752.25158645958
1712226332915,39876.90904011484
1712226332955,38712.08908632072
1712226332995,37268.49901501555
1712226333035,36124.42193187494
1712226333075,35505.4272391228
1712226333116,34909.19762707222
1712226333155,35458.674565683585
1712226333195,34488.04877122305
1712226333232,33947.63941082754
1712226333272,32428.740173437167
1712226333313,32889.71730607422
1712226333353,31349.134326609317
1712226333393,31356.69491243735
1712226333433,30505.142642729916
1712226333473,28650.52019883273
1712226333514,28910.013973161578
1712226333553,29595.545108857565
1712226333593,28211.89934230596
1712226333633,28413.402941208333
1712226333673,30614.39993786253
1712226333714,31320.670431081206
1712226333753,27975.102744999807
1712226333794,29576.214903129265
1712226333834,29039.50524046272
1712226333874,25772.82012345479
1712226333915,24018.87756664306
1712226333954,22182.271703661652
1712226333994,20640.36653505778
1712226334034,22921.28708896949
1712226334074,22921.873397703515
1712226334115,23704.187236760976
1712226334154,23820.830874874722
1712226334194,23758.776373245288
1712226334234,23273.002335476223
1712226334274,20885.110411026515
1712226334315,18659.35079185292
1712226334355,17205.48393518175
1712226334395,15180.527703951113
1712226334435,13631.675051788334
1712226334475,13349.189565085107
1712226334516,11718.569139339728
1712226334555,9838.640573610319
1712226334595,8475.56711508939
1712226334635,8044.836585940793
1712226334675,6519.755688634235
1712226334716,2541.7191256005317
1712226334756,-1934.7205622741021
1712226334796,-5250.369866228662
1712226334836,-6761.690664009657
1712226334876,-7143.478713791352
1712226334916,-6896.7786448711995
1712226334956,-7893.946973511018
1712226334996,-4706.471837582067
1712226335036,-1915.802507251734
1712226335076,-1687.0671078129672
1712226335117,105.39903113804758
1712226335156,486.6731897573918
1712226335196,-1065.5471227015369
1712226335237,-2036.4235020829365
1712226335277,-3117.095679302234
1712226335317,-8498.993120256579
1712226335357,-9166.635918223998
1712226335397,-13188.341497641057
1712226335437,-15021.120787680848
1712226335477,-18634.668678154703
1712226335518,-22091.09187661321
1712226335557,-34713.410886571975
1712226335598,-56408.07753296429
1712226335637,-79287.17816369538
1712226335678,-89329.46506505087
1712226335718,-91583.00812959624
1712226335758,-91308.10569253122
1712226335798,-90346.42888851883
1712226335838,-87993.68636276782
1712226335878,-87393.93534112023
1712226335919,-85441.28344686562
