Timestamp,Cleaned_PPG
1711590065251,0.0
1711590065294,0.0
1711590065331,0.0
1711590065372,0.0
1711590065411,0.0
1711590065452,0.0
1711590065492,0.0
1711590065532,0.0
1711590065573,0.0
1711590065612,0.0
1711590065652,0.0
1711590065692,0.0
1711590065732,0.0
1711590065773,0.0
1711590065813,0.0
1711590065852,0.0
1711590065893,0.0
1711590065933,0.0
1711590065974,0.0
1711590066013,0.0
1711590066053,0.0
1711590066093,0.0
1711590066133,0.0
1711590066174,0.0
1711590066213,0.0
1711590066253,0.0
1711590066293,0.0
1711590066333,0.0
1711590066374,0.0
1711590066414,0.0
1711590066454,0.0
1711590066494,0.0
1711590066534,2104926.0
1711590066575,1976862.2742547689
1711590066614,1855787.7123025458
1711590066654,1743812.0772420936
1711590066694,1639715.9475893169
1711590066734,1542130.470685272
1711590066776,1449280.7403163759
1711590066815,1360635.7133205545
1711590066855,1277203.645367858
1711590066895,1198959.9732669136
1711590066935,1122601.8439738627
1711590066976,1057160.4774425933
1711590067015,993387.2227471587
1711590067055,916957.9903496378
1711590067095,853023.2322572239
1711590067136,801004.2582222675
1711590067176,755052.5971753728
1711590067216,709050.1338999649
1711590067256,662468.2831541453
1711590067296,621567.4016687463
1711590067336,582323.4447895626
1711590067377,544440.7286755093
1711590067416,511068.50647465326
1711590067456,479817.44168290426
1711590067499,449446.442148159
1711590067536,420110.70186759415
1711590067577,394796.82945177075
1711590067617,370986.79633351415
1711590067657,347665.0697222883
1711590067697,324614.35659193154
1711590067737,296543.88732124795
1711590067778,276223.5604888215
1711590067817,250576.89377450943
1711590067857,242230.46993652498
1711590067897,228085.54563174676
1711590067938,207940.50341322809
1711590067979,187243.95846027764
1711590068018,167342.84573959233
1711590068058,155039.15959841036
1711590068098,152099.24460483552
1711590068138,146409.50969205378
1711590068179,140057.50245648203
1711590068218,138208.29773382237
1711590068258,126969.3612065455
1711590068299,116468.3610631423
1711590068339,138218.11186564062
1711590068380,142868.30450549768
1711590068419,132797.80637873267
1711590068459,115841.42663913174
1711590068499,103151.41754116118
1711590068539,101935.05408554501
1711590068580,94980.27901241952
1711590068620,90296.58083841181
1711590068660,85313.75860840175
1711590068700,78947.13293046318
1711590068740,74672.38632921502
1711590068781,70416.44588773604
1711590068820,67896.81373908208
1711590068860,62471.54329775274
1711590068900,59084.44554747245
1711590068941,55859.302330777515
1711590068981,53470.26117167645
1711590069021,51902.4011808096
1711590069061,50430.948653194355
1711590069101,50284.896373461466
1711590069141,41836.16388036404
1711590069182,36164.02227078471
1711590069221,36459.67787004216
1711590069261,35434.3014236968
1711590069302,37345.36095048487
1711590069342,36316.33609944675
1711590069383,30794.89298349945
1711590069422,28123.545726434793
1711590069462,27917.372646282427
1711590069502,27593.284889589995
1711590069542,22523.591732431203
1711590069583,26815.64971102029
1711590069622,23923.292588758282
1711590069663,19166.451747754123
1711590069706,17834.255343744066
1711590069743,19477.112932073884
1711590069784,21825.077206278685
1711590069823,18674.214255865198
1711590069863,17274.425145403482
1711590069903,15481.771767606027
1711590069943,16070.144882063847
1711590069984,14398.175446752459
1711590070024,12342.682090394665
1711590070064,11958.259009748232
1711590070104,10965.115608603694
1711590070144,9671.285961547866
1711590070185,8663.44638028834
1711590070224,8950.434605670162
1711590070264,8326.694011858199
1711590070304,8081.012606333941
1711590070344,7352.087243148126
1711590070385,8170.531861050054
1711590070424,8675.062156781554
1711590070464,8004.03877783427
1711590070504,6824.264672137797
1711590070545,8362.13789239712
1711590070585,7451.625405982602
1711590070625,6807.389238415286
1711590070665,5855.102262904402
1711590070705,6758.413593563251
1711590070745,3536.747811009176
1711590070786,1683.999102624599
1711590070825,2610.267052400857
1711590070865,-369.549111852888
1711590070905,138.73924112785608
1711590070945,423.65794588718563
1711590070987,-1053.87877717847
1711590071026,-1561.7224424052984
1711590071066,-1232.6727429945022
1711590071106,-870.6842223387212
1711590071146,-1168.7002166057937
1711590071187,-1094.271900758613
1711590071226,-1237.2676161564887
1711590071266,-662.2330724336207
1711590071306,-2010.2921544141136
1711590071347,-2520.4623217163607
1711590071387,-5064.099654101301
1711590071427,-7151.7348318416625
1711590071467,-3860.077026790008
1711590071507,-12238.372647900134
1711590071547,-13117.248901632149
1711590071588,-13843.76893148385
1711590071627,-18067.10270839138
1711590071667,-19569.288140857592
1711590071707,-20446.85428323038
1711590071747,-20040.72580824839
1711590071788,-18206.451808246784
1711590071827,-18729.171739391983
1711590071867,-18547.25578276813
1711590071908,-16766.31534830667
1711590071948,-17654.07851413125
1711590071989,-16855.12389959907
1711590072028,-18073.054165858775
1711590072068,-17316.149132193998
1711590072108,-18169.77675345028
1711590072148,-18070.195382807404
1711590072189,-18923.38880446274
1711590072228,-18376.93916231487
1711590072268,-13229.743551913649
1711590072309,-18393.149591663852
1711590072349,-15229.918321779463
1711590072390,-13492.418102862313
1711590072429,-14854.693874479737
1711590072469,-13398.208872832358
1711590072509,-12217.139885080978
1711590072549,-12510.604945151135
1711590072590,-9903.599944067188
1711590072629,-10140.227906015236
1711590072669,-13459.591085971333
1711590072709,-13897.372430420015
1711590072749,-21829.35275275912
1711590072791,-17598.39678743668
1711590072830,-17204.513888890855
1711590072870,-17252.246483028866
1711590072910,-15407.776263032109
1711590072950,-14652.063329855911
1711590072991,-13431.34725419432
1711590073030,-14764.820123862475
1711590073070,-15319.22247751709
1711590073110,-16020.962263710331
1711590073151,-16068.445278073661
1711590073192,-14845.189810846467
1711590073231,-13380.921305937227
1711590073271,-17336.442359979264
1711590073311,-20543.871991354972
1711590073351,-26058.785148889292
1711590073392,-30514.347445261665
1711590073431,-30174.344014405273
1711590073471,-30002.21827321779
1711590073512,-31095.943908654153
1711590073551,-33028.69514818513
1711590073593,-28572.753044193145
1711590073632,-31522.813698068494
1711590073672,-29833.054581699893
1711590073712,-27065.00851368974
1711590073752,-26624.519704332808
1711590073793,-25620.756845852826
1711590073832,-23091.5615200405
1711590073872,-22616.219255075557
1711590073912,-21887.02474041097
1711590073953,-21937.518638378242
1711590073994,-30051.40630972036
1711590074033,-33178.31124180113
1711590074073,-34783.75594672002
1711590074113,-36438.14330316777
1711590074153,-34801.16778578656
1711590074194,-31731.83130705892
1711590074233,-34017.815998079255
1711590074273,-33627.56414701138
1711590074313,-29521.354780810885
1711590074354,-30885.065778296907
1711590074395,-26154.37216301821
1711590074434,-21535.581689151237
1711590074474,-22239.530187841505
1711590074514,-19207.91319622239
1711590074554,-14972.141550111119
1711590074595,-16493.687160163186
1711590074634,-15096.47248444194
1711590074674,-18394.221638267394
1711590074715,-26033.492701584706
1711590074754,-26453.209496690426
1711590074796,-24701.395756805316
1711590074835,-27092.402447090717
1711590074875,-24143.103238445008
1711590074915,-21234.308727604803
1711590074955,-23045.620282529853
1711590074996,-20930.668388367165
1711590075035,-18155.92016004189
1711590075075,-17595.67265812354
1711590075115,-17055.31623900705
1711590075156,-14043.86928699864
1711590075197,-13511.05245861644
1711590075236,-11928.857375010382
1711590075276,-7961.302886781283
1711590075316,-8054.108128410764
1711590075356,-5842.378578825388
1711590075397,-8310.555853815284
1711590075436,-16859.721548649948
1711590075476,-19649.983951443806
1711590075517,-16207.904819063144
1711590075557,-16271.881859663874
1711590075598,-16732.60990503826
1711590075637,-11192.38881496829
1711590075677,-11686.697638003156
1711590075717,-12169.4961038467
1711590075757,-8440.830155934207
1711590075798,-6893.746090428438
1711590075837,-6739.862515111221
1711590075877,-2959.3659835094586
1711590075918,-1009.180660856422
1711590075958,-2793.963703803718
1711590075999,2017.0740015469491
1711590076038,2954.6205845214427
1711590076078,1426.0702680889517
1711590076118,5818.186857839115
1711590076158,1681.7163473239634
1711590076199,-3784.430310495198
1711590076238,-2486.6681846268475
1711590076278,-646.7124773878604
1711590076318,-2762.1087669334374
1711590076359,814.3983970212284
1711590076400,2543.2540786447935
1711590076439,948.331461371854
1711590076479,4251.3808896509
1711590076519,5107.53446815582
1711590076559,3746.701392134186
1711590076600,7174.597942264285
1711590076639,7875.901285936125
1711590076679,6758.120797228534
1711590076719,10462.091195159592
1711590076760,11435.804056628607
1711590076801,11138.73639465007
1711590076840,13136.233718606178
1711590076880,13208.14623978082
1711590076920,8579.451506193494
1711590076960,5764.051205252064
1711590077001,1881.298631486483
1711590077040,7814.989648414543
1711590077080,12101.382765280083
1711590077121,8262.785406435374
1711590077161,15312.41434509959
1711590077202,18236.789528252557
1711590077241,21955.476419517305
1711590077281,25520.85388668999
1711590077321,33115.8391880868
1711590077361,31043.971898503834
1711590077402,15419.243170186644
1711590077441,18517.55650690361
1711590077481,19492.56628657435
1711590077521,17636.209182752296
1711590077562,12615.396493965993
1711590077603,5648.253912744578
1711590077642,-2493.758801918011
1711590077682,-5294.667460189667
1711590077722,-4760.199209777638
1711590077762,-5517.769803463714
1711590077803,-5283.332107869443
1711590077843,-4777.205169936176
1711590077883,-6191.298766527325
1711590077923,-5842.040404023137
1711590077963,-4921.677101289155
1711590078004,-4167.078874057159
1711590078043,-2428.9647167567164
1711590078083,275.02630669320934
1711590078123,1189.7635416798294
1711590078163,2167.269761914853
1711590078205,3911.9676340972073
1711590078244,6802.585973673966
1711590078284,5648.394788633799
1711590078324,-7098.814926075283
1711590078364,-13126.18158506602
1711590078405,-7112.667564472649
1711590078444,-10343.870138381608
1711590078484,-9528.954156621592
1711590078524,-8869.340585188707
1711590078564,-11188.457914702129
1711590078605,-17006.51695916243
1711590078644,-12564.750771833817
1711590078684,1495.897741922643
1711590078724,233.6923539917916
1711590078764,2379.4483101391234
1711590078806,4246.813989847433
1711590078845,5500.904474673327
1711590078885,6629.0708350157365
1711590078925,7790.6209225952625
1711590078965,1419.974657125771
1711590079006,-6576.2247104095295
1711590079045,-11805.324157690397
1711590079085,-13371.944232841488
1711590079125,-13077.957199953264
1711590079165,-11939.48083393788
1711590079206,-10998.424270603573
1711590079245,-10228.924863156863
1711590079286,-10725.038794890279
1711590079326,-10610.639169090427
1711590079366,-9777.167411557399
1711590079407,-8049.727543326328
1711590079446,-6417.278725890443
1711590079486,-4006.947801708244
1711590079526,-2159.930260691326
1711590079566,-248.02647307608277
1711590079607,221.34589572483674
1711590079646,-7420.555759206181
1711590079686,-15364.664303293684
1711590079726,-20355.74610413378
1711590079767,-22178.73673173855
1711590079808,-22880.852256512037
1711590079847,-22967.360906851245
1711590079887,-22499.222795647103
1711590079927,-22398.429121760186
1711590079967,-22411.165273141116
1711590080008,-21446.57207330037
1711590080047,-20155.917260262184
1711590080087,-17820.675716576865
1711590080127,-14641.00453017978
1711590080167,-12118.415854956955
1711590080208,-9609.060445969459
1711590080248,-7097.64867765177
1711590080288,-6113.084266321734
1711590080328,-13644.303297799546
1711590080368,-23037.50667108083
1711590080409,-28378.313118053367
1711590080448,-30663.794880315196
1711590080488,-31723.710060333135
1711590080528,-31816.0263672485
1711590080568,-31106.495258092647
1711590080609,-30949.895454684272
1711590080649,-30575.666777441278
1711590080689,-29387.574705366744
1711590080729,-27022.271726775216
1711590080769,-24592.565523691243
1711590080810,-21225.510335676605
1711590080849,-17563.996913382784
1711590080889,-14670.127594459802
1711590080929,-11578.679692861158
1711590080969,-8842.187145485543
1711590081010,-10839.704599584918
1711590081050,-21267.20758467866
1711590081090,-29724.402884854935
1711590081130,-33394.64624585188
1711590081170,-34890.602588637965
1711590081211,-35622.687509273645
1711590081250,-34590.19081291091
1711590081290,-33923.84944070992
1711590081330,-33421.35599864088
1711590081370,-32612.216005402384
1711590081411,-30681.31983460812
1711590081451,-27960.9375352473
1711590081491,-24063.120047391392
1711590081531,-20821.59661620669
1711590081571,-17820.118462617043
1711590081612,-15446.000465658726
1711590081651,-13091.879481613869
1711590081691,-10705.151832798263
1711590081731,-8198.056741988752
1711590081771,-15372.510513810674
1711590081812,-27351.120512995403
1711590081852,-34166.261169659905
1711590081892,-37358.64110594243
1711590081932,-39500.68278246792
1711590081972,-40391.79039915046
1711590082013,-39439.692543068435
1711590082052,-38738.85068802815
1711590082092,-38181.659796392545
1711590082132,-37514.71348196338
1711590082172,-35010.19969830103
1711590082213,-32502.79089661641
1711590082252,-29483.28753212653
1711590082293,-26461.92187948688
1711590082333,-23578.35950915306
1711590082373,-20666.48415288329
1711590082414,-17430.10692164302
1711590082453,-14970.218097178033
1711590082493,-14691.869474435225
1711590082533,-24923.401032502297
1711590082573,-36030.4426180101
1711590082614,-41282.83768790774
1711590082654,-43780.82667569397
1711590082693,-45536.21406114311
1711590082734,-44920.46248924639
1711590082774,-44244.391675610095
1711590082814,-43698.5158509796
1711590082854,-42083.868663808564
1711590082894,-39752.3201750163
1711590082934,-36560.39809321985
1711590082974,-33343.013576756464
1711590083015,-29833.670254810946
1711590083054,-26388.651309520938
1711590083094,-22605.080439573387
1711590083135,-19239.163442189107
1711590083175,-16038.14538970543
1711590083215,-12552.265313646058
1711590083255,-12448.505098472815
1711590083295,-22942.828971516108
1711590083335,-31948.614649187308
1711590083375,-36569.57638837746
1711590083416,-38142.64805261651
1711590083455,-39271.447574126534
1711590083495,-38495.40374941402
1711590083535,-36549.01089224033
1711590083576,-35593.83896946325
1711590083616,-34194.00486562657
1711590083656,-31893.686571956147
1711590083696,-29193.935732570244
1711590083736,-25179.946627908386
1711590083776,-21287.14360918454
1711590083817,-17474.01096081501
1711590083856,-13532.923816012684
1711590083896,-9821.484340255149
1711590083936,-6628.105462173
1711590083977,-3565.772835477488
1711590084017,-596.3324594579171
1711590084057,-6980.654840266332
1711590084097,-18641.8038014872
1711590084137,-25421.482177527156
1711590084177,-28884.05021983385
1711590084218,-30443.132277970202
1711590084257,-30881.11762844678
1711590084297,-29545.945488435682
1711590084338,-28041.23512895219
1711590084377,-26536.141001004027
1711590084418,-24666.88348459266
1711590084458,-22212.677622855175
1711590084498,-19253.10171142686
1711590084538,-15903.905699838884
1711590084578,-12092.75023884233
1711590084619,-8149.379470322281
1711590084658,-4557.929248974659
1711590084698,-1346.0267231669277
1711590084739,2280.8528565613087
1711590084779,5786.512654877268
1711590084820,8630.467153888894
1711590084859,11696.824775460642
1711590084899,14482.309244747274
1711590084939,6996.350346217863
1711590084979,-3532.0024480922148
1711590085020,-9900.985981034813
1711590085060,-13270.364847578574
1711590085100,-15267.801407566294
1711590085140,-15774.702227184083
1711590085180,-15279.559991858201
1711590085221,-14403.582493639318
1711590085260,-13191.448002656223
1711590085300,-11139.950358750531
1711590085340,-8562.503504243447
1711590085381,-5596.955580842448
1711590085421,-2448.4678067455534
1711590085461,751.330193196889
1711590085501,3732.591991303023
1711590085541,6929.389036094071
1711590085581,10401.277731452836
1711590085622,13303.888284256449
1711590085661,16058.94907713402
1711590085701,18791.184645565925
1711590085742,21670.67327732034
1711590085782,24491.953919408377
1711590085823,27711.891365936957
1711590085862,30037.06394050666
1711590085902,23250.038680464495
1711590085942,11748.503085325006
1711590085982,3813.4727932466194
1711590086023,-1031.9181187220383
1711590086063,-3892.5500931828283
1711590086103,-6919.614601887297
1711590086143,-7826.714342310559
1711590086183,-11348.868016001536
1711590086224,-16345.179482185747
1711590086264,-32407.830076135695
1711590086304,-55462.05843944079
1711590086344,-66558.05449205847
1711590086384,-67975.55170814157
1711590086425,-60141.60505195893
1711590086464,-46874.61579434248
1711590086504,-27506.035081482027
1711590086544,-6246.075736147817
1711590086584,11813.920884638093
1711590086625,31407.72202072991
1711590086664,41412.06528079533
1711590086704,47733.09901599726
1711590086744,49217.43619433092
1711590086784,53711.90699773631
1711590086825,44578.30267273495
1711590086865,42978.08472590963
1711590086904,43899.54031365644
1711590086945,43812.442840898875
1711590086985,44220.7625713204
1711590087025,44494.456003767904
1711590087065,42635.98508119723
1711590087105,41866.4519877166
1711590087145,39370.69394549122
1711590087185,36859.32418982056
1711590087226,35630.581631866284
1711590087265,34538.251502224244
1711590087305,31294.188880454283
1711590087346,29326.811344592832
1711590087386,27978.353572534397
1711590087426,26896.24181271298
1711590087466,28210.087469704915
1711590087506,32781.95693111094
1711590087546,49745.491204339545
1711590087586,79011.87568214489
1711590087627,98906.68852081429
1711590087666,106964.98072155076
1711590087706,103516.14349433547
1711590087746,92632.2677850083
1711590087787,71772.71944636386
1711590087827,46086.83010724373
1711590087867,26558.48942643404
1711590087907,11693.375939755235
1711590087947,6839.276343507692
1711590087987,7776.289381690789
1711590088028,13126.5347632044
1711590088067,12808.198475471232
1711590088107,25274.570610942552
1711590088147,29934.753866856452
1711590088188,30071.77496410627
1711590088228,32099.86864504218
1711590088268,32216.331907493528
1711590088308,31482.332095028367
1711590088348,32821.860261037946
1711590088388,31996.226957795443
1711590088429,34554.48203255143
1711590088468,36326.300420058426
1711590088508,36788.832703088876
1711590088548,36078.79409658979
1711590088588,37576.4864193541
1711590088629,37864.79514125083
1711590088669,37965.03936673398
1711590088709,37369.27341585257
1711590088749,37827.33953788923
1711590088789,38537.35893373052
1711590088830,39014.553745217156
1711590088869,38303.36235660594
1711590088909,36474.66895622504
1711590088949,36278.8184694103
1711590088989,36313.93474813085
1711590089030,37224.21610143548
1711590089069,39234.11997786956
1711590089110,43660.3960301436
1711590089150,43640.85605981364
1711590089190,41591.87978092721
1711590089231,41684.85051827133
1711590089270,38322.008326765615
1711590089310,34032.496865438996
1711590089350,33512.87978456658
1711590089390,33261.33255485003
1711590089431,32965.48777153529
1711590089470,32189.479832772864
1711590089511,32290.88082184922
1711590089551,32961.95483629964
1711590089591,33626.8644149492
1711590089632,34862.16949159885
1711590089671,38122.842035321984
1711590089711,42052.813305913936
1711590089751,50264.8890592386
1711590089791,56849.50222916971
1711590089832,60393.78294258844
1711590089871,63928.08100960124
1711590089911,67242.99612788367
1711590089952,76765.86772698071
1711590089992,74438.81663801265
1711590090032,72866.20975285955
1711590090072,64065.63615645608
1711590090112,52972.702630774584
1711590090152,38360.15898958896
1711590090192,28461.525570187718
1711590090233,24943.09397875867
1711590090272,-14622.28619264951
1711590090312,-18484.291142284404
1711590090353,-199.35771188884974
1711590090393,-11519.087157150265
1711590090433,-14149.219480316155
1711590090473,-14938.248297907878
1711590090513,-17046.9188307398
1711590090553,-19144.585114774527
1711590090593,-20322.99836135516
1711590090634,-20941.89966318244
1711590090673,-21238.08477188181
1711590090713,-21102.195080681704
1711590090753,-19583.332163127605
1711590090794,-18298.00346457353
1711590090834,-16833.87985081086
1711590090874,-16590.693174040643
1711590090914,-24801.571693945676
1711590090954,-36620.22847040137
1711590090994,-48599.289320283104
1711590091035,-60442.85236292519
1711590091074,-69719.65061376663
1711590091114,-73914.8784127254
1711590091154,-77286.78370472789
1711590091195,-81676.35288342647
1711590091235,-91465.25257841335
1711590091275,-88404.02796414285
1711590091315,-85691.78895437112
1711590091355,-74905.84284440172
1711590091395,-61674.020715789404
1711590091436,-43777.005636448506
1711590091475,-29566.533283748897
1711590091515,-23185.168886285275
1711590091556,7974.137910582824
1711590091596,3581.8107765424065
1711590091636,-18600.1236730339
1711590091676,-11250.262891541468
1711590091716,-14712.532270725816
1711590091756,-15711.058322795201
1711590091796,-16212.973996237153
1711590091837,-17595.341909938026
1711590091876,-17874.569255253766
1711590091916,-18452.832470633555
1711590091956,-18092.5784012964
1711590091997,-16562.61526261689
1711590092038,-15201.272288984619
1711590092077,-13013.540731173474
1711590092117,-11253.9572573076
1711590092157,-16263.329322036123
1711590092197,-27197.66069398634
1711590092238,-35141.61651518475
1711590092278,-39163.67375960061
1711590092318,-41757.30571610178
1711590092358,-41786.73135548504
1711590092398,-40740.95583270816
1711590092439,-40014.98673536815
1711590092478,-39411.847501260694
1711590092518,-38226.30135185085
1711590092558,-36524.61466020974
1711590092598,-34171.184084703214
1711590092639,-31567.62417762354
1711590092679,-28176.330136083532
1711590092719,-24776.775862978073
1711590092759,-21554.078905124916
1711590092799,-24209.142880538013
1711590092840,-34556.77452080115
1711590092879,-42796.44614395313
1711590092919,-46777.123663459904
1711590092960,-48792.35271462239
1711590093000,-49803.920975957066
1711590093040,-48759.55714372755
1711590093080,-46621.728080726694
1711590093120,-44884.1117769992
1711590093160,-43546.04322287091
1711590093200,-41236.2940168723
1711590093241,-38060.833942736266
1711590093280,-34892.54742177203
1711590093321,-30743.056671686936
1711590093361,-26588.548614983913
1711590093401,-22640.267903096043
1711590093442,-18659.11961542722
1711590093481,-16585.349687420297
1711590093521,-26335.887713083997
1711590093561,-36640.28902128432
1711590093602,-41745.80507802125
1711590093642,-44947.01348158182
1711590093682,-46098.9628788156
1711590093722,-45719.072959289886
1711590093762,-44285.932948311325
1711590093802,-42657.06009296561
1711590093843,-40380.91743007209
1711590093883,-37868.77553310897
1711590093923,-34780.53418598976
1711590093963,-31047.81437218492
1711590094003,-26749.26981571596
1711590094044,-22683.082454695133
1711590094083,-18591.80484114308
1711590094123,-14770.800846115686
1711590094163,-11570.64327846351
1711590094204,-8120.295659780037
1711590094244,-5300.640102054924
1711590094284,-14629.72134267399
1711590094324,-25231.31428233022
1711590094364,-31124.195203101728
1711590094404,-33400.65327183483
1711590094445,-34412.96727843676
1711590094484,-33620.898142549675
1711590094524,-32051.084334365092
1711590094564,-30252.881026330404
1711590094604,-28935.356733345892
1711590094645,-27399.927911289735
1711590094685,-24632.193414133508
1711590094724,-20749.172896747943
1711590094765,-17626.670771735255
1711590094805,-13869.326056813356
1711590094845,-9912.263410680695
1711590094885,-5727.721421033377
1711590094925,-2153.1963067853358
1711590094965,1513.3636527708732
1711590095005,4540.323726051953
1711590095046,7937.787616127171
1711590095085,11635.652904828778
1711590095125,8490.599929571152
1711590095166,-2992.369336367119
1711590095206,-12006.133335840888
1711590095246,-15869.251972054597
1711590095286,-17116.935043407604
1711590095326,-17560.2154844529
1711590095366,-16740.034851946868
1711590095406,-15700.584410981275
1711590095447,-14242.431431304663
1711590095486,-12980.48979423591
1711590095526,-11506.19665598683
1711590095566,-8751.067093896912
1711590095606,-5573.620383653324
1711590095647,-2282.740049588494
1711590095687,824.6060437546112
1711590095727,4627.324614778627
1711590095767,7929.559334309539
1711590095807,11040.7132453355
1711590095848,14229.11535093491
1711590095887,17126.35928933136
1711590095927,20332.001423288602
1711590095967,21934.002850774676
1711590096007,13783.837507459335
1711590096048,3963.758340360364
1711590096087,-1611.6843191331718
1711590096128,-3629.1182903358713
1711590096168,-4209.52430182579
1711590096208,-3449.444821012439
1711590096249,-2326.279204199789
1711590096288,-1099.1765054296702
1711590096328,-146.88258762378246
1711590096368,375.3789211269468
1711590096408,1802.4673271058127
1711590096449,4144.300679301377
1711590096489,7070.651830224786
1711590096528,9906.239133140072
1711590096569,12599.977778023109
1711590096609,15608.044463132974
1711590096649,18699.46149265184
1711590096689,20911.086420726497
1711590096729,23398.284017609432
1711590096769,25834.707719272235
1711590096809,22645.52362038265
1711590096850,13613.011766916141
1711590096889,7720.18179930374
1711590096929,5195.590109294746
1711590096969,5073.674429654144
1711590097009,6124.037605976686
1711590097050,7867.064402095042
1711590097090,9190.67324180645
1711590097130,9758.336987904739
1711590097170,10682.352656182135
1711590097210,11564.526461389381
1711590097251,13654.9508530749
1711590097290,15919.012278009206
1711590097330,18623.878622371005
1711590097370,20917.6737974328
1711590097410,23837.92899641441
1711590097451,25914.244563545333
1711590097491,28050.29674566351
1711590097531,30079.88104211795
1711590097571,28382.993209532462
1711590097611,19943.543104927987
1711590097652,13542.617777877487
1711590097691,11346.997127869865
1711590097731,11101.41846144828
1711590097771,11980.059469337575
1711590097812,13818.869252782548
1711590097852,15083.293593171984
1711590097892,15927.397399411537
1711590097932,16053.441587083042
1711590097972,17152.953309924807
1711590098012,18379.9914121998
1711590098053,19938.153787356336
1711590098092,21712.872114048805
1711590098132,24288.73051012121
1711590098173,24983.145880680066
1711590098212,26782.75065545598
1711590098253,27972.159124191385
1711590098293,22559.066919718403
1711590098333,14843.682627293048
1711590098373,9865.797796451021
1711590098413,8019.6596308609005
1711590098454,8073.4808838428
1711590098493,9168.740912200417
1711590098533,10290.09448914486
1711590098573,10974.113086029887
1711590098614,11214.300647041295
1711590098654,11376.028557593701
1711590098694,11748.786267495947
1711590098734,13101.434188556857
1711590098774,14686.808306170627
1711590098814,16498.964505438693
1711590098855,18273.636180794332
1711590098894,20792.119232439203
1711590098934,22847.036311320728
1711590098975,18031.58523171139
1711590099015,9486.265998400282
1711590099055,3527.4192941682413
1711590099095,551.6303259264678
1711590099135,260.6665014871396
1711590099175,410.1488610606175
1711590099215,1419.598238787381
1711590099256,1913.8874665913172
1711590099295,2314.724102554377
1711590099336,2690.0180342381354
1711590099376,3291.8945989650674
1711590099416,4031.7840451900847
1711590099457,5884.77051264327
1711590099496,8190.217503468739
1711590099536,10556.198117410997
1711590099576,12786.296467159875
1711590099617,14626.16736309533
1711590099657,15063.244618024211
1711590099697,6509.660104350187
1711590099737,-2546.9578635115176
1711590099777,-7589.749345079064
1711590099817,-10074.753370963968
1711590099858,-11367.054044165649
1711590099897,-11257.81254495075
1711590099937,-10305.968410494272
1711590099978,-9771.534153519431
1711590100018,-9394.480366404168
1711590100058,-8731.09429563419
1711590100098,-7381.542651011143
1711590100138,-5981.326301471097
1711590100178,-3856.5940287369303
1711590100218,-1845.920437291963
1711590100259,526.9892887659371
1711590100298,3442.1144760143943
1711590100339,5551.367893630639
1711590100379,1726.5062133662868
1711590100419,-7989.437314641429
1711590100460,-15782.222637080587
1711590100499,-19306.130875844974
1711590100539,-20239.540542060975
1711590100579,-21013.068009279436
1711590100619,-20153.328550649807
1711590100660,-19489.52243889915
1711590100700,-18700.63700109464
1711590100740,-17585.276362685487
1711590100780,-16134.315240457654
1711590100820,-13996.917219514493
1711590100861,-11500.562116180081
1711590100900,-8484.231886141468
1711590100940,-5977.175539827673
1711590100980,-3589.8855584298726
1711590101020,-769.0859586081933
1711590101061,1847.8313437628094
1711590101101,-3822.3324435013346
1711590101141,-14142.409763561096
1711590101181,-20676.020100079477
1711590101221,-22863.56330992095
1711590101262,-24166.96171336714
1711590101301,-23862.66052152682
1711590101342,-22708.811302015092
1711590101382,-22141.674169837264
1711590101423,-21454.195872293785
1711590101463,-20632.131696403492
1711590101503,-18367.488047992345
1711590101543,-15687.278322746512
1711590101583,-13315.993955524638
1711590101623,-10589.14760631998
1711590101664,-8367.917856067885
1711590101703,-6621.8078853795305
1711590101743,-4603.455218018498
1711590101784,-2897.561148790177
1711590101824,-11541.222630733158
1711590101864,-22315.509044319857
1711590101904,-28685.438536388334
1711590101944,-31117.218186491635
1711590101984,-31984.608723760815
1711590102024,-31219.42944402201
1711590102065,-30527.679915234447
1711590102104,-30258.777109927265
1711590102145,-29575.3337793136
1711590102185,-28388.93922449951
1711590102225,-25138.38286529132
1711590102266,-22444.5628876877
1711590102305,-19092.220017667394
1711590102345,-16106.003591003828
1711590102385,-12955.249671026133
1711590102425,-9407.870144184679
1711590102466,-12500.943323197775
1711590102505,-24370.09331522719
1711590102545,-33025.832140970044
1711590102585,-37119.28515382088
1711590102626,-38826.953528645914
1711590102666,-39042.45945889177
1711590102706,-37762.480487078195
1711590102746,-36585.93881318625
1711590102786,-35653.62965507293
1711590102826,-34431.56532615144
1711590102867,-32526.275258844253
1711590102906,-29697.387480997015
1711590102946,-25726.57754075504
1711590102986,-21967.636242063018
1711590103026,-17788.975784765324
1711590103067,-14425.517739532515
1711590103107,-10850.365439420333
1711590103146,-7412.275554836029
1711590103187,-4012.3200252132956
1711590103227,-13035.153987352503
1711590103267,-24263.458168371115
1711590103307,-30237.176814282313
1711590103347,-32266.989730859175
1711590103387,-32847.37172127934
1711590103427,-32532.76934942929
1711590103468,-30963.470086544752
1711590103507,-29215.34498251183
1711590103548,-27511.293878948083
1711590103588,-25377.539877627045
1711590103628,-22864.537568816915
1711590103668,-19637.10903369519
1711590103708,-15891.302020390052
1711590103748,-11920.201149653643
1711590103788,-7825.972041337518
1711590103828,-4652.620877223322
1711590103869,-1558.4495968734846
1711590103908,1990.9752413842361
1711590103948,4536.767813235056
1711590103989,6968.602494693361
1711590104029,4307.725326941581
1711590104069,-7947.535687949741
1711590104109,-17478.64164285804
1711590104149,-22014.80395494937
1711590104189,-23665.535357231973
1711590104229,-25553.27277086675
1711590104270,-25681.01575375069
1711590104309,-26002.02199483593
1711590104349,-25775.391300864285
1711590104389,-25406.253918441944
1711590104430,-23802.81883330783
1711590104470,-22464.687764463946
1711590104510,-18807.632895692717
1711590104550,-15099.68070943281
1711590104590,-11569.21552485833
1711590104630,-7894.387793862261
1711590104671,-4435.531709459145
1711590104710,-893.0626804749481
1711590104750,2632.3004622512963
1711590104791,5779.931210282259
1711590104830,5290.565793927293
1711590104871,-5337.371167314472
1711590104911,-14256.09685017378
1711590104951,-18091.84871780174
1711590104991,-19054.57418301562
1711590105031,-18866.070918773767
1711590105072,-17106.364246873185
1711590105111,-14296.742869015783
1711590105151,-11839.318630573805
1711590105191,-10943.759360979777
1711590105231,-9508.980077187996
1711590105272,-7348.616230903193
1711590105312,-5023.284704056336
1711590105352,-2324.2669974705204
1711590105392,353.66287919227034
1711590105432,3652.286019655643
1711590105473,7072.511355335126
1711590105512,10760.621204429772
1711590105552,14674.243206257932
1711590105592,17660.566315109143
1711590105633,10833.975347656524
1711590105673,992.9905080378521
1711590105712,-4250.021144904429
1711590105753,-5454.149223144632
1711590105793,-5200.213401158806
1711590105833,-4384.988193036756
1711590105874,-2765.534789764788
1711590105913,-1865.670826768037
1711590105953,-1289.432210738305
1711590105993,-98.62375473696738
1711590106033,2215.2478953180835
1711590106074,4870.034882347565
1711590106114,8186.21855072747
1711590106154,11473.576461960562
1711590106194,14749.457770672161
1711590106234,17501.904314602725
1711590106275,20574.082484000362
1711590106314,23390.321031103842
1711590106354,23977.55434341263
1711590106394,14563.505258308724
1711590106434,4715.818718336988
1711590106475,-139.50344609399326
1711590106514,-1235.0455643022433
1711590106555,-1379.4080283241346
1711590106595,-535.3830951284617
1711590106635,1258.8041142949369
1711590106676,2474.769219274167
1711590106715,2949.8645867460873
1711590106755,4353.784570559394
1711590106795,6174.712463775184
1711590106835,8157.437739841174
1711590106876,10863.759413469117
1711590106915,13466.833920109319
1711590106955,16253.232727509923
1711590106995,18922.128751536366
1711590107036,21949.397670356324
1711590107076,24247.86040852964
1711590107116,25119.474469879642
1711590107156,15263.741513196612
1711590107196,5973.464663850609
1711590107236,1842.3848374763038
1711590107277,1047.5850352409761
1711590107316,851.402787951054
1711590107356,1978.9697282607667
1711590107396,3479.6460606025066
1711590107436,3880.173054115381
1711590107477,3550.2577276318334
1711590107517,5013.554812619463
1711590107557,6485.196025063749
1711590107597,8978.271979151294
1711590107637,11691.182545162505
1711590107678,14360.058008083375
1711590107717,17013.006072783377
1711590107757,19382.193560501095
1711590107797,21766.00275229616
1711590107837,22040.86225470435
1711590107878,12966.681214623852
1711590107918,4357.0915378488135
1711590107958,684.0620917771012
1711590107998,-88.30196934239939
1711590108038,63.09437784017064
1711590108079,1296.3229857832193
1711590108118,2692.44945960911
1711590108158,3520.8231962986756
1711590108198,3700.988715087995
1711590108238,4831.360916765407
1711590108279,6513.298055685358
1711590108319,8841.361675260589
1711590108359,11481.455886133946
1711590108399,13812.975772712613
1711590108439,17001.322136007017
1711590108480,19413.30985339661
1711590108519,22114.858178076567
1711590108559,22340.65080632642
1711590108599,12639.188796876464
1711590108640,3357.796559803188
1711590108680,-1151.7811143412255
1711590108720,-2301.595931955613
1711590108760,-2287.1729587779846
1711590108800,-1722.8834332288243
1711590108840,-833.7214316378813
1711590108881,-338.8704242496751
1711590108920,396.71535015432164
1711590108960,1296.850897363387
1711590109001,2878.1182500016876
1711590109041,5363.727231119527
1711590109082,7875.69809376332
1711590109121,10445.849758969154
1711590109161,13219.025678688427
1711590109201,15406.47118418105
1711590109241,17581.55816136487
1711590109282,19548.69630741095
1711590109321,11664.571395089384
1711590109362,1611.1169570933562
1711590109402,-3739.449284629198
1711590109442,-6235.283041704446
1711590109483,-6450.683744769543
1711590109522,-5516.256179304328
1711590109562,-4196.730996964499
1711590109603,-3536.942545169266
1711590109642,-3196.3214239627123
1711590109683,-2304.038984311279
1711590109723,-929.8903322853148
1711590109763,1217.6327517563477
1711590109803,3538.6509781423956
1711590109843,6059.677961610723
1711590109884,9086.58105645515
1711590109923,11580.482622105163
1711590109963,13964.266718361992
1711590110003,16216.724783765618
1711590110044,15832.704718997236
1711590110085,5265.254551232327
1711590110124,-3737.131349273026
1711590110164,-8270.60248952033
1711590110204,-9358.107866382692
1711590110244,-9517.070968188811
1711590110285,-8249.251369104953
1711590110324,-6941.433125584619
1711590110364,-6394.781685525086
1711590110405,-5947.7046008785255
1711590110445,-5208.319166459609
1711590110486,-3017.4745898051187
1711590110525,-426.2869770042598
1711590110565,2479.0259297012817
1711590110605,5783.047820389271
1711590110645,8448.805576705374
1711590110686,10418.487921121297
1711590110725,12919.753031580243
1711590110765,13371.636369726388
1711590110805,3302.4259515209123
1711590110845,-5383.743020874914
1711590110886,-8733.917197927367
1711590110926,-9486.886243756628
1711590110966,-9280.732063958189
1711590111006,-8430.956744378433
1711590111046,-7246.8685948518105
1711590111086,-6771.987118377583
1711590111126,-5812.147386759054
1711590111166,-4303.28571539605
1711590111206,-2433.144001829205
1711590111246,56.23026514612138
1711590111287,2436.8503155321814
1711590111326,5216.0235746491235
1711590111366,8251.212469897931
1711590111407,10972.04515381041
1711590111447,13623.353630819824
1711590111487,5622.984932711348
1711590111527,-4321.0743460445665
1711590111567,-10388.775598216802
1711590111607,-12471.831462495495
1711590111647,-12795.3643286773
1711590111688,-12065.900286856107
1711590111727,-9980.920775937848
1711590111767,-9071.56455502892
1711590111807,-8456.846041872399
1711590111847,-7168.215493604308
1711590111888,-5800.602834836347
1711590111927,-3615.547582549043
1711590111968,-181.7381738210097
1711590112008,2760.9247512978036
1711590112048,5923.4973535777535
1711590112089,9026.482629600912
1711590112128,11737.46406091284
1711590112168,10656.678202638635
1711590112208,-534.7651431388222
1711590112248,-9835.682110662572
1711590112289,-14179.053339547478
1711590112328,-15583.47667823825
1711590112368,-15731.36318140477
1711590112408,-15303.02537695528
1711590112449,-14377.244898931589
1711590112489,-13022.529306830373
1711590112529,-12131.729522376787
1711590112569,-10210.043624175247
1711590112609,-7797.653654500376
1711590112649,-5063.3288347562775
1711590112690,-1362.1695744614117
1711590112729,1576.6526734605432
1711590112769,4753.876447511604
1711590112809,7359.513300558552
1711590112849,10433.903307926608
1711590112890,13358.266127492068
1711590112929,11009.035468607675
1711590112970,-751.2094863357488
1711590113010,-9442.945864330512
1711590113050,-13451.555623143446
1711590113091,-15010.288882240187
1711590113130,-15990.081381587544
1711590113170,-14878.707336769672
1711590113210,-13672.621046416229
1711590113250,-12892.335717317648
1711590113291,-11740.916674009524
1711590113330,-10558.523717079544
1711590113369,-7873.9066429177765
1711590113409,-5147.78823247226
1711590113450,-1988.4384088274091
1711590113490,1713.287895112764
1711590113530,5072.958856304875
1711590113570,8305.699036918115
1711590113610,11628.85581676499
1711590113650,13979.518180488376
1711590113691,16563.644147979096
1711590113730,19250.649697087472
1711590113770,14566.296915689716
1711590113810,2962.96316706948
1711590113850,-4531.647209397983
1711590113891,-8031.380722200032
1711590113931,-8631.775042104535
1711590113971,-9477.047638843069
1711590114011,-8397.409146515187
1711590114051,-7847.571486715693
1711590114091,-7622.805949867936
1711590114131,-6765.205198530108
1711590114171,-5226.998486363562
1711590114211,-3341.8961135474965
1711590114251,-876.5944877110887
1711590114292,1432.5481308344752
1711590114331,4409.944884632714
1711590114371,7746.95465710992
1711590114412,10085.954742073081
1711590114452,12945.646567773074
1711590114492,15735.547905423678
1711590114532,12028.226603956427
1711590114572,1240.961415097583
1711590114612,-5988.735633681994
1711590114652,-9156.625942266779
1711590114693,-9638.861952679697
1711590114732,-10049.863403236493
1711590114772,-9303.982845974853
1711590114812,-8207.58184545394
1711590114852,-7452.516782713123
1711590114893,-6974.604827488307
1711590114933,-5471.222677264828
1711590114973,-3068.2892452306114
1711590115013,-427.40306221484207
1711590115053,2989.8555027346592
1711590115094,5410.954597558361
1711590115133,8255.396815285785
1711590115173,11432.883081425214
1711590115213,14283.784477774985
1711590115253,17060.194539973512
1711590115294,19738.017931561917
1711590115333,14815.281882486539
1711590115374,3912.7587721408345
1711590115414,-3158.8284882607404
1711590115454,-6525.141287568957
1711590115495,-7377.117420351366
1711590115534,-7663.843721742975
1711590115574,-6731.6481034155
1711590115614,-6089.468714072835
1711590115654,-5309.634856818477
1711590115695,-4052.1826859805733
1711590115734,-2436.0337794404477
1711590115774,-65.15320411790162
1711590115814,2408.956838760758
1711590115855,4955.503201980377
1711590115895,7521.024909401778
1711590115935,10841.12580882851
1711590115975,13713.657120962394
1711590116015,16566.275841586757
1711590116055,19110.66842562752
1711590116096,16354.3498503929
1711590116135,6214.33160550613
1711590116175,-1938.3350673667155
1711590116215,-4595.924782278482
1711590116255,-5607.102308478439
1711590116296,-5366.523919819156
1711590116336,-4127.117900568061
1711590116376,-2441.9475269299
1711590116416,-1779.6737315773498
1711590116456,-1019.4443682390265
1711590116497,323.1184555301443
1711590116536,2174.712025683373
1711590116576,4439.849610657897
1711590116616,7290.516893947963
1711590116656,10243.211358770262
1711590116697,12683.739084410481
1711590116736,15327.603107766248
1711590116777,18309.84623008594
1711590116817,20815.490205257665
1711590116857,17152.56598761282
1711590116898,7363.057472297689
1711590116937,825.2594240545295
1711590116977,-1092.423114567995
1711590117017,-1606.1737156375311
1711590117057,-1539.4517147610895
1711590117098,105.97814190201461
1711590117138,1022.480169255985
1711590117178,1726.4016862609424
1711590117218,2650.290891090408
1711590117258,4179.36484205327
1711590117299,6083.2633794164285
1711590117338,8461.409947167384
1711590117378,11285.817626948236
1711590117418,13915.695797673427
1711590117458,16773.246070348658
1711590117499,18938.07625398296
1711590117538,21700.76787476102
1711590117578,19565.96748557221
1711590117619,9879.26747841714
1711590117659,2814.186456899857
1711590117699,173.64122245879844
1711590117739,-429.2268087652046
1711590117779,187.22633086843416
1711590117819,1401.1897542143706
1711590117859,2543.492842251202
1711590117900,2795.7346520302817
1711590117939,3282.6158741184045
1711590117980,4537.313962047454
1711590118020,6428.632169121876
1711590118060,8315.813643235713
1711590118101,10638.62504907744
1711590118140,12870.193989356048
1711590118180,15109.597972349264
1711590118220,17699.792336904444
1711590118260,18637.610591169912
1711590118301,10491.44287797343
1711590118341,2126.506113067968
1711590118381,-2495.2868849691004
1711590118421,-3422.27034353395
1711590118461,-3099.1862874717917
1711590118502,-2390.5565020698123
1711590118541,-1358.5687706447206
1711590118581,-751.3597939093597
1711590118622,-586.1484190444462
1711590118662,7.181725291535258
1711590118702,1475.622783378698
1711590118742,3651.912346640136
1711590118782,6366.327269478235
1711590118822,8808.521252372302
1711590118862,11575.781675389037
1711590118903,14529.798757108161
1711590118942,16938.64943580283
1711590118982,14945.757995508146
1711590119022,5098.246787500568
1711590119063,-2546.6190067534335
1711590119103,-6047.055085023632
1711590119143,-6744.872190580936
1711590119183,-6535.668288182467
1711590119223,-5652.689869257156
1711590119263,-4525.539492798969
1711590119304,-3918.9139548526146
1711590119343,-3313.1119059447665
1711590119383,-22.51010414585471
1711590119423,2240.962238957174
1711590119464,4897.170531948097
1711590119504,7462.218421522295
1711590119544,10339.016079726862
1711590119584,12776.85016896762
1711590119624,15609.075280775316
1711590119664,13748.785843416583
1711590119705,3341.9838884794153
1711590119744,-4602.252411364578
1711590119784,-8055.316724192118
1711590119824,-9087.09855926456
1711590119864,-9296.031741896877
1711590119905,-8325.365371487336
1711590119945,-7000.486582458718
1711590119985,-6322.947081880644
1711590120025,-5745.606045113411
1711590120065,-4507.673195433803
1711590120106,-2691.603309864411
1711590120145,-245.89757122076117
1711590120185,1866.1660662440117
1711590120225,5154.511399803683
1711590120265,7789.852006461471
1711590120306,10446.01240832312
1711590120345,12932.885934099555
1711590120385,15165.56096428493
1711590120428,11879.673389964504
1711590120466,954.5928311692551
1711590120507,-6474.830437202705
1711590120546,-9256.04581421474
1711590120586,-9854.87666333071
1711590120626,-9894.383102307096
1711590120666,-9328.321534409653
1711590120707,-8502.621259111445
1711590120746,-7957.860472533852
1711590120787,-7306.379735037219
1711590120827,-5974.225526972907
1711590120867,-3612.4633413623087
1711590120908,-1149.630111361621
1711590120947,1568.8173953914084
1711590120987,3949.413496978348
1711590121027,6722.716882491717
1711590121067,8948.181971603539
1711590121108,11710.135000898503
1711590121147,11722.53721032152
1711590121187,2527.7050428399816
1711590121228,-6009.267546060029
1711590121268,-9469.813027033815
1711590121308,-10094.966455176007
1711590121348,-9670.9787662304
1711590121388,-8493.847329544136
1711590121428,-7301.346345652826
1711590121468,-6544.559154700255
1711590121509,-6480.832777721342
1711590121548,-5129.823276023846
1711590121588,-3496.2977160040755
1711590121629,-1213.8732544889208
1711590121669,1646.2592193400487
1711590121709,4299.506618730025
1711590121749,7659.088996695355
1711590121789,10244.932638046332
1711590121829,12611.64714346733
1711590121869,13031.712408893974
1711590121910,3358.4304658628535
1711590121949,-5645.050848283339
1711590121990,-10405.541789800394
1711590122030,-11029.188320155721
1711590122070,-10301.25901455991
1711590122110,-8961.621044258587
1711590122150,-7469.6854840144515
1711590122190,-7315.746312876698
1711590122230,-7227.254867168609
1711590122270,-6492.108415690716
1711590122311,-4716.226107606664
1711590122350,-2396.072946787812
1711590122390,509.4398175687529
1711590122430,3739.6979609350674
1711590122470,6753.369942991994
1711590122511,9492.460152000189
1711590122550,11533.789437524974
1711590122591,11111.986425255891
1711590122633,370.3051921997685
1711590122671,-8200.674420909025
1711590122712,-12250.092004805338
1711590122751,-13374.600011468166
1711590122791,-13455.804446093738
1711590122831,-13220.09818828851
1711590122871,-12370.150684108492
1711590122912,-11869.309366680216
1711590122952,-10950.45114581054
1711590122992,-9272.256504550576
1711590123032,-7261.226866487879
1711590123072,-4498.4202575392555
1711590123113,-959.7616217811592
1711590123152,1699.248793372186
1711590123192,4287.665277201217
1711590123232,7430.963133240817
1711590123272,10856.375992062502
1711590123313,11780.686798261944
1711590123352,3001.4262573332526
1711590123393,-5491.062721894123
1711590123433,-9748.895890439628
1711590123473,-11024.656654973514
1711590123514,-10916.597379611572
1711590123553,-9520.936928042443
1711590123593,-8160.746334719006
1711590123633,-7351.791318868753
1711590123673,-6689.597174544353
1711590123714,-4965.156644597882
1711590123754,-3273.223888498731
1711590123794,1810.2881549890153
1711590123834,9448.922109276522
1711590123874,7597.3582561218645
1711590123915,13403.667106797919
1711590123954,15388.583819277119
1711590123994,20628.548427876784
1711590124034,21328.673881955212
1711590124074,15875.65833305684
1711590124115,14195.09311012039
1711590124155,15040.455446498469
1711590124194,15749.32558405539
1711590124235,14871.523425779771
1711590124275,13508.498302110005
1711590124316,11397.105231787544
1711590124355,9677.463749717688
1711590124395,7932.872022809926
1711590124435,8366.688389981398
1711590124475,9644.568396556657
1711590124516,11343.849379029358
1711590124555,12929.470008238684
1711590124595,13922.13537701685
1711590124636,15001.268497369252
1711590124676,16926.69147365261
1711590124716,18483.359114321414
1711590124756,15025.890136833768
1711590124796,4482.621711119544
1711590124839,-3260.4180194207
1711590124876,-5986.739512234461
1711590124917,-6926.118312106002
1711590124956,-7223.485360883875
1711590124997,-6943.213122860296
1711590125037,-6260.701221834868
1711590125077,-6356.402437598677
1711590125118,-6932.974933898775
1711590125157,-748.0539994742721
1711590125197,-730.6571790713351
1711590125237,4307.968927313574
1711590125277,5817.450992988655
1711590125318,8474.46039040247
1711590125358,11241.896507576574
1711590125398,13672.13521543867
1711590125439,16715.08836542582
1711590125479,16118.870220991084
1711590125519,6693.934323447524
1711590125559,-909.4302881017793
1711590125599,-3322.953202058561
1711590125639,-4466.358949101996
1711590125679,-4000.8309626439586
1711590125720,-3249.666160725523
1711590125759,-2834.86893092189
1711590125799,-3055.783671973739
1711590125840,-2651.5468210782856
1711590125880,-1476.7536395045463
1711590125920,101.749855134869
1711590125960,2057.642149494961
1711590126000,4248.381231992273
1711590126040,6620.762145912042
1711590126080,9005.124329817249
1711590126121,11225.800618194044
1711590126160,13054.85914289346
1711590126201,15001.052216072567
1711590126241,13071.131330232369
1711590126281,4199.994698188733
1711590126322,-1574.6460798922926
1711590126361,-3432.360301078763
1711590126401,-3483.9954829793423
1711590126441,-2939.080966645619
1711590126481,-1906.5986711387523
1711590126522,-1437.8528192020021
1711590126562,-1149.245342223905
1711590126602,-630.9735444406979
1711590126642,436.1420414284803
1711590126682,2156.5622582631186
1711590126723,3976.296170383459
1711590126762,6241.537211691728
1711590126802,8841.100898599485
1711590126842,11289.318505453411
1711590126882,13099.711823801976
1711590126923,15540.34759540786
1711590126962,17284.084172510076
1711590127002,11577.696862503886
1711590127043,3759.5850749325473
1711590127083,-232.17301023378968
1711590127123,-897.3510640072636
1711590127163,-104.67114260420203
1711590127203,1761.9362234221771
1711590127243,2911.375828880351
1711590127283,3674.7931189434603
1711590127324,4389.3475475138985
1711590127363,5189.729302268941
1711590127404,6735.997555045877
1711590127444,8591.619718516245
1711590127484,10742.34399557067
1711590127525,12814.475854290882
1711590127564,15116.344304184895
1711590127604,17006.148961585946
1711590127644,18896.571888713166
1711590127684,20435.03557245899
1711590127725,15934.592415105086
1711590127765,8424.744739061221
1711590127804,4881.165790618397
1711590127845,4361.513557110913
1711590127885,5480.35858473531
1711590127925,6774.418024196057
1711590127965,7878.237438897137
1711590128005,8787.10142637603
1711590128045,8969.312599662691
1711590128085,9230.27049258654
1711590128126,9996.617267159512
1711590128165,11422.756041215034
1711590128205,13191.03533070907
1711590128245,15233.096220755717
1711590128285,16878.927098335233
1711590128326,18753.420885049738
1711590128366,20106.027283443836
1711590128406,15001.341580091976
1711590128446,7159.281753439456
1711590128486,2921.6857230653986
1711590128526,2508.246364169754
1711590128566,3860.895835074829
1711590128606,5479.3886382742785
1711590128646,7618.72222303343
1711590128686,7981.534948017914
1711590128727,8509.624866055325
1711590128766,8904.654439340578
1711590128806,9163.754874500912
1711590128847,9886.636253569974
1711590128886,11988.963815571275
1711590128927,13941.234497333411
1711590128967,15679.903856331483
1711590129007,16855.8978679087
1711590129047,13153.42851471086
1711590129087,4240.54467035085
1711590129128,-1334.1031672409736
1711590129167,-3372.600827214308
1711590129207,-3681.8254806851037
1711590129247,-3463.2459140950814
1711590129287,-2843.0260142558254
1711590129328,-2535.7897038040683
1711590129367,-3161.438319237437
1711590129408,-2989.528450093232
1711590129448,-2511.463318455033
1711590129488,-1534.260306074284
1711590129529,-817.8690485600382
1711590129568,1204.7226808813866
1711590129608,3770.6310497215018
1711590129648,5447.3606196555775
1711590129689,1271.8267403598875
1711590129729,-10056.997001078445
1711590129768,-17093.059490834363
1711590129809,-22840.748547980562
1711590129849,-29117.868527293438
1711590129889,-43292.57042637933
1711590129930,-53532.065735377604
1711590129969,-49533.73038190836
1711590130009,-42245.65872716019
1711590130049,-30939.51404842944
1711590130089,-16262.60401131725
1711590130130,-2722.30271058809
1711590130170,10412.807966942899
1711590130209,21061.67283549835
1711590130250,26321.598786076298
1711590130290,25665.504168238025
1711590130330,28532.80410246225
1711590130370,29938.434366975212
1711590130410,27333.92389921355
1711590130450,23923.456715499517
1711590130490,19278.21532227099
1711590130531,20529.919199447148
1711590130570,21010.838671911974
1711590130610,19433.921160741476
1711590130650,21652.217666093726
1711590130690,23686.17521664733
1711590130731,37258.37133917678
1711590130771,50358.50469836779
1711590130811,62056.31547609251
1711590130851,71135.84099020856
1711590130891,79332.15311560151
1711590130932,70975.938917486
1711590130971,21479.938136592275
1711590131011,-41.257368977647275
1711590131051,1402.903838224709
1711590131091,-5839.153396777576
1711590131132,-12651.355135187507
1711590131172,1164.908413207624
1711590131212,11034.02312190365
1711590131252,5451.428500697715
1711590131292,1868.6854966981336
1711590131333,-5208.36469426332
1711590131372,-13453.159219012596
1711590131412,-18390.331432331586
1711590131452,-23089.982874342706
1711590131493,-24985.01118740975
1711590131533,-21478.36401701253
1711590131573,-14545.591600157786
1711590131613,-13981.618289921433
1711590131653,-16434.525268141646
1711590131693,-24137.67265902832
1711590131734,-31740.196969005512
1711590131773,-37327.834399880376
1711590131813,-42490.27007476683
1711590131854,-40125.95754106925
1711590131893,-36120.77226468176
1711590131934,-37786.141547997715
1711590131974,-41308.27618163917
1711590132014,-55347.02573560714
1711590132054,-63737.805485432735
1711590132094,-67156.88695898536
1711590132135,-70524.8137596827
1711590132174,-68771.68812843459
1711590132214,-51357.64401883748
1711590132254,2962.2555329962634
1711590132294,25472.855336290784
1711590132335,17277.223110086983
1711590132375,9313.627740419004
1711590132415,2841.481469044462
1711590132455,-6467.671886075754
1711590132495,-4537.261065926403
1711590132536,408.0032656057738
1711590132575,497.7599737874698
1711590132615,1010.6794581490103
1711590132655,2727.0475219967775
1711590132696,3747.983197493013
1711590132736,1869.7528183115646
1711590132776,1272.455027685035
1711590132816,3097.817652660189
1711590132856,7798.755685177632
1711590132896,12119.355525741586
1711590132937,14451.349644566188
1711590132976,14442.572818032699
1711590133016,7701.787003392121
1711590133057,-266.0034388396889
1711590133097,-5781.059053148609
1711590133137,-9496.250374675263
1711590133177,-10482.523924218025
1711590133217,-9749.403451126069
1711590133257,-6349.370376629289
1711590133297,-1864.2939209381584
1711590133338,-977.9923431337811
1711590133377,730.9674344491214
1711590133418,3834.8652175371535
1711590133458,2198.0712445098907
1711590133498,1190.65908588795
1711590133539,3743.3434695831966
1711590133578,7094.08657454839
1711590133618,11040.619535807054
1711590133658,10530.196036562556
1711590133698,-458.4811110307928
1711590133739,-8740.88989245426
1711590133778,-14932.799437363166
1711590133818,-16182.876536777243
1711590133858,-14385.87701864168
1711590133899,-10645.924532691017
1711590133939,-9781.817352276295
1711590133979,-9795.31452639727
1711590134019,-5704.688980352599
1711590134059,-2386.9648061003536
1711590134099,362.0220363144763
1711590134140,2166.0624276655726
1711590134180,5702.773293355014
1711590134220,8212.180967892986
1711590134260,11645.3227633473
1711590134300,14032.902618818916
1711590134341,6860.9860084895045
1711590134380,-2650.8937951144762
1711590134420,-7697.10067064967
1711590134460,-8266.372268962208
1711590134501,-6433.583219673019
1711590134541,-4701.025988604641
1711590134581,-2619.0920562585816
1711590134621,-1151.4849822255783
1711590134661,311.9761241269298
1711590134701,1868.4394719963893
1711590134742,3969.892396064941
1711590134781,6586.379299464403
1711590134821,9944.48678813316
1711590134861,12723.217886895873
1711590134902,15872.320703828242
1711590134942,18780.731599277817
1711590134982,15274.609664687421
1711590135022,4764.933921806747
1711590135062,-1264.80336280982
1711590135102,-2486.317960602697
1711590135143,-1693.4525110006798
1711590135182,263.91147849638946
1711590135223,3052.1524510355666
1711590135263,5493.56129109906
1711590135303,6377.023153834976
1711590135344,7681.835267950315
1711590135383,9415.00707654166
1711590135423,11995.08494862658
1711590135463,13989.628491364652
1711590135503,16998.58666160656
1711590135544,19705.556372820865
1711590135584,22492.39628826361
1711590135624,23772.66381646227
1711590135664,14504.737210173858
1711590135704,5000.338760648621
1711590135745,1443.6650950680487
1711590135784,2182.1711564576253
1711590135824,4530.620413682889
1711590135864,5976.33903572429
1711590135904,7083.709169602953
1711590135945,7585.808161821216
1711590135984,8793.600095334463
1711590136024,11123.839621263556
1711590136065,13494.306533110095
1711590136105,16067.373647499364
1711590136145,18346.822775989538
1711590136185,20642.34926908044
1711590136225,22674.222105191555
1711590136265,23795.054579640273
1711590136305,14206.429895658977
1711590136346,4808.0695263915695
1711590136385,1361.279778456781
1711590136425,1880.4757166975178
1711590136465,2721.8726154295728
1711590136505,4381.3144508572295
1711590136546,5513.18160710088
1711590136585,6538.635777265998
1711590136625,6825.791305543855
1711590136666,7589.229378925636
1711590136706,9491.85089231329
1711590136746,11628.705234091496
1711590136786,13618.479349156376
1711590136826,16050.49232461513
1711590136866,18290.17050135252
1711590136906,20123.686778387986
1711590136947,19706.939018088393
1711590136986,9566.141721216496
1711590137027,1170.1057930830866
1711590137067,-1751.9449735805392
1711590137107,-1298.1580074068625
1711590137147,123.87463785288855
1711590137187,2223.6780819601845
1711590137227,3369.6298943958245
1711590137267,3623.3889723704197
1711590137307,3909.115825066576
1711590137348,5006.617113305721
1711590137387,6649.006559578702
1711590137427,9365.37604463147
1711590137467,11417.413606933085
1711590137507,13930.383544989862
1711590137548,15620.944837424904
1711590137588,18016.551948289387
1711590137628,14190.798332032748
1711590137668,2931.085655669449
1711590137708,-4587.714212633669
1711590137749,-6724.832034311257
1711590137788,-6497.205879154615
1711590137828,-5680.7264674967155
1711590137868,-4636.956461312482
1711590137908,-3474.19403972663
1711590137949,-2219.888435381232
1711590137989,-1918.5045158504508
1711590138028,-900.3475289549679
1711590138069,1386.027349169366
1711590138109,4311.040831203572
1711590138149,5540.387189173605
1711590138189,8497.207272375235
1711590138229,11551.450405849377
1711590138269,13479.53592858836
1711590138309,5338.079213907011
1711590138350,-4688.330291861668
1711590138389,-9404.07894863491
1711590138429,-10417.35100665968
1711590138470,-11128.59385045711
1711590138509,-9921.967251481488
1711590138550,-6845.317786791362
1711590138590,-7080.027797701769
1711590138630,-8714.47078354843
1711590138670,-6475.348591430578
1711590138710,-4666.353170692455
1711590138751,-3140.3619433310814
1711590138790,-520.679132913705
1711590138830,2155.5540212700143
1711590138870,4335.920601710677
1711590138910,6644.642096213065
1711590138951,2814.209333649371
1711590138991,-7813.986982903909
1711590139031,-13710.6408744636
1711590139071,-16152.596491029952
1711590139111,-15321.145755848847
1711590139152,-12033.820253914455
1711590139191,-12366.073611405445
1711590139231,-12656.97651032568
1711590139271,-11191.067908952944
1711590139311,-9181.160256501753
1711590139352,-9741.063136489596
1711590139392,-8938.022246440407
1711590139432,-4064.854065080639
1711590139472,-4125.750556962099
1711590139512,-3760.7056811312214
1711590139553,-1444.0322451288812
1711590139592,-696.5829399737995
1711590139632,-13101.225566989277
1711590139672,-26442.129965653177
1711590139712,-33769.847892486956
1711590139753,-35734.255454498576
1711590139793,-35577.88378970465
1711590139833,-35591.31256230641
1711590139873,-37399.78000470018
1711590139913,-32957.81621986022
1711590139954,-35402.430109527195
1711590139993,-38055.4394008317
1711590140033,-32347.700728296302
1711590140073,-27712.9925593629
1711590140113,-25479.156615909887
1711590140154,-21734.485284586437
1711590140194,-16121.214661841746
1711590140234,-12626.99298628862
1711590140274,-9924.761156842113
1711590140314,-19266.5331728803
1711590140355,-25625.15260023251
1711590140394,-26365.48004269204
1711590140434,-30737.10243124771
1711590140474,-25875.85369503172
1711590140515,-23512.3597261759
1711590140555,-26898.52022657008
1711590140595,-25994.28854578454
1711590140635,-17982.068807920907
1711590140675,-14666.901259309147
1711590140715,-16307.417732037138
1711590140756,-10709.378922969103
1711590140795,-6251.578523428645
1711590140836,-4693.207249296363
1711590140876,-2249.7953785974532
1711590140916,504.33791110664606
1711590140957,-2460.4036370511167
1711590140996,-13752.601223199163
1711590141036,-20811.63529206114
1711590141076,-21385.051762607414
1711590141117,-21749.259526605485
1711590141157,-20842.22916848259
1711590141197,-21243.880260926206
1711590141237,-15794.421439888421
1711590141277,-10681.944026528392
1711590141317,-8984.189862742554
1711590141358,-6022.536457717884
1711590141397,-3849.550310796825
1711590141438,-105.19167501153424
1711590141478,-8817.833128717262
1711590141518,-9141.032322635176
1711590141559,-15492.407125207596
1711590141598,-21730.34101420408
1711590141638,-25718.976347047836
1711590141678,-17082.168334406568
1711590141719,13622.58882824704
1711590141759,24078.204977384303
1711590141799,29396.42952733906
1711590141839,23471.702117846347
1711590141879,29754.55738881044
1711590141919,35694.14942158549
1711590141960,38776.6736518275
1711590141999,26550.52968421299
1711590142040,12900.5539463819
1711590142080,16635.94462349033
1711590142120,21227.419987439876
1711590142161,19112.216332200915
1711590142200,19192.518428102834
1711590142240,17027.645925102755
1711590142280,8193.869054229697
1711590142321,-1266.627395756077
1711590142361,-9059.747703096364
1711590142401,-12084.118055550614
1711590142441,-7149.729224146344
1711590142481,-3254.912200168008
1711590142521,-3515.13319986593
1711590142562,-2963.38367871847
1711590142601,-5674.658653524937
1711590142641,-5979.674841198139
1711590142682,-1695.7278493684717
1711590142722,-143.1406671074219
1711590142762,12763.755814900622
1711590142802,19336.406860039802
1711590142842,30079.438546239864
1711590142882,36341.833336018026
1711590142922,29062.862144023413
1711590142963,9595.037447778974
1711590143003,-20482.741682864726
1711590143043,-27175.55295279622
1711590143083,-26468.67504210444
1711590143123,-10857.21853461396
1711590143164,-11702.616125184344
1711590143203,-20095.178400255507
1711590143243,-24065.639559115283
1711590143283,-6900.648347126553
1711590143323,9860.028391839005
1711590143364,10244.035821071826
1711590143404,9526.94753319677
1711590143444,13226.661343057407
1711590143484,14630.248690918088
1711590143524,16222.77974174521
1711590143565,15582.618896001484
1711590143604,8345.773253826424
1711590143644,3054.5580457444303
1711590143684,812.0320515495259
1711590143724,-3079.8518693388905
1711590143765,-6739.871667940868
1711590143804,-6184.467594831018
1711590143845,-4302.129409267101
1711590143885,-1222.804933872074
1711590143925,955.7179856451694
1711590143965,3277.1887515983544
1711590144005,5513.017899137456
1711590144045,7782.831448947545
1711590144085,10087.254557101056
1711590144125,12752.598287392175
1711590144166,14909.798818109557
1711590144205,16953.991718433565
1711590144245,18681.86629976984
1711590144285,21456.57465662062
1711590144326,16310.793910751585
1711590144366,8710.92232207884
1711590144406,4368.257186253788
1711590144446,3340.8691132632084
1711590144486,2871.9523830818944
1711590144526,2926.6141539569944
1711590144567,3958.637453266885
1711590144606,4364.312893047463
1711590144646,5280.141635923181
1711590144686,6399.38840895216
1711590144727,7805.05745688919
1711590144767,10467.348859919934
1711590144807,12246.067118058214
1711590144847,14572.27468010597
1711590144887,16464.879602820147
1711590144927,18749.249883587938
1711590144968,20454.569572440116
1711590145007,22116.629882364767
1711590145047,24407.800148858223
1711590145087,24084.148567060474
1711590145127,15153.704420480179
1711590145168,8619.089638716541
1711590145208,6324.206150907325
1711590145248,5989.568417614326
1711590145288,6106.611572336173
1711590145328,6802.675434990786
1711590145369,7404.662883819314
1711590145408,7798.898670450784
1711590145448,7821.491915073013
1711590145488,8740.982719783904
1711590145528,10676.108198829694
1711590145569,12090.122431861237
1711590145608,13894.523828365374
1711590145648,15233.282152115833
1711590145689,17710.645139765926
1711590145729,18787.838078317698
1711590145769,20436.05171912769
1711590145809,21983.350121863186
1711590145849,23593.957826908212
1711590145889,16909.931497424375
1711590145929,8181.057974100113
1711590145970,3972.515735371271
1711590146009,3027.3280580304563
1711590146050,2600.539035057649
1711590146090,2910.8577895089984
1711590146130,3666.482705392409
1711590146171,4045.6677141764667
1711590146210,4149.853722941596
1711590146250,5198.637043555733
1711590146290,7009.737788908184
1711590146330,8446.104866390582
1711590146371,10325.66809454211
1711590146410,13090.740470812889
1711590146450,15316.927128925687
1711590146490,17517.196318317438
1711590146531,19034.142073355382
1711590146571,21029.30132519873
1711590146611,23009.288744439138
1711590146651,17061.72352214204
1711590146691,8906.11802589288
1711590146731,5279.7447612339165
1711590146772,4934.419399627717
1711590146811,5440.239975551143
1711590146851,6217.617929306347
1711590146891,7216.372009698302
1711590146931,8088.084200226935
1711590146972,7917.670926937135
1711590147012,8663.63081450155
1711590147052,9810.146699896082
1711590147092,11888.196543973172
1711590147132,13514.940893748077
1711590147173,15533.82207177137
1711590147212,17367.996483591618
1711590147252,18666.092364629498
1711590147292,19486.408315795008
1711590147333,21656.310903121717
1711590147373,23989.235579447355
1711590147413,19419.350136123598
1711590147453,11947.465479130391
1711590147493,7238.588047396159
1711590147533,6384.492914676433
1711590147574,7327.136854110053
1711590147613,8380.470344989328
1711590147653,9939.335977896582
1711590147693,10846.28002238553
1711590147734,11375.457232316025
1711590147774,11389.965289214859
1711590147814,12864.563899544068
1711590147854,14214.03097598115
1711590147894,15595.33044441929
1711590147934,17821.73507253779
1711590147975,19315.672561154934
1711590148014,20228.763282832224
1711590148054,21335.96713495115
1711590148095,23172.595388941
1711590148135,21415.83857779391
1711590148175,13220.837758576032
1711590148215,7495.605158454273
1711590148255,6391.416377728339
1711590148295,7280.649435768835
1711590148335,8754.151709917933
1711590148376,10015.63353955769
1711590148415,10544.746137303766
1711590148456,10641.112626152579
1711590148496,10867.092317722505
1711590148536,11863.61258871993
1711590148577,13957.176668778993
1711590148616,15955.279523068108
1711590148656,17086.838973007863
1711590148696,18375.25230571814
1711590148736,18484.96982840472
1711590148777,20039.41007079836
1711590148817,21327.810810273746
1711590148857,14834.022867606021
1711590148897,6776.193430365063
1711590148937,2802.33191228169
1711590148978,2211.128627141472
1711590149017,2512.8218462984078
1711590149057,4429.26759908488
1711590149097,5400.421542160213
1711590149137,5934.336461189669
1711590149178,5510.344318576157
1711590149218,5645.0387253756635
1711590149258,7082.126998537686
1711590149298,9523.957664180547
1711590149338,11778.843595393002
1711590149379,13225.999466283247
1711590149418,14141.679224210791
1711590149457,15959.553799157962
1711590149497,17370.497387613403
1711590149538,10505.967471378855
1711590149578,2112.874456186313
1711590149618,-2067.187874635216
1711590149658,-2701.7120852763765
1711590149698,-1949.7341921580955
1711590149738,-695.4994324357249
1711590149779,4.411588492570445
1711590149818,339.48110380396247
1711590149859,410.8797449427657
1711590149899,1442.5188380749896
1711590149939,2957.0219604391605
1711590149980,4950.76646213606
1711590150019,7718.624999759719
1711590150059,9658.927240142133
1711590150099,10640.624481677543
1711590150139,12680.55801899638
1711590150180,14339.21450883802
1711590150219,9742.345525560668
1711590150260,285.04894076054916
1711590150300,-5903.303238118766
1711590150340,-7628.41663853731
1711590150381,-7054.465974566992
1711590150420,-5912.97057696199
1711590150460,-4441.031440997962
1711590150501,-4138.093792008003
1711590150540,-3902.523852115497
1711590150581,-3711.992692043539
1711590150621,-2890.0590208228678
1711590150661,-1003.4100382809993
1711590150701,1702.2814558693208
1711590150741,3683.724741747137
1711590150782,5249.822526886826
1711590150821,7331.937287173001
1711590150861,9355.833690332249
1711590150901,7382.724184646271
1711590150942,-2153.8472561063245
1711590150982,-9460.526101659518
1711590151022,-11448.203517665155
1711590151062,-10822.006676507182
1711590151102,-9445.152824233286
1711590151142,-8274.729528793367
1711590151183,-7834.505900358316
1711590151222,-8086.232162731467
1711590151262,-6357.11908530863
1711590151302,-4709.2590553078335
1711590151343,-2987.5127364280634
1711590151383,113.98884446779266
1711590151423,2082.3981646546163
1711590151463,4203.191983074648
1711590151503,5835.787980292458
1711590151543,7824.709065992851
1711590151584,3041.5505139431916
1711590151623,-7222.40883918223
1711590151663,-12358.746119315038
1711590151703,-13141.290661898442
1711590151743,-12337.74389100424
1711590151784,-10580.197414523456
1711590151824,-9744.671612415928
1711590151864,-9576.544798490126
1711590151904,-8644.908221937716
1711590151944,-7997.24545716797
1711590151984,-6709.111605297308
1711590152024,-4683.603980341461
1711590152064,-1978.7686382748652
1711590152104,442.4359082705341
1711590152144,1751.3831561061088
1711590152185,3593.879517926136
1711590152224,5476.995508671738
1711590152264,6191.424862268381
1711590152305,-3224.3427090896294
1711590152344,-11502.154633368133
1711590152385,-14262.916239811573
1711590152425,-13687.613824881613
1711590152465,-12588.66694490984
1711590152505,-10820.459172833245
1711590152545,-10698.853676412255
1711590152586,-10570.254193140194
1711590152625,-10049.217028359883
1711590152665,-8919.304155195132
1711590152705,-6508.422932371497
1711590152745,-4220.2977694149595
1711590152786,-1388.6682521128096
1711590152826,157.64927750453353
1711590152866,1927.1686556204222
1711590152906,3668.0809789365157
1711590152946,5553.739848738536
1711590152987,-1948.0851946701296
1711590153026,-10789.328977426514
1711590153066,-14313.54058011854
1711590153106,-13696.766151024029
1711590153147,-12439.187687656377
1711590153187,-11094.130400706083
1711590153227,-10331.609631925821
1711590153267,-10062.078842604998
1711590153307,-9403.18199052196
1711590153347,-9024.372599672759
1711590153388,-7225.9925008774735
1711590153427,-4733.124183707638
1711590153467,-2047.539118997287
1711590153507,414.29855757183395
1711590153547,2279.3522815525066
1711590153588,4287.936615132727
1711590153628,6262.534990399843
1711590153668,1342.678046148736
1711590153708,-8918.754929118324
1711590153748,-14080.433003924554
1711590153789,-15348.97219000198
1711590153828,-14677.538353441749
1711590153868,-13616.954583254177
1711590153908,-12539.946509793634
1711590153948,-12380.789035402006
1711590153989,-12918.657783339499
1711590154028,-12081.196458686143
1711590154069,-10521.80775025161
1711590154109,-8187.2781757765915
1711590154149,-5327.874970886856
1711590154190,-2210.747818891192
1711590154229,-261.228131206939
1711590154269,1473.95388696203
1711590154309,3837.8581904792227
1711590154349,-700.3269988386892
1711590154390,-11848.16158527974
1711590154429,-16942.748024406843
1711590154470,-18313.56814659713
1711590154510,-18165.00865253783
1711590154550,-17366.76309249131
1711590154591,-17230.03412385704
1711590154630,-16732.243519953918
1711590154670,-15894.120380960638
1711590154710,-14514.842735760147
1711590154750,-13223.535408337833
1711590154791,-10997.497924873605
1711590154830,-8471.082798367366
1711590154870,-6256.041026783176
1711590154910,-3964.1292319144122
1711590154951,-1692.4851986542344
1711590154991,717.5723995503504
1711590155031,649.932764235884
1711590155071,-9355.618768570712
1711590155111,-17229.722354087513
1711590155151,-19250.085747654084
1711590155192,-19492.50460209488
1711590155231,-19195.354270399548
1711590155271,-17770.01736113336
1711590155312,-17323.984154476784
1711590155352,-17164.89710785891
1711590155392,-16126.318849814124
1711590155432,-14575.788610378746
1711590155472,-12844.021091403207
1711590155512,-10385.698660816532
1711590155552,-7008.587084484054
1711590155593,-4686.8191300842445
1711590155632,-2432.5007220045663
1711590155672,-356.69537591165863
1711590155712,1868.3874735666905
1711590155753,146.24143303418532
1711590155793,-9434.219128768425
1711590155833,-15667.159530317876
1711590155873,-16614.065677068662
1711590155913,-16077.929294089321
1711590155953,-15441.561764851213
1711590155994,-14844.192705726251
1711590156033,-14751.641258842312
1711590156073,-14043.37859567115
1711590156114,-12673.001174116042
1711590156154,-10371.073685337324
1711590156194,-8007.487316165119
1711590156234,-5201.212837050203
1711590156274,-2543.5479285740294
1711590156314,-368.0337207093835
1711590156354,2464.815353401471
1711590156395,4860.6953831184655
1711590156434,7300.448229356436
1711590156475,7665.973684816156
1711590156515,-1960.8400000578258
1711590156555,-9757.482924314681
1711590156596,-11782.708435181761
1711590156635,-11684.51040567737
1711590156675,-10709.459745007567
1711590156715,-9922.644988948945
1711590156755,-9346.38513129414
1711590156796,-9335.758398025297
1711590156835,-8501.139358186163
1711590156876,-7223.312161440728
1711590156916,-5050.841513665859
1711590156956,-2072.4390955767594
1711590156997,353.2601836340036
1711590157036,2096.587908241665
1711590157076,4433.292787960265
1711590157116,5873.521118476288
1711590157156,8342.970232896507
1711590157197,7115.623294632183
1711590157237,-3087.973339878954
1711590157277,-9913.486560937716
1711590157317,-10817.582240896765
1711590157357,-11344.54251806764
1711590157398,-10709.033265534323
1711590157437,-9490.418079923373
1711590157477,-9227.451257949695
1711590157517,-9978.156994110905
1711590157558,-9173.148837181507
1711590157598,-7396.644745055353
1711590157638,-5856.597580508562
1711590157678,-3618.2499838620424
1711590157718,-1404.426750809187
1711590157758,494.40019987965934
1711590157799,3164.404479902005
1711590157838,4837.724722173996
1711590157878,7047.37149786856
1711590157919,8297.673245314043
1711590157959,-1950.9519191118889
1711590157999,-10946.751252632122
1711590158039,-14995.749565186445
1711590158079,-16478.645514976233
1711590158119,-17493.840714275604
1711590158159,-16854.105431115255
1711590158200,-16593.889653065708
1711590158239,-16891.879736923147
1711590158280,-16488.811531650834
1711590158320,-14647.339591873344
1711590158360,-12526.866268781945
1711590158401,-9709.59977338463
1711590158440,-7637.070895435289
1711590158480,-4844.598765757168
1711590158520,-1493.6489922502078
1711590158560,1425.733904987108
1711590158601,3225.460422022268
1711590158641,6802.304660985712
1711590158681,4973.411531771999
1711590158721,-3376.3891001385637
1711590158761,-8576.057476335904
1711590158802,-8538.73451478267
1711590158841,-7540.73644730309
1711590158881,-6270.8654423041735
1711590158922,-4243.97659185715
1711590158962,-2519.0725435256027
1711590159002,-1981.527608526405
1711590159042,44.390971523476765
1711590159082,1830.0513073499314
1711590159122,4789.903068570886
1711590159162,3227.9139428809285
1711590159203,5328.007470536744
1711590159242,7994.07055402454
1711590159282,9815.718397075776
1711590159322,12167.461561219767
1711590159362,13824.78538349783
1711590159403,16265.774786291644
1711590159443,10974.835180647671
1711590159483,2152.366725374013
1711590159523,-2391.2179246007
1711590159563,-3226.9043496565428
1711590159604,-2916.4719682019204
1711590159643,-1959.8036825731397
1711590159683,-874.2305980678648
1711590159723,-153.7354746190831
1711590159763,384.2415814809501
1711590159804,1414.1570469785947
1711590159843,2983.1696430835873
1711590159884,5558.4184096935205
1711590159924,7769.737837311346
1711590159964,9690.425368623342
1711590160005,11701.34137307806
1711590160044,13798.615841060178
1711590160084,15908.913255278952
1711590160124,18660.15244578151
1711590160164,15555.046562427655
1711590160205,7231.750773599604
1711590160245,1623.6387919248082
1711590160284,1079.2379735857248
1711590160325,1782.9115179944783
1711590160365,3319.1118542084005
1711590160405,4489.943332341965
1711590160445,8709.819351398386
1711590160485,8452.157494541258
1711590160525,9077.76929242583
1711590160565,10292.484670079546
1711590160606,11091.08568054298
1711590160645,13457.892923417734
1711590160685,15450.058329151478
1711590160725,17604.126884544734
1711590160765,19284.343713300303
1711590160806,20990.870831128675
1711590160846,22513.803925201297
1711590160886,15286.179064393975
1711590160926,7181.571205636719
1711590160966,3919.9478439190425
1711590161006,3923.110741285607
1711590161046,4281.289197760634
1711590161086,5853.863048491068
1711590161126,6641.751736235805
1711590161166,6996.5945680902805
1711590161207,7049.5464899735525
1711590161246,7828.314102910692
1711590161286,9111.200332671637
1711590161327,11134.257951577194
1711590161366,13373.1542122846
1711590161407,14983.078384521417
1711590161447,17198.15832792595
1711590161487,18646.96995219891
1711590161527,21299.362635733094
1711590161567,19446.08237365028
1711590161608,9830.6015580073
1711590161647,2862.0620995238423
1711590161687,1185.457515287213
1711590161727,1623.0088918206748
1711590161767,2242.8202054922003
1711590161808,3564.5684542392846
1711590161847,3660.761331253918
1711590161887,4062.335705931997
1711590161928,3945.867914102273
1711590161968,4429.086622969247
1711590162008,6132.446204463253
1711590162048,8103.981675429735
1711590162088,9067.301758741494
1711590162128,10111.977352444548
1711590162168,12291.547984941397
1711590162209,13749.960585453548
1711590162248,15206.009904603474
1711590162288,11356.295851075556
1711590162328,730.3345739156939
1711590162368,-6544.156815471128
1711590162409,-8264.847940648673
1711590162448,-7599.909791189246
1711590162489,-7406.863096614135
1711590162529,-6899.943513657665
1711590162569,-6364.756176287308
1711590162610,-6887.097192130983
1711590162649,-6813.832906470867
1711590162689,-6086.542672419455
1711590162729,-4831.584910378093
1711590162769,-2936.982198577374
1711590162810,-1425.8377004310023
1711590162849,505.525156149175
1711590162890,2511.6936458693817
1711590162929,4716.885120043531
1711590162970,5905.470714036841
1711590163010,-1850.4809757149778
1711590163050,-9463.858028662158
1711590163090,-12906.620050377911
1711590163130,-12572.058327777311
1711590163170,-11451.87962444895
1711590163211,-9001.665052103577
1711590163250,-7328.7205760448705
1711590163290,-7075.107031425927
1711590163330,-7253.765691298991
1711590163371,-5472.146097786492
1711590163411,-3621.169035625644
1711590163451,-1456.0603350521997
1711590163491,1426.0568286224734
1711590163531,2704.7493910510093
1711590163571,5121.14131472772
1711590163612,7436.469621591037
1711590163651,4812.474097977392
1711590163691,-4684.478465903085
1711590163732,-10294.824970175512
1711590163772,-11887.815701010637
1711590163812,-11379.274529889226
1711590163852,-9675.090563636506
1711590163892,-7836.940942444373
1711590163932,-8083.238303588005
1711590163972,-8796.048233384732
1711590164013,-8236.832195995376
1711590164052,-6834.648368397728
1711590164092,-5111.786383284954
1711590164132,-2336.6720506106503
1711590164173,531.1416904190555
1711590164213,2569.2042412040755
1711590164253,4957.16877608886
1711590164293,1708.0895233843476
1711590164333,-7397.563338779379
1711590164373,-12649.862114704913
1711590164414,-11923.449046427151
1711590164453,-10101.376114203595
1711590164493,-8599.56349294819
1711590164533,-6809.613080836134
1711590164574,-5103.573678487912
1711590164614,-4856.2097154723015
1711590164654,-4251.905691001564
1711590164694,6.838134471327066
1711590164734,927.9646716387942
1711590164774,3426.64446147508
1711590164815,6949.083126537036
1711590164854,8521.625386189204
1711590164894,11145.032145957695
1711590164934,8860.967902710196
1711590164974,-531.9171467868146
1711590165015,-7197.110982636921
1711590165055,-8136.953859478934
1711590165095,-7325.82310518343
1711590165135,-6215.3067566063255
1711590165175,-4916.627900263295
1711590165216,-4306.553580999607
1711590165255,-3160.5237669912167
1711590165295,-1952.9474956048653
1711590165335,-302.90190340043046
1711590165375,1929.6186999424826
1711590165416,4386.402059485437
1711590165456,6472.49082902493
1711590165496,9113.899627268314
1711590165536,10564.287800688297
1711590165576,13255.070846628863
1711590165617,9632.946566237835
1711590165656,-463.1519645950757
1711590165696,-7037.924104022561
1711590165736,-7857.201806613011
1711590165776,-7041.741857973626
1711590165817,-5973.293142104521
1711590165857,-6007.437878433149
1711590165897,-4666.851773752365
1711590165937,-4428.614431099966
1711590165977,-5968.32271660422
1711590166018,-3028.4372851355
1711590166057,-911.711431035772
1711590166097,400.3893119955901
1711590166138,3219.6475351881236
1711590166177,5156.81195561355
1711590166218,7696.51838230039
1711590166258,9982.169634779915
1711590166298,11242.645498828962
1711590166338,12954.839360577986
1711590166378,7720.070972645422
1711590166419,-1218.9062247818802
1711590166458,-6618.699470228516
1711590166499,-8575.631268545287
1711590166539,-10425.489275929518
1711590166579,-11937.296611912549
1711590166620,-11186.522133290768
1711590166659,-8540.890423269477
1711590166699,-6745.548740814906
1711590166739,-6019.426473728148
1711590166779,-6029.178632045165
1711590166820,-7802.393999962136
1711590166860,-6491.328613613965
1711590166900,-4126.508137815632
1711590166940,-1413.6235991057474
1711590166980,875.6412381329574
1711590167021,2402.095361283049
1711590167060,2438.6797536103986
1711590167100,4847.250408421736
1711590167140,8669.794380017789
1711590167180,-73.55084099317901
1711590167221,-8075.896632372169
1711590167261,-9076.605408928823
1711590167301,-8171.171736621298
1711590167341,-6481.24119676929
1711590167381,-5249.4401360314805
1711590167422,-3889.0499299596995
1711590167461,-3321.7765434631146
1711590167501,-3082.632125755539
1711590167541,-3318.6490215261
1711590167582,1482.4969087373465
1711590167622,3751.0315191512927
1711590167662,5930.379098406993
1711590167702,8417.505354725523
1711590167742,10652.677300242707
1711590167782,13246.552522319602
1711590167823,16694.88059528824
1711590167862,16636.073056023568
1711590167902,12068.558211175026
1711590167942,6272.663508770056
1711590167982,3415.8416438801214
1711590168023,4036.1493081101216
1711590168063,5764.009555201512
1711590168103,9847.394153322559
1711590168143,10964.569858063944
1711590168183,10253.453046431998
1711590168224,10540.40595392487
1711590168263,11001.77716031135
1711590168303,12065.298014492262
1711590168343,15589.99278350803
1711590168383,16974.353142076172
1711590168424,15792.09599511372
1711590168463,19695.836227027234
1711590168503,22923.91962785786
1711590168544,23124.48635022994
1711590168584,19523.911870482378
1711590168624,16574.874583175173
1711590168664,17159.668628894724
1711590168704,18515.371810505632
1711590168744,19572.72615743475
1711590168784,20555.12372072367
1711590168825,22455.007418069756
1711590168864,22009.631492916495
1711590168904,22349.706335738534
1711590168944,22381.6435549804
1711590168984,22074.9083532542
1711590169025,23146.008023486473
1711590169065,24617.336733091157
1711590169105,24986.038694540504
1711590169145,24281.481811509235
1711590169185,24829.33793779346
1711590169226,26166.465140517335
1711590169265,24408.375703149242
1711590169305,20960.634421686875
1711590169345,19664.88875750196
1711590169385,20073.674960071687
1711590169426,20221.062038734555
1711590169465,21368.440026698634
1711590169506,22065.83347773226
1711590169546,22193.10239231051
1711590169586,22319.31543462444
1711590169627,22329.726423054934
1711590169666,22336.017296859296
1711590169706,22503.723687846214
1711590169746,23135.788368150825
1711590169786,24569.66971660033
1711590169827,25032.06773630483
1711590169867,24826.772953846725
1711590169907,25852.882938002236
1711590169947,24034.43595818663
1711590169987,19927.777556301095
1711590170028,17877.589442812838
1711590170067,18060.277458409546
1711590170107,18614.975935618393
1711590170147,18837.554635314737
1711590170187,19305.12313828664
1711590170228,19794.84438521671
1711590170267,20407.396211666754
1711590170308,20687.5404488754
1711590170348,21781.914369766833
1711590170388,22335.326138191624
1711590170429,23337.34420491988
1711590170468,23756.339822374284
1711590170508,24286.74789715046
1711590170548,24825.14945524186
1711590170588,25449.847642212175
1711590170629,24168.63862099778
1711590170668,20179.63629374327
1711590170709,18096.61125228461
1711590170749,18337.899592602625
1711590170789,18134.87050296506
1711590170830,17884.86748433998
1711590170869,18333.497499217046
1711590170909,18072.57362942677
1711590170949,18189.305338986916
1711590170989,18606.456172731705
1711590171030,19268.55665996927
1711590171069,20122.275244423887
1711590171109,20272.443077423377
1711590171149,21625.23301783111
1711590171190,21684.960363551043
1711590171230,21586.511856467463
1711590171270,21836.750082515646
1711590171310,21682.831759422552
1711590171350,17481.86168785114
1711590171390,14690.68625471997
1711590171431,13853.76115549216
1711590171470,13945.849587685196
1711590171510,13957.826135348994
1711590171550,14426.144289280288
1711590171590,13862.95272380556
1711590171631,13516.388697846327
1711590171671,13417.526889657602
1711590171711,13524.079366967082
1711590171751,14233.552499646787
1711590171791,14667.594122365117
1711590171832,15159.723993868101
1711590171871,15496.148284619208
1711590171911,15300.011869752314
1711590171951,15795.693820048124
1711590171991,16442.48763925233
1711590172032,14721.641222860431
1711590172072,9425.752520303708
1711590172112,6231.385466901818
1711590172152,5575.374133903068
1711590172192,5950.552651036531
1711590172233,5470.1657228791155
1711590172272,5367.428807998309
1711590172312,4466.340184192173
1711590172352,3704.9923035607208
1711590172392,3664.6081719337963
1711590172433,3690.526928687468
1711590172473,4908.279787702486
1711590172513,5719.321121459827
1711590172553,6710.331716914661
1711590172593,7214.96065481659
1711590172634,7985.185872793198
1711590172673,7651.481610320974
1711590172713,8880.313018004177
1711590172753,6946.826706419233
1711590172793,75.63006364600733
1711590172834,-4761.491857401561
1711590172873,-6101.598302404862
1711590172913,-6630.056049403967
1711590172953,-6067.532966002589
1711590172994,-5867.51949091861
1711590173034,-6124.332014832646
1711590173074,-6268.072911075316
1711590173114,-6227.994391788263
1711590173154,-5258.149334840244
1711590173194,-3958.51659981627
1711590173235,-2846.318940141704
1711590173274,-1855.9825749800075
1711590173314,-1021.2208944598678
1711590173355,304.26916137943044
1711590173395,1197.7642363472842
1711590173435,1703.740746513242
1711590173475,2331.2144603789784
1711590173515,-4017.7683771492448
1711590173555,-11276.187537587713
1711590173595,-14481.155651470413
1711590173636,-14738.037180157844
1711590173675,-14613.893828574102
1711590173716,-13987.619876338169
1711590173756,-13851.09612984443
1711590173796,-14327.078957508784
1711590173837,-14645.461580644129
1711590173876,-13711.449278827058
1711590173916,-12711.679647733225
1711590173956,-10430.216363323387
1711590173996,-9469.523942539934
1711590174037,-8591.970297750784
1711590174077,-7480.003315722104
1711590174117,-6272.286818615161
1711590174157,-5299.292658160673
1711590174197,-3803.7019804464653
1711590174238,-4658.810320942197
1711590174277,-14124.096186398994
1711590174317,-23205.468166392995
1711590174357,-26429.29124939884
1711590174397,-26980.935696612112
1711590174438,-27984.57594138733
1711590174478,-28562.23272638442
1711590174518,-29397.69043556694
1711590174558,-30270.71976027917
1711590174598,-31172.317037265515
1711590174639,-30516.90918502095
1711590174678,-29035.905919252895
1711590174718,-26883.60554495128
1711590174758,-25040.66792823281
1711590174799,-23133.900840283837
1711590174839,-21022.96606623428
1711590174879,-18715.931684130803
1711590174919,-16584.469014676288
1711590174959,-13992.668910030043
1711590174999,-17919.19391321577
1711590175040,-27816.959874105873
1711590175079,-34179.93836120004
1711590175119,-35021.4340313694
1711590175160,-35047.326298873406
1711590175200,-33992.64736874541
1711590175241,-31629.045637792908
1711590175280,-31289.83803891507
1711590175320,-31469.65064129862
1711590175360,-29635.245496113785
1711590175401,-27220.178066245047
1711590175441,-23851.26085905824
1711590175481,-20888.559775665868
1711590175521,-18993.305028780364
1711590175561,-16243.843716437463
1711590175601,-13469.907178916736
1711590175642,-11744.565753650852
1711590175681,-9533.006511532934
1711590175721,-10690.927425878821
1711590175761,-19561.276501831133
1711590175801,-25873.955306089483
1711590175842,-26975.651836398523
1711590175882,-25683.609952932224
1711590175922,-24344.395992473466
1711590175962,-22803.400515739806
1711590176002,-22373.905585574452
1711590176043,-21873.778727298602
1711590176082,-20820.843356591184
1711590176122,-20292.803081557155
1711590176162,-17938.157305493252
1711590176202,-15569.761080415454
1711590176243,-14133.499907972757
1711590176282,-12069.510691915406
1711590176322,-10060.338271972258
1711590176363,-8402.20797104435
1711590176403,-6735.64198750956
1711590176443,-11847.863719675457
1711590176483,-21287.17892266088
1711590176523,-28029.370484912302
1711590176563,-28688.496312840376
1711590176603,-27741.527081813663
1711590176644,-26717.037229843903
1711590176683,-26730.691171003273
1711590176724,-27454.926286998205
1711590176763,-27719.49441303825
1711590176804,-26862.170922243968
1711590176844,-25336.873862288194
1711590176884,-22987.751455550548
1711590176924,-20457.03933758242
1711590176964,-17787.50359758176
1711590177004,-16418.334863594268
1711590177045,-14615.802686728537
1711590177084,-12306.441948727239
1711590177124,-10755.176748357248
1711590177164,-18254.030251624295
1711590177205,-26048.8778850534
1711590177245,-29192.172752266284
1711590177285,-29323.926131753484
1711590177325,-28481.412144169677
1711590177365,-26877.014170606388
1711590177405,-25525.522094995016
1711590177446,-25246.346154010156
1711590177485,-25588.564728549914
1711590177525,-23747.547306595836
1711590177565,-21039.75354373455
1711590177605,-18624.002731678076
1711590177646,-15833.795346001862
1711590177686,-13046.265202465001
1711590177726,-10626.114971516654
1711590177766,-8114.511676145485
1711590177806,-5020.4749310053885
1711590177847,-7142.562167966971
1711590177886,-14587.625012730248
1711590177926,-19004.48855887889
1711590177966,-18849.05256527057
1711590178006,-16767.809660068713
1711590178047,-15225.213240494253
1711590178086,-13546.654011055361
1711590178126,-12275.002879096894
1711590178167,-11591.997207202017
1711590178207,-10487.616626285017
1711590178247,-9127.313144609332
1711590178287,-6329.466684380313
1711590178327,-2950.8027674008626
1711590178367,26.519249443896115
1711590178407,2488.052471044706
1711590178448,5553.7322344647255
1711590178487,8058.136031530332
1711590178527,9214.153763272101
1711590178567,3271.3680693260394
1711590178607,-2512.1348054730333
1711590178648,-4150.241074821446
1711590178688,-2338.924288272392
1711590178728,-829.5455787123647
1711590178768,1363.366717954399
1711590178808,2495.104516933905
1711590178849,2803.17207433586
1711590178888,4037.2713119885884
1711590178928,5281.868391917553
1711590178968,7834.500118344091
1711590179008,9946.050994887948
1711590179049,12707.099332387792
1711590179088,14871.735812762985
1711590179129,15973.932407250628
1711590179169,18057.99839731725
1711590179209,19892.086695329752
1711590179250,15203.618929608725
1711590179289,8481.280719912145
1711590179329,5422.907014805824
1711590179369,5638.264156644698
1711590179409,6451.489256235771
1711590179450,7988.851046022028
1711590179489,8830.27691296162
1711590179529,8963.867348180618
1711590179570,9200.748001456494
1711590179610,9900.411227708915
1711590179650,11191.751629001927
1711590179690,12473.710231842473
1711590179730,14366.200521340128
1711590179770,15736.626582136843
1711590179810,17049.383934324374
1711590179851,18526.81816459191
1711590179890,19749.18171930709
1711590179930,15041.634932731278
1711590179971,8272.761648650514
1711590180010,5273.9851822748315
1711590180051,4882.501414276194
1711590180091,6293.69962455472
1711590180131,7728.243492300622
1711590180171,7819.286406878382
1711590180211,7892.048419706523
1711590180252,7487.942034251755
1711590180291,7966.405494931154
1711590180331,8743.694200388156
1711590180371,10144.981813706225
1711590180411,12689.629466539714
1711590180452,13894.232283956138
1711590180492,14821.655424861936
1711590180532,17106.54903574288
1711590180575,18453.79489887436
1711590180612,12617.004864947405
1711590180653,5080.097007108387
1711590180692,2433.9287695814855
1711590180732,1514.941008253023
1711590180772,1603.6024288213812
1711590180813,2630.9500638882164
1711590180853,2561.0234719282016
1711590180893,1940.0147707222495
1711590180933,2149.098501063185
1711590180973,3092.5701781071257
1711590181013,4150.619364749175
1711590181054,5775.2609461215325
1711590181093,7718.177611853927
1711590181133,9323.468240084592
1711590181173,10687.36431022128
1711590181213,12785.611072068335
1711590181254,14580.177186586196
1711590181294,10930.771465970902
1711590181334,3024.509659417905
1711590181374,-1945.0178820854053
1711590181414,-3302.2787766316906
1711590181454,-3780.810113166459
1711590181494,-4228.649643564597
1711590181534,-4283.152789272135
1711590181574,-4631.319309902843
1711590181614,-4460.879255205393
1711590181655,-3776.5080020194873
1711590181694,-2860.8480735414196
1711590181734,-881.5597155503929
1711590181775,1382.1811284972355
1711590181815,2416.2957122302614
1711590181856,3900.235725165112
1711590181895,5612.392397021409
1711590181935,8022.420305238105
1711590181975,9055.200127146672
1711590182015,2662.167684624903
1711590182056,-5475.58669884759
1711590182095,-9710.89573209011
1711590182136,-10640.812159611378
1711590182176,-11026.819816005882
1711590182216,-10968.747434125282
1711590182257,-11404.16005331697
1711590182296,-11688.00675910851
1711590182336,-11436.75781094958
1711590182376,-10866.793004762847
1711590182416,-9379.572932004463
1711590182457,-7094.481637323741
1711590182497,-5899.866752824746
1711590182536,-3718.647528954316
1711590182577,-2224.5703975006472
1711590182617,-387.2502835742198
1711590182657,1075.7036368600093
1711590182697,3661.6713502956554
1711590182737,1044.8130866182037
1711590182780,-7849.228754970944
1711590182817,-12871.850206151139
1711590182858,-14006.88007412944
1711590182897,-14271.872100364882
1711590182937,-13935.268687544856
1711590182978,-13439.56800992298
1711590183018,-13415.65503109619
1711590183059,-13109.302507657558
1711590183098,-12252.985431413166
1711590183138,-10778.206859190948
1711590183178,-8503.531010784442
1711590183218,-7097.811132963048
1711590183259,-4975.894409100059
1711590183299,-3041.622976723127
1711590183339,-827.1036126189865
1711590183379,1026.1353160531726
1711590183419,3267.7127563492395
1711590183460,5583.823534099851
1711590183499,560.1789980826434
1711590183539,-7186.906104486436
1711590183580,-10929.570591921918
1711590183620,-11594.75450621103
1711590183660,-11539.393428281881
1711590183700,-10865.1940393392
1711590183740,-10770.306153607788
1711590183780,-10300.42812213744
1711590183820,-9935.402466814034
1711590183861,-9157.205485333223
1711590183900,-6871.231214941479
1711590183941,-2434.9558258769102
1711590183981,-546.4423331215512
1711590184021,2062.2034640256315
1711590184062,4430.862675418379
1711590184101,6464.8470232789405
1711590184141,7788.424812821671
1711590184181,10231.649940378964
1711590184221,3954.8439098345116
1711590184262,-3881.156629925128
1711590184301,-6952.976312098792
1711590184341,-7134.111466928385
1711590184381,-6284.358980152989
1711590184422,-5073.725911757443
1711590184462,-4856.160471845884
1711590184502,-4453.575727359159
1711590184542,-4369.163578250911
1711590184582,-2723.1460129769985
1711590184622,-1236.1988531160168
1711590184663,1352.4577530683018
1711590184702,3062.3760544937104
1711590184742,5057.265216909349
1711590184782,6795.423147990834
1711590184822,8877.202253239695
1711590184863,10030.67088864441
1711590184903,12346.397922532633
1711590184943,8504.484852950322
1711590184985,414.38303021434695
1711590185023,-3353.703239245806
1711590185064,-3403.5097002002876
1711590185103,-2770.845075058285
1711590185143,-1591.908510623034
1711590185183,-802.739527968457
1711590185223,-667.2683965545148
1711590185264,-213.74444303382188
1711590185303,637.0386152211577
1711590185343,2148.2137376642786
1711590185384,4253.54270051932
1711590185424,6963.263114999281
1711590185464,8337.963155544596
1711590185504,10505.279146815185
1711590185545,12213.796644958667
1711590185585,13320.207743447041
1711590185625,15079.382126396988
1711590185666,11150.055934457574
1711590185705,2249.715032288339
1711590185745,-1334.3987868642434
1711590185785,-1555.416925945785
1711590185826,-1137.4389776284806
1711590185867,-869.5001153557096
1711590185906,235.29376779682934
1711590185946,204.5749618706759
1711590185986,541.6381985580083
1711590186026,1134.3358705386054
1711590186067,2545.45787541382
1711590186106,4577.18103816919
1711590186146,7505.351502305828
1711590186186,9415.337280846434
1711590186227,11237.870094673475
1711590186267,13358.505018736236
1711590186307,14882.299901803955
1711590186347,16568.854086123174
1711590186387,11497.981273711193
1711590186427,3887.77339201048
1711590186468,643.7533433116041
1711590186507,291.7717435620725
1711590186547,871.0889035551809
1711590186588,1554.1365391463041
1711590186628,2159.350458504632
1711590186668,2221.663039697567
1711590186708,2746.1815990668256
1711590186748,4129.639624888077
1711590186788,5797.503020913107
1711590186828,7677.842862240039
1711590186869,9888.059429050423
1711590186908,11652.045669623185
1711590186949,13466.033418427687
1711590186989,16061.076538010966
1711590187029,17262.893306517508
1711590187070,18207.918828459457
1711590187109,11419.963714502752
1711590187149,4697.3738728016615
1711590187189,2346.629445856437
1711590187229,2791.093026684597
1711590187270,3670.250043384731
1711590187309,4649.845998905599
1711590187349,5489.459705755347
1711590187390,5339.02631227416
1711590187430,4997.796455293428
1711590187471,5835.053761379793
1711590187510,7339.685782137793
1711590187550,8975.03082286194
1711590187590,10922.085498672677
1711590187630,12199.727707335958
1711590187671,14194.830652064877
1711590187711,15187.365269114496
1711590187751,16905.714367373846
1711590187791,12098.925099354703
1711590187831,4351.592781534186
1711590187872,926.7367463065311
1711590187911,1147.533175190445
1711590187951,2132.152736863354
1711590187991,3094.0121716419235
1711590188032,3222.5367910508066
1711590188072,2398.332475641044
1711590188112,2691.2250530309975
1711590188152,3185.2985111013986
1711590188192,4411.514024769887
1711590188232,5980.128978624707
1711590188273,8179.51027853135
1711590188312,10173.950184756424
1711590188353,11534.436594664818
1711590188393,12914.462649082765
1711590188433,13463.062253219541
1711590188474,5822.762338987086
1711590188513,-1571.4034898045938
1711590188553,-4262.876509038499
1711590188593,-4028.2750435057096
1711590188633,-3074.9973511290736
1711590188674,-1962.2626488804817
1711590188714,-1175.8577138071414
1711590188754,-1828.4785396615043
1711590188794,-1801.70335257845
1711590188834,-776.5112610668875
1711590188875,856.1359896389768
1711590188914,2749.3186711287126
1711590188954,4759.660732371733
1711590188995,6996.8605166831985
1711590189035,7487.801353473216
1711590189075,9669.16213102825
1711590189115,7804.312355932547
1711590189155,-1346.3695339369588
1711590189195,-7876.707323239651
1711590189235,-8883.201768720057
1711590189276,-8478.248872944154
1711590189315,-7497.06852541538
1711590189356,-6720.281208936591
1711590189396,-6902.907319428632
1711590189436,-6984.4882363649085
1711590189477,-6198.23886748869
1711590189516,-4635.597764599137
1711590189556,-3156.8815669827163
1711590189596,-1152.9029261097312
1711590189636,762.940010632854
1711590189677,2820.162986110896
1711590189717,4659.863874648232
1711590189757,6265.250983828213
1711590189797,-898.4674195777625
1711590189837,-9555.01636881777
1711590189878,-13053.856549784541
1711590189917,-13289.01965381275
1711590189958,-12721.73555318918
1711590189998,-11817.256239472423
1711590190038,-10832.301716735587
1711590190079,-10570.272646659054
1711590190118,-10163.060815338045
1711590190158,-9129.853046941804
1711590190198,-7485.350329122972
1711590190238,-5796.961675874656
1711590190279,-3471.156393073965
1711590190319,-492.99264931259677
1711590190359,755.4832323777955
1711590190399,3009.0670236733276
1711590190439,1753.409951637499
1711590190480,-7157.405848418828
1711590190519,-13879.322279593674
1711590190560,-14647.38339914591
1711590190600,-14693.01120042475
1711590190640,-13826.56549539091
1711590190681,-12768.806277734227
1711590190720,-12187.109692471102
1711590190760,-12634.11838072422
1711590190800,-11492.084876634646
1711590190840,-9536.489562598523
1711590190881,-6804.85512979934
1711590190920,-3262.4630794255063
1711590190960,-367.72996158804744
1711590191001,2388.26581773418
1711590191041,4053.4358617523685
1711590191081,6745.920090056956
1711590191121,2060.6468424152117
1711590191161,-6553.644021607935
1711590191201,-11230.95028097136
1711590191241,-12527.430234509986
1711590191282,-13417.270708025666
1711590191321,-13236.268858752213
1711590191361,-13407.474459465593
1711590191402,-14296.827909159707
1711590191442,-14910.726668427233
1711590191482,-14106.652504262514
1711590191522,-12746.664252141723
1711590191562,-11217.774317723932
1711590191602,-9419.587586752139
1711590191642,-7434.892200694187
1711590191683,-6474.318889723159
1711590191722,-5194.92282599397
1711590191762,-3935.648603392765
1711590191802,-11978.400708396453
1711590191842,-20286.838858811185
1711590191883,-23229.188645628747
1711590191922,-23313.145762457745
1711590191963,-22862.239873969695
1711590192003,-21217.986648917664
1711590192043,-20301.832906677853
1711590192084,-19717.549224672373
1711590192123,-18548.8694439549
1711590192163,-16794.671865057433
1711590192203,-14555.181759238243
1711590192243,-11480.260021531256
1711590192284,-8614.37857745774
1711590192324,-4871.650621575536
1711590192364,-2370.8217050051317
1711590192404,578.6326662492938
1711590192444,-3924.9191950573586
1711590192485,-11962.01763415779
1711590192524,-15961.822031113086
1711590192564,-15537.608323519351
1711590192604,-15273.950647607911
1711590192644,-14128.358678708319
1711590192685,-13143.849845247809
1711590192725,-12667.71485743625
1711590192765,-12541.133054298814
1711590192805,-11723.677513877396
1711590192845,-9617.252763763303
1711590192885,-7826.884070043452
1711590192925,-5492.565271652769
1711590192965,-2782.0206847907975
1711590193005,-3.3913955679163337
1711590193045,1964.3455073898658
1711590193086,4380.676797243999
1711590193125,-3060.644039832987
1711590193165,-10052.216940248385
1711590193206,-11794.384817089653
1711590193246,-11102.811650915537
1711590193286,-10854.06347317528
1711590193326,-9560.807569665369
1711590193366,-8716.922234144295
1711590193406,-8115.653847348411
1711590193446,-7169.753104039235
1711590193487,-5956.942962282337
1711590193526,-4043.9757821201347
1711590193567,-1958.3533645858988
1711590193607,737.5677132410929
1711590193647,3317.478908760473
1711590193688,4768.5921139437705
1711590193727,7592.666780291358
1711590193767,9495.233327446273
1711590193807,3790.588170902338
1711590193847,-3228.0163334845565
1711590193888,-4958.10411151615
1711590193928,-4258.845934025478
1711590193967,-4010.189475188963
1711590194008,-2897.9373779352754
1711590194048,-1879.8573738634586
1711590194088,-1614.008858678164
1711590194128,-1394.5300114443526
1711590194168,-14.161886196117848
1711590194208,1990.4737846334465
1711590194248,4320.344961231574
1711590194289,6424.2745109973475
1711590194328,8267.781929084565
1711590194368,10180.915453180438
1711590194409,12516.420717977453
1711590194448,14969.16317879525
1711590194489,10606.757844944717
1711590194529,4267.778257526923
1711590194569,1498.8673318871297
1711590194609,1775.020177683793
1711590194649,2528.4572598545346
1711590194690,3640.363908397034
1711590194729,4822.898674860597
1711590194769,5351.724831976229
1711590194809,6095.101199023426
1711590194850,7410.291818162892
1711590194890,8609.866146223154
1711590194930,10495.294698495883
1711590194970,13155.859505110653
1711590195010,14845.513869782444
1711590195050,16256.531019320246
1711590195091,17965.926291499287
1711590195130,20236.899440787733
1711590195170,17592.21962306951
1711590195210,10553.844165012473
1711590195251,7188.421088110423
1711590195291,7001.8942893152125
1711590195331,8057.3511920478195
1711590195371,9462.016100969631
1711590195411,10186.713673262624
1711590195451,10444.022045395803
1711590195492,10521.691613672767
1711590195531,10988.70403529657
1711590195571,12687.529942058492
1711590195612,13914.193212819519
1711590195651,15891.510358160129
1711590195692,17770.278639357537
1711590195732,18153.604086926673
1711590195772,20299.498871203978
1711590195812,21502.245553590823
1711590195852,16257.726640451001
1711590195893,9850.759874240495
1711590195932,7618.209359315224
1711590195973,8079.762527575251
1711590196013,8601.080103100277
1711590196053,10172.900887997821
1711590196094,10818.487189219333
1711590196133,10723.490142281633
1711590196173,10951.36701562046
1711590196213,11814.779264329001
1711590196253,12749.888600352919
1711590196294,14089.846527217422
1711590196334,16437.712503645103
1711590196374,17799.161320684478
1711590196414,18587.593967149733
1711590196454,20009.034393123817
1711590196495,20051.23132416769
1711590196534,13874.089422201272
1711590196574,8825.63801688049
1711590196614,7040.308377625886
1711590196654,7841.35293729743
1711590196695,8585.971197493374
1711590196735,9246.114950257586
1711590196775,9230.479205053532
1711590196815,8873.147950321436
1711590196855,8874.027285026852
1711590196896,10051.182114926865
1711590196935,11053.596114257816
1711590196975,12452.291053049732
1711590197016,14648.722223471384
1711590197056,14978.96142849396
1711590197096,16124.498899985105
1711590197136,18093.861634620465
1711590197176,17874.498061243678
1711590197216,10453.604003429879
1711590197256,4963.121269126888
1711590197297,3634.0918251508847
1711590197337,3395.2499481295235
1711590197377,3910.913875648752
1711590197417,4614.671399764251
1711590197457,4645.308383056894
1711590197498,4108.160241137026
1711590197537,4564.683383579366
1711590197577,5381.547256663907
1711590197618,6344.617179603316
1711590197658,7885.577011669753
1711590197699,9692.176390404347
1711590197738,10592.989364046138
1711590197778,11871.146467751823
1711590197818,13274.853465483757
1711590197859,13733.78264114447
1711590197900,7073.0124759753235
1711590197939,-763.1467540455051
1711590197979,-3991.599376602564
1711590198019,-4893.609356145142
1711590198059,-4509.993395892903
1711590198100,-3716.3432150711305
1711590198140,-3574.13091583224
1711590198180,-4920.70760905277
1711590198220,-5373.415432658512
1711590198260,-4442.574809271842
1711590198301,-3870.01003751019
1711590198340,-3245.5308761987835
1711590198380,-2733.3908078528475
1711590198420,-2978.4784562317654
1711590198460,-2905.1476211594418
1711590198501,-2974.6942582856864
1711590198541,-3045.494396246271
1711590198581,-13791.39440150233
1711590198621,-15738.082793867681
1711590198661,-15060.791571228532
1711590198702,-14736.352421587333
1711590198741,-14377.824929228518
1711590198781,-12975.793628282845
1711590198821,-11963.02112001623
1711590198861,-10320.782487905119
1711590198902,-10185.991571566556
1711590198941,-8708.259285576642
1711590198982,-5879.905364473583
1711590199022,-4703.204083811957
1711590199062,-1968.1975749437697
1711590199103,-235.40672937314957
1711590199142,1588.5220056618564
1711590199182,-605.6969549227506
1711590199222,-7511.69857392041
1711590199262,-11881.37467618892
1711590199303,-11633.128713283688
1711590199342,-10116.685268034227
1711590199382,-9598.368426512927
1711590199422,-7857.620958350599
1711590199463,-5572.385510882363
1711590199503,-6316.893161886837
1711590199543,-6338.091643941589
1711590199583,-1463.3615370763
1711590199623,3541.4691143948585
1711590199663,4912.215933852363
1711590199704,8948.938388758805
1711590199743,11559.181255532894
1711590199783,13563.171877537854
1711590199823,14105.319882790558
1711590199863,4890.629506543279
1711590199904,-877.4607697632164
1711590199944,-2642.99261863064
1711590199984,-2140.0827469166834
1711590200024,-2428.843621622771
1711590200064,-2286.0150247227866
1711590200105,60.69445388391614
1711590200144,-2282.313741789665
1711590200184,-1838.9503942802548
1711590200224,876.020023027435
1711590200264,328.2667656382546
1711590200305,2867.9338380633853
1711590200344,4541.594990158686
1711590200385,6876.605513251387
1711590200425,8393.252471696353
1711590200465,10904.204001047183
1711590200505,5099.919850755716
1711590200545,-1285.4878517682664
1711590200585,-2915.767794321757
1711590200625,-2007.8595832905266
1711590200665,909.175195557531
1711590200706,1984.6745833749883
1711590200745,2004.7651072405279
1711590200786,4258.968156897463
1711590200826,5519.289268148132
1711590200866,5095.365062576253
1711590200906,6227.885511479806
1711590200946,9166.822401346872
1711590200986,9046.162164488342
1711590201026,12091.911891053896
1711590201066,12697.276110934094
1711590201107,12629.527498534648
1711590201146,9303.48800509423
1711590201186,112.01815712545067
1711590201227,-4943.275103544351
1711590201267,-6256.409006407717
1711590201307,-4802.839417631272
1711590201347,-3930.55623554904
1711590201387,-5884.383858843474
1711590201427,-3520.612903078785
1711590201467,-2997.672842166852
1711590201508,-3221.656146173831
1711590201547,194.44993031257764
1711590201587,1506.1468075891025
1711590201628,3007.0622594277374
1711590201668,4266.75775956572
1711590201708,6994.724130393006
1711590201748,8253.135157447774
1711590201788,8009.792877775384
1711590201828,1049.4087946908548
1711590201868,-4531.205341106281
1711590201909,-6319.350801746827
1711590201948,-6042.3373812921345
1711590201988,-5638.263802444097
1711590202029,-4710.758325694129
1711590202069,-5320.890136846108
1711590202110,-5192.112081509549
1711590202149,-4473.724338073982
1711590202189,-4254.418644905556
1711590202229,-3524.620965562761
1711590202269,365.3404030469246
1711590202310,2596.1398568809964
1711590202349,5539.631162406877
1711590202389,8384.17280989606
1711590202430,10046.776323150843
1711590202470,9170.357092155376
1711590202510,1551.6891089463606
1711590202550,-1964.6888257577084
1711590202590,-1866.2010234156623
1711590202630,-1662.0632495768368
1711590202670,-3447.7435262440704
1711590202711,-5045.785186446272
1711590202750,-8050.600396824535
1711590202790,-9080.34447290143
1711590202831,-8835.212250544922
1711590202871,-7223.158279381692
1711590202912,-5613.113562868908
1711590202951,-3055.522426597774
1711590202991,-339.8978390775155
1711590203031,2510.617832881864
1711590203071,3529.637925678864
1711590203112,2091.6773521555588
1711590203151,-5776.098674639594
1711590203192,-11882.333116875961
1711590203232,-13239.621654680232
1711590203272,-10257.517149686813
1711590203313,-8816.899142558686
1711590203352,-7535.485693193972
1711590203392,-8296.2687712349
1711590203432,-9344.27931567002
1711590203472,-7793.158771074377
1711590203513,-4877.130653617205
1711590203553,-4051.788104407722
1711590203593,-881.7542072366923
1711590203633,2500.2195393198635
1711590203673,1682.938228503801
1711590203714,4006.373339458136
1711590203753,-328.81007045158185
1711590203793,-7117.569464793429
1711590203833,-10569.005969246151
1711590203874,-11456.281905400567
1711590203914,-9691.551610877737
1711590203954,-6479.244888685178
1711590203994,-4518.439939389005
1711590204034,-392.38908194424585
1711590204074,273.5156469694339
1711590204115,1650.4955532527529
1711590204154,3915.5522991812322
1711590204194,4837.623572589364
1711590204234,4886.166145408293
1711590204275,4761.337092039641
1711590204315,5356.186599004781
1711590204355,6596.910992954858
1711590204395,135.27678427984938
1711590204435,-6279.108537401771
1711590204475,-8728.513939585537
1711590204516,-9694.898784521502
1711590204555,-11146.451766395709
1711590204596,-10075.107313698158
1711590204636,-9749.034866567235
1711590204676,-10256.082459068624
1711590204716,-9436.677190208342
1711590204756,-8553.825973954052
1711590204796,-7610.887886541896
1711590204836,-5636.132575365482
1711590204876,-5064.33329716092
1711590204917,-4069.482804699801
1711590204956,-796.4017649895977
1711590204997,-5378.681125250645
1711590205037,-13598.272052161396
1711590205077,-17984.452131462982
1711590205118,-19207.535567872692
1711590205157,-18191.6655948509
1711590205197,-17660.760759573197
1711590205237,-16834.15233410336
1711590205278,-17051.037762206048
1711590205318,-18002.491740372265
1711590205358,-17416.411384155275
1711590205398,-16079.718642615946
1711590205438,-13977.247857651673
1711590205478,-10052.016967853764
1711590205519,-7576.518748655915
1711590205558,-6010.389985620044
1711590205599,-7224.219429828227
1711590205638,-16748.855425027898
1711590205679,-23871.87549379142
1711590205719,-26211.64571263152
1711590205759,-26890.889153033728
1711590205799,-20099.03458595951
1711590205839,-14800.519580151187
1711590205879,-15313.95122753596
1711590205920,-18573.910953867016
1711590205959,-10624.579785720445
1711590205999,-5699.157199088018
1711590206040,-4158.185007639229
1711590206080,-2984.563684591092
1711590206120,-2116.272395682987
1711590206160,309.84327316866256
1711590206200,525.0212884601206
1711590206240,-6170.958185706288
1711590206280,-14230.842085663928
1711590206321,-18822.921350589022
1711590206360,-21221.565780195408
1711590206400,-21439.61648871377
1711590206441,-20218.42357057007
1711590206480,-18402.991922073066
1711590206521,-17026.457154968288
1711590206561,-16792.58353306516
1711590206601,-14419.047509395983
1711590206641,-11480.57403006684
1711590206681,-8221.190908104181
1711590206722,-5821.620149682742
1711590206761,-3683.984927555779
1711590206801,-1561.6870509907603
1711590206841,1158.681649429258
1711590206881,-5611.128609020961
1711590206922,-14466.166524515022
1711590206961,-18102.46395021025
1711590207001,-18180.95458112657
1711590207042,-17960.64134587231
1711590207082,-22908.889547751984
1711590207122,-24433.65252512577
1711590207162,-23730.04447072395
1711590207202,-18675.637556211324
1711590207242,-22284.154174040537
1711590207282,-22514.963917080546
1711590207323,-19766.522449966054
1711590207362,-17225.152201405494
1711590207402,-14154.666152856313
1711590207442,-12151.9657798314
1711590207483,-7975.036243456416
1711590207523,-14858.36885092617
1711590207563,-24904.025911912788
1711590207603,-29649.353678003652
1711590207643,-30079.449595903978
1711590207683,-29183.766588385683
1711590207724,-27461.139885333367
1711590207763,-26909.076410590904
1711590207803,-26855.957405115943
1711590207843,-25897.934129108908
1711590207883,-25273.603193144314
1711590207924,-22844.43152032257
1711590207964,-21060.93361868523
1711590208004,-17374.802951692604
1711590208044,-14310.979312662035
1711590208084,-11102.51946469862
1711590208125,-7962.393475148827
1711590208164,-10694.947893580655
1711590208204,-18811.29356446443
1711590208244,-22784.980273122434
1711590208284,-23360.406236664625
1711590208325,-22392.506849588826
1711590208364,-20968.62133010337
1711590208404,-19383.48396197008
1711590208445,-17895.006864654366
1711590208485,-19245.238342118915
1711590208525,-19061.47489825636
1711590208565,-20004.12935045245
1711590208605,-16611.090681138914
1711590208645,-11167.874529452063
1711590208685,-4217.29747259384
1711590208726,-393.399499933701
1711590208765,-1005.0288806210738
1711590208805,1565.6055749685038
1711590208846,-3131.209236235358
1711590208886,-11926.857756434707
1711590208926,-15253.946759372018
1711590208966,-16270.460982375778
1711590209006,-15921.039670185186
1711590209046,-14626.892656431533
1711590209086,-13256.928792527411
1711590209127,-10178.48639464844
1711590209166,-8672.606000327505
1711590209206,-5308.39736493933
1711590209246,-227.82559342798777
1711590209286,-19.822350409347564
1711590209327,3077.98366643209
1711590209367,7844.011819419218
1711590209407,14819.585631092777
1711590209447,17743.415385660017
1711590209487,21656.491460170597
1711590209528,21022.77841107594
1711590209567,21330.6889453833
1711590209604,20642.78631480504
1711590209644,21509.35358717898
1711590209684,24061.396440846846
1711590209725,26141.923612332204
1711590209764,38198.08392949798
1711590209805,51525.07020363328
1711590209845,59316.78024724801
1711590209885,66140.23010617541
1711590209926,68227.55719479825
1711590209965,64286.755118724424
1711590210005,65748.99663777137
1711590210045,66781.34640670405
1711590210085,72950.06676933356
1711590210126,95654.6727316333
1711590210166,109652.46653389581
1711590210205,114918.49487230182
1711590210246,81706.80858187517
1711590210286,34573.67194177862
1711590210327,27639.646592840552
1711590210366,42876.41016300977
1711590210406,56376.79065465508
1711590210446,67719.96421848028
1711590210486,72301.19580872683
1711590210527,64407.241209796164
1711590210566,65895.24124213238
1711590210606,71565.30833559437
1711590210647,65544.97833812842
1711590210687,68891.81984550483
1711590210727,68301.44227003446
1711590210767,51093.59711588477
1711590210807,49532.40330077801
1711590210847,48113.821693364065
1711590210887,36584.07812490943
1711590210928,38097.820048343856
1711590210967,46391.86348923063
1711590211008,54343.90586026898
1711590211048,59752.41926955129
1711590211088,49967.08916627965
1711590211129,41226.99966665357
1711590211168,30571.77520968439
1711590211208,12565.03754385002
1711590211248,12178.855126502924
1711590211288,18273.2462410694
1711590211329,27466.177667999873
1711590211369,26004.89062152384
1711590211409,2533.032888540067
1711590211449,-17083.735701574013
1711590211489,-20471.64314857591
1711590211530,400.8669903657865
1711590211569,45761.531707892194
1711590211609,49567.08366190223
1711590211649,36961.365992485546
1711590211689,27556.332696182653
1711590211730,19224.59039991675
1711590211769,14217.611905883532
1711590211810,19489.141378956847
1711590211850,22921.803200626746
1711590211890,24602.113362303935
1711590211931,32210.723307532957
1711590211970,27109.626290696207
1711590212010,27420.73784563504
