Timestamp,Cleaned_PPG
1711437340286,0.0
1711437340327,0.0
1711437340369,0.0
1711437340408,0.0
1711437340447,0.0
1711437340487,0.0
1711437340527,0.0
1711437340567,0.0
1711437340608,0.0
1711437340648,0.0
1711437340688,0.0
1711437340728,0.0
1711437340768,0.0
1711437340809,0.0
1711437340848,0.0
1711437340889,0.0
1711437340929,0.0
1711437340969,0.0
1711437341010,0.0
1711437341049,0.0
1711437341089,0.0
1711437341130,0.0
1711437341170,0.0
1711437341211,0.0
1711437341250,0.0
1711437341290,0.0
1711437341330,0.0
1711437341370,0.0
1711437341411,0.0
1711437341451,0.0
1711437341491,0.0
1711437341531,0.0
1711437341571,2123528.0
1711437341612,1990871.0399253182
1711437341651,1866050.9640578788
1711437341691,1748988.6777339526
1711437341731,1639039.3626495695
1711437341771,1535782.4603546425
1711437341812,1439888.5544209667
1711437341852,1350594.5581105957
1711437341892,1265287.6636695955
1711437341932,1185175.6409892004
1711437341972,1111887.4459553487
1711437342013,1043147.6933841095
1711437342052,977697.2956094332
1711437342092,917442.7681663586
1711437342132,860117.1712808423
1711437342172,806937.1118953158
1711437342214,756167.9223918419
1711437342253,709094.7335222093
1711437342293,664556.0900355573
1711437342333,621673.7173263943
1711437342373,579485.0985841155
1711437342414,543016.3001005964
1711437342453,506841.7155085618
1711437342493,476475.53034572117
1711437342533,445834.65095869824
1711437342576,414927.1093078735
1711437342615,395088.1908717286
1711437342654,374583.4700841219
1711437342694,349015.5468530359
1711437342734,321997.8898912696
1711437342774,281199.4673252036
1711437342815,252812.55689244182
1711437342854,228945.91168830544
1711437342894,217778.96836284362
1711437342935,209448.19823888643
1711437342974,201814.15302566648
1711437343016,189543.30368514266
1711437343055,178833.35519820475
1711437343095,169683.6175400694
1711437343135,159028.07373075048
1711437343175,158084.8866400472
1711437343216,151990.0573552302
1711437343255,142786.79018961382
1711437343296,133924.4825561992
1711437343336,125039.59425290301
1711437343376,117062.94889380923
1711437343417,116451.82574635069
1711437343456,106771.66689644894
1711437343496,94815.63684911677
1711437343536,96313.39567800099
1711437343576,91620.55320251454
1711437343617,86666.33497103583
1711437343656,88786.21615033294
1711437343697,80687.2233328782
1711437343737,81768.17339063482
1711437343777,75343.60231060674
1711437343818,67696.021449978
1711437343857,79617.35050409287
1711437343897,66375.15683630388
1711437343937,52305.89472966362
1711437343977,48379.70611607004
1711437344018,46131.88446427323
1711437344058,54676.38038058556
1711437344098,58766.815404939465
1711437344138,64731.20707816584
1711437344178,60232.65125871217
1711437344219,48650.635700616986
1711437344258,56165.97485261108
1711437344298,39966.2703178036
1711437344338,41432.80250466429
1711437344379,32085.38928945083
1711437344419,32906.955229441635
1711437344459,23843.5643105458
1711437344499,17699.53071249649
1711437344539,13514.419604529627
1711437344579,13700.76656545396
1711437344620,22491.878112330567
1711437344659,24785.447990598623
1711437344699,14270.434675771743
1711437344740,15545.040202165488
1711437344782,20529.21436257707
1711437344820,7424.973290938884
1711437344860,1880.4751462643035
1711437344900,-3254.5597543586046
1711437344940,-6319.834007189609
1711437344980,-3550.6714050387964
1711437345021,-7170.552828405984
1711437345060,-144.63967644097283
1711437345101,6263.495255910326
1711437345141,-7440.683545490727
1711437345181,-12822.618088270538
1711437345222,-11107.046968332492
1711437345261,-10580.363272555172
1711437345301,-12140.008869870566
1711437345341,-5922.387770510279
1711437345381,-7701.013882435393
1711437345422,-12664.282907095738
1711437345462,-15630.903306590393
1711437345502,-14512.322846908588
1711437345542,-27876.48179270653
1711437345582,-19127.591203372926
1711437345623,-28442.16316295881
1711437345662,-25579.317214346956
1711437345703,-29959.557356887497
1711437345743,-32131.219830169808
1711437345783,-26018.4933546884
1711437345824,-19043.2548469319
1711437345863,-12634.22199398093
1711437345903,-8046.966503521195
1711437345943,-8346.40168392472
1711437345983,-1398.6475267692003
1711437346024,-5731.499337943504
1711437346064,-9383.996164315147
1711437346104,-9501.347772625973
1711437346144,-4186.288224143907
1711437346184,-5436.931383048184
1711437346225,-8079.3912993771955
1711437346264,-12153.31201679632
1711437346305,8142.744298632955
1711437346345,3035.9954188405536
1711437346385,-4435.862404447049
1711437346426,-10489.700990199577
1711437346465,-6871.444871193729
1711437346505,-11454.883918079082
1711437346545,-9978.923741263337
1711437346585,-7012.32458997122
1711437346626,-6068.461196324322
1711437346666,-1149.2055095024407
1711437346706,-820.4096125010401
1711437346746,-4037.2615880060475
1711437346786,-2657.623479929287
1711437346827,-3938.867231874494
1711437346866,2453.4970557487104
1711437346907,9312.802122242982
1711437346947,20548.69708255329
1711437346987,20173.76143008424
1711437347028,20149.899666069774
1711437347067,20405.37311537238
1711437347107,20543.749720005784
1711437347148,17490.82687731972
1711437347188,3359.2706180280074
1711437347229,5497.495120553998
1711437347268,6096.251001775265
1711437347308,8004.552834537113
1711437347349,9845.180327888345
1711437347389,8267.131938890088
1711437347430,8534.348411158659
1711437347469,9387.846308361972
1711437347510,4148.785545127932
1711437347550,2165.4401337602176
1711437347590,-10523.690200633835
1711437347632,-4482.98688288196
1711437347671,965.8811069638468
1711437347711,9894.622176958248
1711437347752,6773.240539787104
1711437347792,7455.146734105423
1711437347833,2033.0434526521713
1711437347873,-8050.579482153524
1711437347913,-20042.363100381102
1711437347953,-28626.41707105725
1711437347993,-32159.153795626014
1711437348034,-32383.307702086167
1711437348074,-36322.950334580615
1711437348114,-20482.82788732415
1711437348154,-40563.202901893295
1711437348194,-92190.52427537413
1711437348235,-126283.07151826564
1711437348275,-162857.83857175778
1711437348315,-163952.30366332317
1711437348355,-175703.57729074126
1711437348395,-177736.85316294013
1711437348436,-178238.45083413366
1711437348476,-171897.12507441943
1711437348516,-169443.9545421938
1711437348556,-172250.58191279345
1711437348597,-168529.9962803945
1711437348637,-168776.82544637006
1711437348677,-169027.9734140709
1711437348717,-167743.85585948825
1711437348757,-168824.97251443448
1711437348797,-163263.6645958987
1711437348838,-153686.50906080194
1711437348878,-139919.09042341867
1711437348918,-133887.07713032723
1711437348958,-125863.55754287494
1711437348999,-127784.63498099078
1711437349040,-133674.80022166297
1711437349079,-138519.11602455354
1711437349119,-135916.45989421755
1711437349160,-131491.67082984094
1711437349200,-131883.2344450839
1711437349241,-124963.3134891619
1711437349280,-116591.68004039489
1711437349321,-135907.6279347795
1711437349361,-147581.69131582975
1711437349401,-152191.25881014275
1711437349442,-157658.2671756032
1711437349482,-135588.81749706622
1711437349522,-116160.80579160736
1711437349562,-100729.97025716957
1711437349602,-113106.79162928369
1711437349643,-99311.18948179018
1711437349683,-97138.7146309698
1711437349723,-97969.63253025035
1711437349763,-105117.37830767338
1711437349804,-114699.33194835251
1711437349845,-115893.91098011844
1711437349884,-113968.11173000047
1711437349925,-107116.17176209344
1711437349965,-94742.70829955302
1711437350005,-85876.50830115448
1711437350046,-78996.16338319937
1711437350085,-80192.54269515211
1711437350126,-84250.16252795444
1711437350166,-87443.42359618051
1711437350206,-85320.28037558356
1711437350247,-91040.9489247175
1711437350287,-96046.32549822424
1711437350327,-88813.60269582807
1711437350368,-78758.2132470631
1711437350408,-74813.41475201258
1711437350449,-69523.93404393783
1711437350488,-71804.71769320173
1711437350529,-86386.6275737409
1711437350569,-90863.96678187558
1711437350609,-79709.10202711239
1711437350650,-73503.4178316039
1711437350689,-78854.41622391855
1711437350730,-83146.94593228912
1711437350770,-82087.307307187
1711437350810,-102698.85136514623
1711437350851,-116431.55568795861
1711437350891,-121823.01140187867
1711437350931,-122490.9422744913
1711437350971,-127442.40090497816
1711437351011,-125031.46112650214
1711437351052,-131793.01880917512
1711437351092,-123290.82637292892
1711437351132,-112066.4252476755
1711437351172,-93484.11532552354
1711437351212,-71198.90601740545
1711437351253,-71254.34457881656
1711437351292,-85453.85318604624
1711437351333,-71627.72941139573
1711437351373,-54252.03283012984
1711437351413,-36786.59190170537
1711437351454,-16653.25414287066
1711437351494,-743.1360591391567
1711437351533,10338.883049706928
1711437351574,12156.115604180377
1711437351614,15530.930921144085
1711437351655,12240.948178567458
1711437351694,14189.63399672648
1711437351734,14967.169759273762
1711437351774,22807.422347995453
1711437351814,26832.264903371222
1711437351856,25095.534037054982
1711437351895,41311.97945577465
1711437351935,46676.75507520395
1711437351975,53416.25807561772
1711437352015,54768.202084966935
1711437352056,34539.73543915665
1711437352095,37875.93758115964
1711437352135,47557.667540072
1711437352176,54880.23551624874
1711437352216,46937.76014308259
1711437352257,56007.49815419782
1711437352296,56632.652328660246
1711437352333,64832.651746539865
1711437352373,51637.28034162009
1711437352413,41695.10125461919
1711437352455,25122.485223984346
1711437352494,15156.21153920074
1711437352534,26162.89887332241
1711437352574,32577.59255664656
1711437352614,25905.050281867385
1711437352655,18163.87155186804
1711437352695,15863.87650917098
1711437352734,10115.14484113874
1711437352775,4186.678976482013
1711437352815,9877.639083096758
1711437352856,9662.236647672253
1711437352895,5245.6726657112595
1711437352935,9979.011267965892
1711437352975,13098.823236071039
1711437353015,18536.475519496715
1711437353057,20007.202463533264
1711437353096,26981.908281145617
1711437353136,29152.750994707458
1711437353176,20791.81790653756
1711437353216,18935.417737374548
1711437353257,17489.54656976415
1711437353296,21453.959061399102
1711437353336,33794.50500428653
1711437353377,35152.18618962122
1711437353417,34675.53230241919
1711437353458,26308.12127959472
1711437353497,15605.630786665482
1711437353537,7889.525559979957
1711437353577,3130.6513420888223
1711437353617,5759.028724325588
1711437353659,9493.203973826487
1711437353698,20972.589051990304
1711437353738,34433.711938657565
1711437353778,30842.615283708554
1711437353818,24382.33773591509
1711437353859,20257.62801900739
1711437353899,20984.719817977864
1711437353939,24280.384762792382
1711437353979,25951.440553636756
1711437354019,28977.85408742167
1711437354060,30105.446662481176
1711437354099,29099.434281197144
1711437354139,33018.0698915706
1711437354179,36509.96415067604
1711437354219,32452.76590831997
1711437354261,34721.557192990556
1711437354300,36035.93926077755
1711437354340,35760.23671322968
1711437354380,38111.69015559275
1711437354420,40532.230510096066
1711437354461,39872.06773720076
1711437354501,38681.48144927132
1711437354541,33396.69776493264
1711437354581,34506.66333892476
1711437354621,35300.370309147984
1711437354662,30727.206530887634
1711437354701,34725.656209261855
1711437354741,40281.6788513402
1711437354781,46438.645184822846
1711437354822,53969.852977123344
1711437354863,56968.72045899369
1711437354902,54060.388194798026
1711437354942,47596.64130191784
1711437354982,42945.43851555302
1711437355022,41350.976063680835
1711437355063,41542.05215191748
1711437355103,41781.995810205815
1711437355143,41910.438969746465
1711437355183,41901.29047238431
1711437355223,41481.569055651315
1711437355264,41392.10900842352
1711437355303,38240.87973926612
1711437355344,36373.71690864256
1711437355384,33346.55269825179
1711437355424,32869.51805667672
1711437355465,31687.902498923708
1711437355504,33254.80000358308
1711437355544,32548.429982742527
1711437355585,31602.486288133077
1711437355625,30189.735141751124
1711437355666,23408.366163046565
1711437355705,17840.339456673246
1711437355745,18519.639170194743
1711437355785,17601.667044660775
1711437355826,19844.530701788375
1711437355867,17224.165331632597
1711437355906,16278.459393244004
1711437355946,21154.89640631154
1711437355986,22338.695731171407
1711437356026,21697.237274657004
1711437356067,21661.90340295108
1711437356107,21655.588021385018
1711437356147,22518.642072735587
1711437356187,23233.85799722094
1711437356227,23771.510973553406
1711437356268,24872.61885946081
1711437356307,25843.524502246408
1711437356347,26162.213677868713
1711437356387,28259.51145288488
1711437356427,25808.974868137855
1711437356468,21446.642958452925
1711437356507,19277.210282307584
1711437356548,17530.23431144189
1711437356588,18113.2500247485
1711437356628,20922.96442173887
1711437356669,23040.625485779485
1711437356708,24680.61336715985
1711437356748,24971.46065022191
1711437356788,25935.023353553843
1711437356828,26024.148513256107
1711437356869,28512.1334830923
1711437356908,28189.33497570036
1711437356948,27277.508943033637
1711437356989,27345.215329339728
1711437357029,25935.213261618745
1711437357070,25744.994451303734
1711437357109,25065.219540770166
1711437357149,24698.358088178094
1711437357189,26494.797224748414
1711437357229,26898.33700961061
1711437357270,25866.363590513123
1711437357310,23325.23305707518
1711437357350,19973.81838729512
1711437357390,19586.393653655192
1711437357430,20637.864984542364
1711437357471,21874.489505205303
1711437357510,24165.993800406344
1711437357550,26323.80114986468
1711437357590,26142.778279492166
1711437357630,27195.046173520386
1711437357671,26593.77145118406
1711437357710,28950.076645162655
1711437357751,26323.59334368538
1711437357791,26654.263557223603
1711437357831,26947.390854331898
1711437357872,30017.064722143812
1711437357911,28998.946911653504
1711437357951,30589.6571482094
1711437357991,28305.301168366335
1711437358031,25455.028539987747
1711437358072,27172.000413631322
1711437358112,27146.930570106022
1711437358152,25141.776734121144
1711437358192,23012.723261839943
1711437358232,22958.398715093732
1711437358273,23609.88282113406
1711437358312,25391.787063298747
1711437358352,25130.218328793067
1711437358392,21966.256410360802
1711437358432,22546.951939461287
1711437358474,25538.843444026075
1711437358513,26204.423934514634
1711437358553,27238.340658369474
1711437358593,27851.757162873633
1711437358633,29385.387017717585
1711437358674,30113.523171154782
1711437358713,29658.642161943484
1711437358753,29373.966173158027
1711437358793,28570.867477729684
1711437358834,26377.135599841597
1711437358874,25581.709484497085
1711437358914,23452.03800852946
1711437358954,22656.7152070764
1711437358994,20979.028007796733
1711437359034,24104.317133904202
1711437359075,26912.439921788406
1711437359114,26214.05698994221
1711437359154,21393.723399834475
1711437359195,18630.522558002733
1711437359235,16214.191550787073
1711437359276,15558.599863368552
1711437359315,17221.24746935442
1711437359355,9864.707034521736
1711437359395,4633.626504575834
1711437359435,-1343.9529508785345
1711437359476,-4265.850950460648
1711437359515,-6181.173427036032
1711437359556,-11106.380578896496
1711437359596,-21833.311620207503
1711437359636,-28860.882203627843
1711437359677,-29504.49908621842
1711437359716,-31057.361010910245
1711437359756,-31813.74890528666
1711437359796,-30888.93743353756
1711437359836,-29803.713754048338
1711437359878,-30156.47784452187
1711437359917,-30016.480468244758
1711437359957,-30983.26438204618
1711437359997,-30355.491626010044
1711437360037,-29053.630971458973
1711437360078,-27100.77432535938
1711437360117,-22567.14394836151
1711437360158,-20295.65662080329
1711437360198,-17389.654605160933
1711437360238,-15159.695630266797
1711437360279,-13572.572952664224
1711437360318,-12348.423440285958
1711437360358,-13301.221358998213
1711437360399,-17540.786727585364
1711437360439,-26101.53843624727
1711437360479,-31664.61657122639
1711437360519,-35411.5216796617
1711437360559,-33643.663063695654
1711437360599,-33741.540954780765
1711437360639,-28638.936799466144
1711437360680,-33252.33261850197
1711437360720,-39832.790162820835
1711437360760,-45157.16802788898
1711437360800,-42706.26616012538
1711437360840,-39164.57374794525
1711437360881,-34620.75104325055
1711437360920,-30687.157494453946
1711437360960,-27198.70556522836
1711437361001,-23148.57646185346
1711437361041,-22602.660678970162
1711437361081,-21136.115052816458
1711437361121,-22879.017055593664
1711437361161,-20474.71755579533
1711437361201,-23237.032005012035
1711437361241,-28546.710423617857
1711437361282,-43426.0914799734
1711437361321,-54565.24089097814
1711437361362,-61574.61303513916
1711437361402,-65321.57239316916
1711437361442,-65815.80109237228
1711437361483,-64853.47945476556
1711437361522,-61679.5555082534
1711437361562,-59285.43766384339
1711437361603,-59024.34371657786
1711437361643,-54862.54432067345
1711437361683,-51931.747446011286
1711437361723,-40303.28225565585
1711437361763,-28789.407740586204
1711437361803,-17661.868814560818
1711437361843,-12203.314873321448
1711437361884,-7796.469339213567
1711437361923,-8325.97829666268
1711437361964,-124.92857382143848
1711437362004,1346.8462989721447
1711437362044,13262.266752259573
1711437362085,26207.400868238416
1711437362124,41671.32995731733
1711437362164,47903.904761350714
1711437362205,57646.786229457706
1711437362245,64507.35462185554
1711437362286,71813.03159515117
1711437362325,74588.22677205037
1711437362365,69720.51301058265
1711437362405,66029.75300918706
1711437362446,62954.457790205954
1711437362486,60455.58815989038
1711437362526,59667.14981233468
1711437362566,59684.13079736545
1711437362606,59211.00235252362
1711437362646,59957.665571580874
1711437362687,58300.53846734925
1711437362726,56723.12371034222
1711437362766,57396.38252972113
1711437362807,58408.31087613758
1711437362847,55852.00648271339
1711437362887,52396.510973318014
1711437362927,46588.86657469394
1711437362967,44780.21985536674
1711437363007,41114.98783471016
1711437363047,39872.03087206371
1711437363088,37808.72981734318
1711437363127,38537.704949989915
1711437363167,38470.87038324098
1711437363207,42462.32081644377
1711437363247,43127.78872647742
1711437363288,48281.24270037818
1711437363328,41892.00148636871
1711437363368,34663.72700793436
1711437363408,16100.575145635288
1711437363448,41.76193724316545
1711437363489,-20651.796482585138
1711437363528,-27512.33121108217
1711437363568,-26438.92482503201
1711437363608,-19799.057619800325
1711437363649,-19451.793056607712
1711437363689,-25492.61453545466
1711437363729,-31762.274047352606
1711437363769,-32972.877145064296
1711437363809,-36043.05925009865
1711437363849,-34808.479126202874
1711437363890,-37675.31143832393
1711437363929,-41182.013616110664
1711437363969,-43111.80218107905
1711437364010,-47120.135413679294
1711437364050,-49734.131011243444
1711437364090,-53041.54959297832
1711437364130,-49653.683534779586
1711437364170,-46276.29102557246
1711437364210,-44011.10607993882
1711437364250,-40475.41786914226
1711437364291,-40728.925044727046
1711437364330,-41835.729953900445
1711437364368,-42158.57751079253
1711437364408,-44055.44044086151
1711437364448,-46533.48182144435
1711437364489,-48999.06301646121
1711437364528,-50480.52198091429
1711437364568,-49369.03994765994
1711437364608,-49252.785913239
1711437364648,-49417.173731045565
1711437364689,-42180.23787679733
1711437364729,-33480.85112101631
1711437364769,-32783.26397310058
1711437364809,-33636.82563821925
1711437364849,-32673.301580621628
1711437364890,-29535.72503070254
1711437364929,-27943.05754977744
1711437364969,-23787.356350397924
1711437365009,-23656.266955788247
1711437365050,-22871.52117004106
1711437365090,-21840.847336569335
1711437365130,-26531.114887843374
1711437365170,-33090.265247739386
1711437365210,-39822.289711159654
1711437365250,-44664.0146258953
1711437365291,-44452.42320609791
1711437365330,-38982.77921187924
1711437365370,-35291.776764348615
1711437365411,-30050.477056708187
1711437365451,-29001.12683452014
1711437365492,-24850.851354197133
1711437365531,-22291.82913155714
1711437365571,-19692.86612985283
1711437365611,-20009.25475012837
1711437365651,-18778.532751642633
1711437365692,-17047.890336987097
1711437365732,-11195.467573477188
1711437365772,-10695.184632743709
1711437365812,-15255.732602261705
1711437365852,-20491.273670559982
1711437365893,-21043.799148805905
1711437365932,-19235.69661672879
1711437365972,-16490.95143896574
1711437366013,-14439.060657583876
1711437366053,-10677.280799443834
1711437366094,-9063.754950175295
1711437366133,-7369.826066081878
1711437366173,-5946.83028908493
1711437366213,-1910.8928389847279
1711437366253,-623.2499226315413
1711437366294,1192.4568244442344
1711437366334,3310.399312895257
1711437366374,5869.448358895257
1711437366414,10012.506543860538
1711437366454,10998.276714118198
1711437366495,7714.623045976739
1711437366534,640.345297426451
1711437366574,-4244.968723029364
1711437366614,-9646.973871465772
1711437366655,-9546.680583204608
1711437366695,-10593.063369700918
1711437366735,-8649.839849966811
1711437366775,-8824.538700649282
1711437366815,-10327.235116830096
1711437366855,-10717.185401046416
1711437366896,-7145.05285346508
1711437366935,-4381.742613116978
1711437366975,-2031.4990040999837
1711437367016,-384.4168726648204
1711437367056,1939.3505600825883
1711437367096,3634.892933525378
1711437367136,4631.600590304472
1711437367176,5781.567599905422
1711437367216,5178.830937290797
1711437367257,-1884.4804000011645
1711437367297,-7577.530735126231
1711437367337,-11210.072901587002
1711437367377,-10231.656132374424
1711437367417,-8783.15336911939
1711437367457,-7361.3713133058045
1711437367498,-5487.298572246451
1711437367537,-3303.6300799413584
1711437367577,-2473.2039107154123
1711437367618,-329.61940576834604
1711437367658,2148.1359572201036
1711437367698,3575.406539261341
1711437367738,5661.334451013012
1711437367778,8291.002844250761
1711437367818,12394.099161006976
1711437367858,14990.043629343156
1711437367899,17814.654501682147
1711437367939,24933.53783211019
1711437367979,28396.48829217581
1711437368019,34952.98715638509
1711437368059,31497.406194666168
1711437368100,24743.694659354165
1711437368139,22161.297458126443
1711437368179,21458.311390799936
1711437368220,26458.03283810662
1711437368260,26649.950270266738
1711437368300,31238.448103397386
1711437368340,27147.668176737847
1711437368380,25794.06995232124
1711437368420,26913.93184007099
1711437368460,25466.2221942069
1711437368501,27709.51719977637
1711437368541,26855.561191012617
1711437368581,26393.93546047341
1711437368621,24898.26787544461
1711437368661,27179.716637235135
1711437368702,24576.318584998604
1711437368741,25674.11126895761
1711437368781,27791.174931573216
1711437368822,33834.376037840266
1711437368862,33379.49780281214
1711437368902,30174.63220977364
1711437368942,18855.987410623347
1711437368982,7793.753133104416
1711437369022,-3717.4891236412805
1711437369062,-8158.823142999783
1711437369103,-12161.105492866598
1711437369142,-7249.530050367117
1711437369182,11504.506961693522
1711437369222,1076.4310267847031
1711437369262,15844.067820386961
1711437369303,13086.448892549146
1711437369343,-3873.5431220652536
1711437369383,12460.501072071726
1711437369423,-24342.7437500027
1711437369463,-24151.92643397604
1711437369504,-19833.37022120948
1711437369543,-2564.8985356532503
1711437369583,648.382115660701
1711437369623,11887.60997879156
1711437369663,16754.768076053122
1711437369704,3883.600632760208
1711437369743,-1046.8381969169714
1711437369784,4431.5082541117445
1711437369824,348.03919799346477
1711437369864,-866.986727377167
1711437369905,-7933.128742829198
1711437369944,-25037.333534545964
1711437369984,-17265.476198396645
1711437370024,-5954.0923373084515
1711437370064,-18322.31974994368
1711437370105,-11261.784158222377
1711437370145,-3806.7118170948233
1711437370186,-3762.5557562531903
1711437370226,4804.247238999698
1711437370266,16550.619124520803
1711437370307,29832.2193707563
1711437370346,33922.22259833827
1711437370386,42701.65094025154
1711437370426,42659.651988502126
1711437370466,48405.95598972612
1711437370507,81622.90220327489
1711437370546,72995.06682800804
1711437370587,76174.12262371462
1711437370627,59788.46707180375
1711437370667,42508.32665433013
1711437370708,52867.38760696957
1711437370747,17595.569586419035
1711437370787,12405.565964202397
1711437370827,4448.266380393412
1711437370868,8663.41888028849
1711437370908,-1021.6288833320141
1711437370948,-6949.955900692847
1711437370988,-7510.670937904622
1711437371028,-345.2332645591814
1711437371068,1923.5517707145773
1711437371109,14398.881061118562
1711437371148,19685.48094484117
1711437371188,23594.92332834704
1711437371229,31538.126585792284
1711437371269,29707.771448850166
1711437371310,25836.8726735292
1711437371349,39843.60359365633
1711437371389,40467.948404522846
1711437371429,29155.307122773258
1711437371469,26974.327898363117
1711437371510,30378.15924475016
1711437371549,28731.857619802933
1711437371590,23212.58276605094
1711437371630,25481.24587071594
1711437371670,25053.24918231368
1711437371711,36098.29073478142
1711437371750,34987.867037709104
1711437371790,35483.21387802344
1711437371831,50618.15344886063
1711437371870,43199.43137449818
1711437371911,42200.74482384906
1711437371951,35658.386764335446
1711437371991,27048.432944517117
1711437372031,26241.387264299672
1711437372071,11252.470500293188
1711437372112,3247.6982959676534
1711437372151,-21190.389646402327
1711437372192,-14367.493501286022
1711437372232,668.6899549316149
1711437372272,21664.48049784382
1711437372313,31739.430340877734
1711437372352,23313.30160737969
1711437372392,20202.184879956534
1711437372432,14439.105408340693
1711437372472,10668.01165354671
1711437372514,18278.489931348246
1711437372553,16012.211684166454
1711437372593,9841.910396003164
1711437372633,2477.691609156318
1711437372673,-6845.476107424591
1711437372714,-5823.153364080004
1711437372753,-8651.782803573413
1711437372794,-11895.479638625868
1711437372834,-5680.761544443434
1711437372874,2433.8204913081136
1711437372915,5081.097804589197
1711437372954,13975.618741030805
1711437372994,6533.521935663186
1711437373035,-2826.939285159344
1711437373075,-9304.033637497574
1711437373116,278.80160348815843
1711437373155,10194.94026759849
1711437373195,17932.75696462067
1711437373235,10946.421422039159
1711437373275,16134.872741451953
1711437373316,14007.865859621204
1711437373355,20661.87310954416
1711437373396,27663.469629353378
1711437373436,40754.74601163156
1711437373476,40061.96461542323
1711437373517,24414.150085404515
1711437373556,5092.705569356913
1711437373596,833.4296559402719
1711437373637,-2006.3293807725422
1711437373677,3776.1524051297456
1711437373718,9843.929122160189
1711437373757,17658.523792500608
1711437373797,12439.655769278528
1711437373837,10419.383260026341
1711437373878,12072.456669363426
1711437373919,14285.149526250083
1711437373958,20927.448060681578
1711437373998,31356.77833044296
1711437374038,43076.12390713813
1711437374078,48162.97687951359
1711437374120,48755.51511757262
1711437374159,49141.602331189206
1711437374199,44309.04517211695
1711437374239,41688.87407320365
1711437374279,47299.11951674847
1711437374320,51836.81888223044
1711437374360,57955.34738642094
1711437374400,53937.227915771306
1711437374440,55094.68821312534
1711437374480,51108.13512078114
1711437374521,53881.87855389994
1711437374560,50641.263209225144
1711437374601,48524.04796988075
1711437374641,51288.1151237695
1711437374681,48125.468018176034
1711437374722,50317.15866885288
1711437374761,45125.40941846138
1711437374801,40855.85275873542
1711437374841,47178.46836340241
1711437374881,44626.255490395706
1711437374922,48222.317886590725
1711437374962,42146.925625589676
1711437375002,38838.346919326345
1711437375042,35213.7322606002
1711437375082,31661.766852543224
1711437375123,30850.402350928634
1711437375162,31801.123268295778
1711437375202,32916.306496631354
1711437375242,31580.133455563337
1711437375282,26632.434055690188
1711437375324,25542.439626678824
1711437375363,21808.169972130796
1711437375403,21320.501643173397
1711437375443,20655.00234374497
1711437375483,23044.19051076146
1711437375524,21097.95513091795
1711437375563,19363.412858902942
1711437375603,17609.6698740134
1711437375643,13754.985610961914
1711437375684,16662.894273662474
1711437375725,15074.233784994809
1711437375764,14864.07118018018
1711437375804,12420.558246010449
1711437375844,12925.339966692962
1711437375884,12678.988200606778
1711437375925,11724.710778292734
1711437375964,10304.80152723589
1711437376004,7221.028233127901
1711437376045,4301.945952345617
1711437376085,3766.4554831064306
1711437376126,1525.5999038121663
1711437376165,2595.004600696964
1711437376205,1390.8392282084096
1711437376245,1374.5863936003298
1711437376285,2096.2136419925373
1711437376326,3446.4730384992436
1711437376365,2775.6868030854966
1711437376458,2614.297514469363
1711437376498,2649.978585529607
1711437376538,3018.291294458322
1711437376579,2053.0223208535463
1711437376618,1710.3336856705137
1711437376658,1678.395370024722
1711437376698,1976.3749217211735
1711437376738,3023.810213834746
1711437376779,2644.0386061999016
1711437376819,2548.552581036929
1711437376858,4169.688796902075
1711437376899,-762.9048144759145
1711437376939,-3796.895580385113
1711437376980,-4673.479423401179
1711437377019,-5430.528022269718
1711437377059,-3203.0755932016764
1711437377099,-2691.7953406693414
1711437377139,-1755.6852797130123
1711437377181,-1940.1298578220885
1711437377220,-2621.588504059706
1711437377260,-3121.9810104453936
1711437377300,-2388.560081422329
1711437377340,-744.9741148471367
1711437377381,149.7292818671558
1711437377420,399.9948832090013
1711437377460,1151.1285370837431
1711437377500,25.517093890346587
1711437377541,334.4470054106787
1711437377582,441.9586710727308
1711437377621,1093.8434319635853
1711437377661,670.9837788441218
1711437377701,2494.7041475954466
1711437377741,3474.750457318267
1711437377782,2241.4837719486095
1711437377821,1758.272874073824
1711437377861,1877.5832997309044
1711437377902,2691.277691870462
1711437377942,3539.747839659918
1711437377983,3990.9239697493613
1711437378022,3406.132355970796
1711437378062,4476.770433050115
1711437378102,4134.741108560702
1711437378142,2075.770647085039
1711437378183,5657.804753573611
1711437378223,5864.261273054639
1711437378263,6604.917220674455
1711437378303,6127.410360351438
1711437378343,6212.277241032571
1711437378384,4102.120448707603
1711437378423,5099.9734456276055
1711437378463,4807.246982219163
1711437378504,3265.24047443131
1711437378544,3544.050245848717
1711437378585,5324.4885666971095
1711437378624,5208.267315145349
1711437378664,6814.820555940736
1711437378704,9195.450104407966
1711437378744,10357.316965703852
1711437378785,12031.557103432715
1711437378824,12598.68950966606
1711437378865,12669.701690413756
1711437378905,11662.101027234457
1711437378945,12010.580069622025
1711437378986,11639.966147460742
1711437379025,10944.09335259581
1711437379065,11114.916593666654
1711437379105,10552.628980649868
1711437379145,10482.326870445628
1711437379186,10657.817330794409
1711437379226,10169.867166223936
1711437379266,10323.59058486973
1711437379306,9409.42511514714
1711437379346,8707.579029497225
1711437379387,8316.337936638854
1711437379426,8925.401452923426
1711437379467,9185.443243762944
1711437379507,8648.832828915445
1711437379547,8550.519483180251
1711437379588,8390.581530656666
1711437379627,7760.338052737527
1711437379667,9702.615376554197
1711437379707,8487.463260637596
1711437379747,7667.346001462312
1711437379788,6755.189783222973
1711437379828,6091.649933588225
1711437379868,5142.4813211523
1711437379908,6453.1306022047065
1711437379948,6878.597997333389
1711437379989,5837.392681670608
1711437380028,5923.530832887627
1711437380069,4804.553661897313
1711437380109,5053.879692185903
1711437380149,5243.856802507769
1711437380190,5871.755183658097
1711437380229,5260.640306744026
1711437380269,5138.456407137681
1711437380310,5024.2790779965
1711437380350,4736.3964083245955
1711437380390,4916.3104436490685
1711437380430,4871.919842303265
1711437380470,4494.7667007946875
1711437380510,4574.648092434043
1711437380551,5153.62493397668
1711437380591,4708.130564618157
1711437380631,4524.831968396436
1711437380671,4769.958088772604
1711437380711,4203.772918763338
1711437380751,3851.1888121126685
1711437380792,4439.770932975458
1711437380831,4921.231296421494
1711437380872,4396.171176167671
1711437380912,4014.1639365842566
1711437380952,3943.8653584872372
1711437380993,3980.7043150528334
1711437381032,3573.166303676786
1711437381072,3429.186752848793
1711437381113,2701.2267127381638
1711437381153,2964.223673172295
1711437381193,1707.8356270096265
1711437381233,1802.9318989189342
1711437381273,1672.9965259826276
1711437381313,167.09957317751832
1711437381353,-580.316356589552
1711437381394,-1807.8690177476965
1711437381433,-2801.637668266194
1711437381473,-3513.02834894415
1711437381514,-3942.4052190114744
1711437381554,-3978.079736778047
1711437381594,-5044.272869120818
1711437381634,-4651.024493148783
1711437381674,-4575.248887677677
1711437381714,-4806.300026276382
1711437381754,-5001.126776456367
1711437381795,-4986.629105646163
1711437381834,-4964.495096623898
1711437381875,-4969.468591064215
1711437381915,-5427.038472297601
1711437381955,-5643.86674844427
1711437381996,-5717.656473760959
1711437382035,-4920.548329671845
1711437382075,-4309.835883275606
1711437382115,-5298.548521485645
1711437382155,-5094.436274345964
1711437382196,-5301.1473420306575
1711437382236,-4618.744058194105
1711437382276,-3684.285059814574
1711437382316,-3781.3602834437042
1711437382356,-4046.7327844388783
1711437382397,-3748.1453697048128
1711437382436,-4483.418589441106
1711437382476,-2661.481572576333
1711437382516,-2699.2384556685574
1711437382556,-3158.8531421576627
1711437382597,-1903.2587734453846
1711437382637,-1876.4155102637596
1711437382677,-1579.0407981586177
1711437382717,-2313.0430916063488
1711437382757,-1938.4693098454736
1711437382798,-1101.4883943330497
1711437382837,-1395.0901226191781
1711437382877,-997.962153960485
1711437382917,-1107.6524467489216
1711437382957,-460.92234453978017
1711437382998,-915.6612908670213
1711437383037,-1178.080819054041
1711437383078,-380.32210503914393
1711437383118,-927.0546856070869
1711437383158,-364.92481715139
1711437383199,252.65867248736322
1711437383238,218.75616323621944
1711437383278,-162.7666576472111
1711437383318,-310.7855367534794
1711437383358,-1083.1404260746203
1711437383399,-351.88964926148765
1711437383439,358.1320997166913
1711437383479,294.0820015652571
1711437383519,13.776167283765972
1711437383559,82.1441270117648
1711437383600,960.7822926444933
1711437383639,1369.0526080168784
1711437383679,1916.8532483021263
1711437383719,1818.7178755719215
1711437383759,1114.4110267038923
1711437383800,-6.956317191477865
1711437383840,255.26314029283822
1711437383880,676.7862159265205
1711437383920,845.0605739045423
1711437383960,886.4427125058137
1711437384001,971.546199764125
1711437384040,809.5766027302016
1711437384080,400.75884947087616
1711437384120,878.5237819559406
1711437384161,1153.8023803727701
1711437384201,1732.4939296497032
1711437384241,2477.4310901365243
1711437384281,2937.0608904445544
1711437384321,3121.0191408549435
1711437384361,2467.6293102197815
1711437384402,3275.492716677487
1711437384441,3520.6418335544877
1711437384482,3080.8230193909258
1711437384522,2406.806411281228
1711437384562,2976.1538635117467
1711437384603,2482.859278312186
1711437384642,3435.6312982698437
1711437384682,3457.254912139848
1711437384722,2607.629849009216
1711437384763,2768.6156352814287
1711437384803,2219.933832062874
1711437384843,1557.283319181297
1711437384883,555.5743222592864
1711437384923,89.7404083814472
1711437384963,415.24799047620036
1711437385004,1026.0813802194316
1711437385043,1120.5996989714913
1711437385083,1879.6520229484886
1711437385123,1999.9691673684865
1711437385163,1258.3086215355434
1711437385204,1166.9730916039553
1711437385244,1508.038059115177
1711437385284,2426.9207131264266
1711437385324,2819.6209318351466
1711437385364,2257.481134575559
1711437385405,1945.9652457279153
1711437385444,2397.3435340805445
1711437385485,1247.4236593646929
1711437385525,-124.13873746059835
1711437385565,292.38496511708945
1711437385606,587.2476124989334
1711437385645,394.2258982746862
1711437385685,-567.9204211698379
1711437385725,-679.5827030595392
1711437385765,-533.1090723983943
1711437385806,237.8550624595955
1711437385846,298.9003677694127
1711437385886,581.8441455638967
1711437385926,-80.16832403605804
1711437385966,-0.6729298504069448
1711437386007,1043.866831009509
1711437386046,1141.1629304499365
1711437386087,573.1893446350005
1711437386127,1617.4328946245369
1711437386167,2226.8068945107516
1711437386208,1972.403720422415
1711437386247,1651.7491372711957
1711437386287,1648.1033073663712
1711437386327,778.7792724468745
1711437386367,295.26378618273884
1711437386408,715.6555042071268
1711437386448,1675.7913368963636
1711437386488,1210.1714952394832
1711437386528,107.75070727942511
1711437386568,-906.0377202902455
1711437386609,-1075.9130711448379
1711437386648,-1226.3981603179127
1711437386688,-1006.045118493028
1711437386728,-1489.8048236100003
1711437386769,-1391.0092526238877
1711437386810,-1157.9501170692965
1711437386849,-2065.2117594480515
1711437386889,-2432.7732570052613
1711437386929,-2113.335904214997
1711437386969,-2327.7878544952255
1711437387010,-1520.386863938067
1711437387050,-1884.0200546719134
1711437387090,-3137.0461241705343
1711437387130,-1897.8015912291594
1711437387170,-2126.5113208172843
1711437387211,-3097.2068531378172
1711437387251,-2840.466171090724
1711437387291,-3836.264557621442
1711437387331,-4044.6863262315746
1711437387371,-3954.4633814133704
1711437387412,-6794.438201041892
1711437387451,-8612.726660613436
1711437387492,-8807.85461588786
1711437387532,-8981.587878733175
1711437387572,-8853.921456845943
1711437387613,-7628.757699534763
1711437387652,-6860.342868530657
1711437387692,-6838.230708332732
1711437387733,-7149.492398002185
1711437387773,-6707.910105402116
1711437387814,-6367.18982537766
1711437387853,-6159.247026753146
1711437387894,-5373.843899269588
1711437387934,-4606.645403638482
1711437387974,-3983.7269492752384
1711437388015,-919.5069103466813
1711437388054,-1044.3825927563012
1711437388094,-761.383301384747
1711437388135,973.52969718026
1711437388174,1626.5325368768536
1711437388215,145.73286396288313
1711437388255,-1661.5145992916077
1711437388295,-3492.043358495459
1711437388335,-4216.460061901249
1711437388376,-3272.1360095473938
1711437388416,-3518.3753373033833
1711437388456,-3008.8005532971583
1711437388495,-1177.1633293353952
1711437388534,-1261.0830891490914
1711437388573,-598.2522813105024
1711437388612,-521.9665131967049
1711437388651,-366.29158658115193
1711437388690,1856.8962033875287
1711437388729,2470.5738597966265
1711437388768,2119.6130668274127
1711437388807,2390.455723511521
1711437388846,2620.9167161697987
1711437388885,2661.033692497527
1711437388924,3304.4281863318756
1711437388963,3257.1729096071795
1711437389002,3687.95566482679
1711437389041,4173.2007929375395
1711437389080,4238.203212610912
1711437389119,2736.9273648604285
1711437389158,-309.6921296226792
1711437389198,-2217.7634018240497
1711437389238,-2768.107619465096
1711437389278,-3687.0298757425044
1711437389318,-2401.5437916861847
1711437389358,-1767.7212508164812
1711437389398,-1894.1771828948986
1711437389438,-1669.546878567664
1711437389478,-251.10292991390452
1711437389518,74.3602698140312
1711437389558,-52.99531665770337
1711437389598,330.10984056652524
1711437389638,1225.3701560935006
1711437389678,1959.0382771200966
1711437389718,2678.2690774523653
1711437389758,2646.7455060342327
1711437389798,4021.364530439023
1711437389838,4707.58034519502
1711437389878,4489.264212329406
1711437389918,5428.800719709601
1711437389958,5466.936006339733
1711437389998,4884.166617073119
1711437390038,4447.6506250121165
1711437390078,2416.3015595576726
1711437390118,749.5067889639176
1711437390158,572.7727776248939
1711437390198,598.5815590466373
1711437390238,1145.0589928501286
1711437390278,1127.054892432876
1711437390318,1600.8601448074915
1711437390358,1393.0390408704989
1711437390398,1491.1530481597874
1711437390438,1934.627353260992
1711437390478,2333.6386993410997
1711437390518,2613.0138373104855
1711437390558,3092.9964677449316
1711437390598,3690.070014729863
1711437390638,4329.104960853234
1711437390678,4570.615309620742
1711437390718,4683.810524543747
1711437390758,4937.711585165467
1711437390798,5536.241121654166
1711437390838,4216.589416565141
1711437390878,3811.4565963323694
1711437390918,2452.8273455346934
1711437390958,-559.1585597179364
1711437390998,-1462.7359551982954
1711437391038,-842.0229335923214
1711437391078,303.58115674648434
1711437391118,-172.78310895804316
1711437391158,311.6842065749224
1711437391198,604.1245417336468
1711437391238,507.24175020772964
1711437391278,931.9049260369502
1711437391318,1189.0031008082442
1711437391358,1372.985132869333
1711437391398,2487.558807939058
1711437391438,2516.60231644311
1711437391478,3300.9107286862563
1711437391518,4268.528227523668
1711437391558,4513.9142563031055
1711437391598,4357.072283300804
1711437391638,5315.001332921209
1711437391678,5797.8988316399045
1711437391718,5726.546877750661
1711437391758,5309.180473742774
1711437391798,3644.5958352866583
1711437391838,1456.827174778562
1711437391878,589.6211473280564
1711437391918,1066.449073376134
1711437391958,2066.682366640307
1711437391998,2530.090735239908
1711437392038,2775.250259516295
1711437392078,2740.1675850586034
1711437392118,3580.7882943698205
1711437392158,3491.5592067257967
1711437392198,2675.8028211654164
1711437392238,3817.8627807819284
1711437392278,5007.156875154469
1711437392318,4608.237208652077
1711437392358,3979.444684949005
1711437392398,5241.177290922031
1711437392438,5951.333391728811
1711437392478,5914.670527313836
1711437392518,5673.330117342528
1711437392558,6266.492580937687
1711437392598,7346.750950034242
1711437392638,6766.316194981569
1711437392678,5913.150026518153
1711437392718,4354.557422604645
1711437392758,2805.4228698038496
1711437392798,1788.0068286568858
1711437392838,1918.4894678825513
1711437392878,2847.7896466455422
1711437392918,3019.635289567057
1711437392958,3845.142375090625
1711437392998,3391.6668356938753
1711437393038,4175.8859174638055
1711437393078,4833.08391696238
1711437393118,5429.092517596902
1711437393158,5906.782482728129
1711437393198,5841.502184948651
1711437393238,5624.558145354968
1711437393278,5642.20655304403
1711437393318,5910.0184690067545
1711437393358,6384.112597026862
1711437393398,6257.78730160743
1711437393438,6518.477531025186
1711437393478,6443.393331849948
1711437393518,6303.610106009059
1711437393558,5315.679637867957
1711437393598,4752.112236392684
1711437393638,3709.0993290736806
1711437393678,3437.71447757422
1711437393718,3551.5476854247972
1711437393758,3507.756357090315
1711437393798,3375.901674152119
1711437393838,3835.060304207029
1711437393878,2690.8628754764795
1711437393918,1330.7081266790628
1711437393958,1625.8074051495641
1711437393998,2193.9618192256894
1711437394038,2169.387605058262
1711437394078,2919.4625921747647
1711437394118,3385.1844976784196
1711437394158,3339.8339798743837
1711437394198,2816.750959092984
1711437394238,2452.2842350180726
1711437394278,2732.7664448968135
1711437394318,2394.290861034533
1711437394358,1636.2595474950504
1711437394398,798.8249749566894
1711437394438,736.7671946664341
1711437394478,530.1291625753511
1711437394518,759.6019652856048
1711437394558,649.4849956813268
1711437394598,245.4135927525349
1711437394638,562.0193960655015
1711437394678,1204.2713308287784
1711437394718,675.80267790379
1711437394758,620.8656961300876
1711437394798,498.74690197361633
1711437394838,224.91003145417199
1711437394878,-904.7037275508046
1711437394918,-386.31979421549477
1711437394958,-1707.7095969519578
1711437394998,-2386.992430334445
1711437395038,-7272.973098648246
1711437395078,-9354.78376751626
1711437395118,-15567.24341964908
1711437395158,-18441.474592232145
1711437395198,-20178.305782518815
1711437395238,-24909.63346767123
1711437395278,-36392.899356704205
1711437395318,-43495.46903063869
1711437395358,-46859.27782079042
1711437395398,-52046.26746348548
1711437395438,-54247.66483914154
1711437395478,-62228.5853920565
1711437395518,-67372.16143460432
1711437395558,-76840.90057616495
1711437395598,-83767.66384799639
1711437395638,-93864.59279414732
1711437395678,-99922.11636148626
1711437395718,-97421.39762625913
1711437395758,-88120.39941468532
1711437395798,-79232.83952043019
1711437395838,-74095.32119635865
1711437395878,-72927.39897589013
1711437395918,-71468.42234829208
1711437395958,-72613.33837774233
1711437395998,-72626.634141088
1711437396038,-71381.5814115936
1711437396078,-71053.01994467014
1711437396118,-76830.1893574011
1711437396158,-90765.9296558625
1711437396198,-96166.81883101119
1711437396238,-96594.108629314
1711437396278,-95419.4893968571
1711437396318,-85431.56518304953
1711437396358,-100535.45718071121
1711437396398,-83086.36144908192
1711437396438,-69142.53147838358
1711437396478,-49354.13346367981
1711437396518,-41088.9800007795
1711437396558,-32519.01236657193
1711437396598,-27449.173683949746
1711437396638,-21616.397933032596
1711437396678,-12979.549723624717
1711437396718,-11347.372105411487
1711437396758,-7516.695212985622
1711437396798,-2484.823810354341
1711437396838,2361.4688756351825
1711437396878,4396.531926456373
1711437396918,6015.474073598627
1711437396958,6054.865195931867
1711437396998,7413.433847458102
1711437397038,8999.026350092841
1711437397078,11185.879101987462
1711437397118,11023.103692399105
1711437397158,13672.871707119746
1711437397198,14252.418843704741
1711437397238,16884.72350494424
1711437397278,19668.907269682037
1711437397318,18291.98226613761
1711437397358,19441.957096533384
1711437397398,18799.3602744299
1711437397438,22482.066886998015
1711437397478,21195.969172613462
1711437397518,18942.021786281373
1711437397558,15050.918229291216
1711437397598,5065.448925795499
1711437397638,29653.46609921055
1711437397678,28368.37310934486
1711437397718,25447.04154993687
1711437397758,17947.71304779756
1711437397798,15712.02596657793
1711437397838,15318.003914430039
1711437397878,16769.747866205405
1711437397918,17409.972544132965
1711437397958,17074.802305394784
1711437397998,17989.687657907838
1711437398038,17601.43540586438
1711437398078,15380.26786052459
1711437398118,16083.039597638883
1711437398158,14575.5477646566
1711437398198,16017.262714507524
1711437398238,19616.86370438966
1711437398278,21185.149067686638
1711437398318,20570.84531618748
1711437398358,16411.707698314916
1711437398398,19183.248248609016
1711437398438,17030.995403932407
1711437398478,16301.952169089112
1711437398518,13504.624879815383
1711437398558,7367.60881508328
1711437398598,3126.877660804894
1711437398638,-1749.1075975336134
1711437398678,-2588.7024965791497
1711437398718,-3529.760781014804
1711437398758,-4613.152158174664
1711437398798,-4837.104815743398
1711437398838,-8512.446295624832
1711437398878,-10053.93090455141
1711437398918,-10924.97453163634
1711437398958,-11171.030635491246
1711437398998,-10200.26726532681
1711437399038,-12712.858687721891
1711437399078,-8406.525362811983
1711437399118,-3395.6181455436163
1711437399158,570.1261569168419
1711437399198,2498.269112148322
1711437399238,-1978.0268128248863
1711437399278,-16273.13910673093
1711437399318,-26496.527484777384
1711437399358,-30796.953070640564
1711437399398,-29568.840858140728
1711437399438,-28833.37588600628
1711437399478,-29296.39744351688
1711437399518,-35756.47057184018
1711437399558,-41513.887721159495
1711437399598,-42195.0791895322
1711437399638,-43839.6607637913
1711437399678,-42924.36892884434
1711437399718,-36245.319910918595
1711437399758,-31394.962802608497
1711437399798,-21519.602805959526
1711437399838,-15462.76798002934
1711437399878,-18596.914743237197
1711437399918,-25025.41782427882
1711437399958,-26570.126297608484
1711437399998,-24291.862693216186
1711437400038,-20299.802369090263
1711437400078,-16527.79837419046
1711437400118,-12402.02162557561
1711437400158,-7674.309479105286
1711437400198,-6050.772318029311
1711437400238,-2231.838233683724
1711437400278,413.08123888191767
1711437400318,7012.614159191027
1711437400358,9507.244131100131
1711437400398,10598.637931364588
1711437400438,10789.714186284225
1711437400479,11372.612324339803
1711437400519,13133.20812031813
1711437400559,17196.78784693894
1711437400600,12263.288830236532
1711437400639,5330.458853583783
1711437400679,985.2598505839705
1711437400719,1094.985815779306
1711437400759,2754.9984805898275
1711437400800,5338.016905814409
1711437400840,7164.043482206296
1711437400880,5038.105369680794
1711437400920,8537.863855957985
1711437400960,9757.913717519958
1711437401001,10812.788692215458
1711437401040,13427.051589660812
1711437401080,14540.609555075876
1711437401120,16581.348138788715
1711437401160,16266.965780492174
1711437401201,17863.47494297987
1711437401241,18941.078225693433
1711437401281,19136.74430806702
1711437401321,16995.03591640899
1711437401361,7843.638101559132
1711437401402,2572.0890277097933
1711437401441,595.5686742262915
1711437401481,1306.553023215849
1711437401521,1752.773139094701
1711437401562,5907.749494848773
1711437401602,7131.916950124782
1711437401642,5533.64721834613
1711437401682,6034.691276778467
1711437401722,7127.510507135885
1711437401762,8833.352359784301
1711437401803,11079.747745993547
1711437401842,12640.381210554624
1711437401882,14284.420452860417
1711437401923,15816.273050690535
1711437401963,16531.24960081489
1711437402003,13672.247423227876
1711437402043,3615.6816468029283
1711437402083,-1565.5808458265383
1711437402123,-1857.3890502189752
1711437402163,-258.289665362332
1711437402204,1395.9142826464958
1711437402243,4047.9855632572435
1711437402284,7391.463726355229
1711437402324,9530.74927252112
1711437402364,10232.612125055399
1711437402405,11691.731308849994
1711437402444,13544.091224448755
1711437402484,15445.858026368078
1711437402524,16147.909518720116
1711437402564,19102.946240412304
1711437402605,20260.688602604903
1711437402645,21067.155925225
1711437402685,22601.240457563195
1711437402725,22605.792707942426
1711437402765,19217.79299960425
1711437402806,12393.703807107173
1711437402845,7758.210331317503
1711437402886,6532.075792734977
1711437402926,8198.359393046238
1711437402966,8543.682872227393
1711437403007,9184.491712275194
1711437403046,9382.068678343669
1711437403086,6747.055202113697
1711437403126,5265.7288260466885
1711437403166,5009.329142457107
1711437403207,5089.717782961205
1711437403247,321.29288631142117
1711437403287,-15043.828806072706
1711437403327,-40865.08860024484
1711437403367,-45246.962217782624
1711437403408,-30905.741303069284
1711437403447,-236.36193039850332
1711437403487,25546.721114876214
1711437403527,36769.20412140712
1711437403567,11722.879777965602
1711437403608,-23668.51433887845
1711437403648,-74799.51539956057
1711437403688,-91720.70851968508
1711437403728,-118316.14567843615
1711437403768,-134697.51163045177
1711437403809,-126458.40357100312
1711437403849,-128649.57562401146
1711437403889,-119526.85177202616
1711437403929,-108084.00881400006
1711437403969,-104506.1549254416
1711437404010,-100512.06975522428
1711437404049,-83572.9414342111
1711437404090,-61392.79778945143
1711437404130,-44617.895959675545
1711437404170,-21883.325959635433
1711437404211,-22356.753524667118
1711437404250,-13493.464859111933
1711437404290,-5825.098534388468
1711437404331,8601.968366394285
1711437404371,20635.777116691228
1711437404411,8975.447315703146
1711437404451,-10201.436136779841
1711437404491,-21942.47228986118
1711437404531,-21634.295749527402
1711437404571,-6811.386692442233
1711437404612,17091.079826295143
1711437404652,18054.7063634512
1711437404692,4294.555518175708
1711437404732,-26676.429471582873
1711437404772,-50904.62822451722
1711437404813,-47729.74348004162
1711437404852,-29204.423454782227
1711437404893,1330.9209607234225
1711437404933,34214.99941543001
1711437404973,34348.79508959339
1711437405014,53954.3170773827
1711437405053,75321.07826490421
1711437405093,77354.69259598525
1711437405133,83063.52437937213
1711437405174,81042.64630088862
1711437405214,68982.7282262342
1711437405254,69323.92414765386
1711437405294,75166.79912093468
1711437405334,75548.1751810112
1711437405374,74312.63755166205
1711437405415,63779.67473350512
1711437405455,34100.03259849665
1711437405495,35684.045526247006
1711437405535,30897.456062215846
1711437405575,33457.51085213106
1711437405616,22518.477959090145
1711437405656,11646.443656107876
1711437405695,32924.31256235042
1711437405736,65006.5164197078
1711437405776,67562.76505987276
1711437405817,60406.388002908556
1711437405856,51317.99016273441
1711437405896,55789.54263266409
1711437405936,75120.2264472358
1711437405977,92204.75261205668
1711437406017,111852.48596000834
1711437406057,114784.81528706569
1711437406097,96933.84250880522
1711437406137,78014.32665589801
1711437406177,69368.60271546361
1711437406218,59920.92248196597
1711437406257,62529.06634226628
1711437406297,63500.17092773202
1711437406337,65263.894116157666
1711437406377,53700.148907420924
1711437406418,40684.61183824623
1711437406458,50666.089631188195
1711437406498,57011.41639338387
1711437406538,72318.67852466973
1711437406578,72886.82010961068
1711437406619,64654.497380782384
1711437406658,54361.820365408435
1711437406698,60936.473131058505
1711437406738,75086.91850497015
1711437406778,76083.09379056329
1711437406819,74237.63117167493
1711437406859,62898.171365869464
1711437406899,63851.88742758799
1711437406939,53969.45834576059
1711437406979,33970.01549021108
1711437407020,23744.603034615517
1711437407059,48362.23004190833
1711437407099,35361.512775195064
1711437407139,18317.402019686066
1711437407179,18422.366854027146
1711437407220,9979.18442366179
1711437407260,4851.094334732741
1711437407300,-8973.144726444269
1711437407340,1162.4374176058918
1711437407380,27063.247032370884
1711437407421,48394.327341218945
1711437407460,-14719.629130084068
1711437407500,-21868.588254919043
1711437407540,-21465.298040010268
1711437407581,-6574.188458908582
1711437407621,-4123.546281853225
1711437407661,-1489.4448194126599
1711437407701,18435.109231740935
1711437407741,38380.293303754646
1711437407781,13607.244465131313
1711437407822,7225.731170782819
1711437407861,-182.15965202753432
1711437407901,10508.671699688304
1711437407941,29243.447633391712
1711437407981,17309.225728753256
1711437408022,-4739.741804878926
1711437408062,-1739.4359675322194
1711437408102,17406.937513845507
1711437408142,39957.727113676025
1711437408182,31329.759941777447
1711437408223,33383.034312646836
1711437408262,16034.938114237972
1711437408302,-35905.43631449458
1711437408342,-57038.3906090362
1711437408382,-19123.279460860882
1711437408423,-8461.488441166002
1711437408463,-33114.474668828305
1711437408503,-39966.75187905179
1711437408543,-38759.143802545965
1711437408583,-26964.08250209596
1711437408624,-36471.024159241
1711437408663,-46846.775973156095
1711437408703,-65496.83404802717
1711437408743,-5235.118015123997
1711437408784,8503.815268040635
1711437408824,8378.02071963367
1711437408864,3117.5328829535283
1711437408904,-1987.1369310389273
1711437408944,-5176.187777873129
1711437408984,-16111.001288727624
1711437409025,-51471.19577952847
1711437409064,-19163.146651762305
1711437409105,-27042.07361740037
1711437409145,-29656.024356904905
1711437409185,-40360.92253423319
1711437409226,-57095.94299107068
1711437409265,-49125.29197125882
1711437409305,-25978.566784637747
1711437409345,-28825.08696156554
1711437409385,-44446.95592041407
1711437409426,-50467.74873998528
1711437409466,-41762.87880662782
1711437409506,-39057.57986075431
1711437409546,-17670.072848434327
1711437409586,29745.963645232143
1711437409627,37907.90020181239
1711437409666,17067.485676938435
1711437409706,11634.092990913428
1711437409747,17642.10450711474
1711437409786,23757.56914059678
1711437409827,24994.978367304895
1711437409867,18301.914814645424
1711437409907,23522.97691567312
1711437409947,18485.798084632028
1711437409987,17765.75764153246
1711437410028,17330.474384147674
1711437410067,14511.808481499087
1711437410108,16415.565720848273
1711437410148,13632.97049207054
1711437410188,11045.025998238474
1711437410229,10274.38074488379
1711437410268,8216.357795921154
1711437410308,9236.696963660186
1711437410348,4888.792265360244
1711437410388,5736.454915219452
1711437410429,9293.397487550508
1711437410469,11192.417886606418
1711437410509,8056.2696560644545
1711437410549,-508.68788454215974
1711437410589,-1672.6889782059006
1711437410630,-1890.8360114907846
1711437410669,-2001.2616464477032
1711437410710,-3329.737226386089
1711437410750,-4357.256081400439
1711437410790,-4820.5817817291245
1711437410831,-6663.296486424049
1711437410870,-10404.25789360865
1711437410910,-17312.925096023828
1711437410951,-20720.559435172006
1711437410991,-13868.721269599628
1711437411031,-7752.447452196153
1711437411071,-20494.315437069163
1711437411111,-29005.63036681991
1711437411151,-30185.746534544043
1711437411191,-30865.330016645603
1711437411232,-29125.046651541255
1711437411271,-21685.82928183442
1711437411312,-12575.054298073053
1711437411352,-7066.094225693494
1711437411392,-7162.541919415118
1711437411433,-13079.099006098462
1711437411472,-37548.7259511482
1711437411512,-29339.184820889495
1711437411552,-15805.876683373936
1711437411592,3366.285442335764
1711437411633,25645.62877261243
1711437411673,31009.94053565478
1711437411713,38843.61586169386
1711437411753,40542.77368738502
1711437411793,44489.28211101354
1711437411834,51898.46276372671
1711437411873,48106.69657117594
1711437411914,62020.81770567922
1711437411954,70587.24317771243
1711437411994,70058.10311100679
1711437412035,61075.83571517235
1711437412074,44221.78937369771
1711437412114,41304.256125369575
1711437412155,49025.22894866951
1711437412195,57789.65132554807
1711437412236,66157.69842679822
1711437412275,69894.6451767087
1711437412315,72233.20785967726
1711437412355,78086.0562655665
1711437412396,73063.90268160729
1711437412436,69774.83471454773
1711437412476,62691.97263421514
1711437412514,21744.3940444584
1711437412554,-3261.7198837520555
1711437412594,-116.97382406448014
1711437412635,-1410.9149826294743
1711437412674,12327.816284373403
1711437412714,18885.446076948196
1711437412755,43067.400957104284
1711437412794,27237.817388153635
1711437412835,9775.564689971972
1711437412875,-8038.833581262734
1711437412915,-12598.7658982547
1711437412955,2276.8995553252753
1711437412995,-17611.83988243621
1711437413036,-48474.34061461082
1711437413075,-37975.15873705642
1711437413115,-24405.443939733086
1711437413155,-18064.452715796884
1711437413195,-33469.02118719183
1711437413236,-37119.748311516596
1711437413276,-35265.92504213471
1711437413316,-26103.304201262305
1711437413356,-3666.274482802488
1711437413396,-3537.8822144223377
1711437413437,-13782.411112163914
1711437413476,-16358.701400910271
1711437413516,-7877.002344335429
1711437413556,-32091.176768586738
1711437413597,-38759.980722826906
1711437413637,-29803.511500712717
1711437413677,-26874.474030329846
1711437413717,-28791.06140330108
1711437413757,-19134.386462520808
1711437413797,18813.77734470321
1711437413838,36538.680935641285
1711437413877,14333.951291308505
1711437413917,-9379.547681676457
1711437413958,-31510.919590637553
1711437413998,-33873.09362553805
1711437414038,-39245.95211765845
1711437414078,-37176.03338299738
1711437414118,-35082.64227386797
1711437414158,-32978.591352710966
1711437414198,-43720.75738494401
1711437414239,-60961.58717243443
1711437414278,-44829.54121642164
1711437414319,-9029.318235205952
1711437414359,-9947.925233094022
1711437414399,-17882.397911118343
1711437414440,-22664.544857837725
1711437414479,-22868.886547847185
1711437414519,-28801.74850895442
1711437414559,-32659.92582068406
1711437414599,-31792.432306881063
1711437414640,-29534.893256436335
1711437414680,-22874.560170261655
1711437414720,-17773.477288208436
1711437414760,-23012.84680310823
1711437414800,-39417.95111691905
1711437414841,-23268.024852209724
1711437414880,-19387.230276026297
1711437414920,-25631.236992209684
1711437414960,-19546.244317141827
1711437415000,-15894.049961036304
1711437415041,-21816.42567434255
1711437415081,-34598.57398822857
1711437415121,-44862.34514069278
1711437415161,-45715.5552140919
1711437415201,-42412.41791235632
1711437415242,-41468.03974424675
1711437415281,-38936.11109318398
1711437415321,-35563.82666052785
1711437415361,-34347.14219749207
1711437415402,-32823.984021199634
1711437415442,-30009.41297569871
1711437415482,-26999.601830388885
1711437415522,-25495.720007716212
1711437415562,-25042.262482461054
1711437415602,-22326.889758645324
1711437415643,-22750.813445026055
1711437415682,-26719.906547386665
1711437415722,-33038.456409253646
1711437415763,-34886.00580785191
1711437415803,-43502.606796158245
1711437415844,-41942.53831511433
1711437415883,-37782.038083317224
1711437415923,-37291.214483560994
1711437415963,-41627.10312270094
1711437416004,-43591.67508972972
1711437416044,-42019.82306115609
1711437416084,-41195.086701591965
1711437416124,-39156.496245795395
1711437416164,-35762.08439726848
1711437416204,-33419.927251709625
1711437416245,-33395.067668899894
1711437416284,-30345.396090870723
1711437416324,-31456.90383613459
1711437416365,-39122.619976513786
1711437416405,-43905.39030035515
1711437416445,-45198.12445185543
1711437416485,-44939.1599322753
1711437416525,-43109.54985559359
1711437416565,-40302.46415017033
1711437416605,-38712.21128493687
1711437416646,-37247.91348181572
1711437416685,-35191.183852971066
1711437416726,-32549.49642239907
1711437416766,-30712.174057222437
1711437416806,-27065.26623037411
1711437416847,-23901.477596545592
1711437416886,-21779.578292683233
1711437416926,-18640.968151688576
1711437416966,-20396.845988695743
1711437417006,-23518.5025073071
1711437417047,-32529.46507329913
1711437417087,-30188.287846674677
1711437417127,-32797.24765912816
1711437417167,-34669.47513294569
1711437417207,-33924.72354026884
1711437417248,-30630.711407615803
1711437417287,-28014.482195043936
1711437417328,-26757.728273207787
1711437417368,-24990.689368152525
1711437417408,-23105.076591652352
1711437417449,-21326.59191594273
1711437417488,-19176.693612738978
1711437417528,-16067.929514004383
1711437417568,-15869.476299118716
1711437417608,-14478.117282774067
1711437417649,-20085.216414026683
1711437417689,-31613.79418719746
1711437417729,-45686.3847863148
1711437417769,-57259.103614878375
1711437417809,-75943.75618180423
1711437417850,-75377.68262278801
1711437417890,-75508.73150834115
1711437417930,-70978.11743728165
1711437417970,-69627.39538768865
1711437418010,-67904.20305864885
1711437418051,-61017.15478746756
1711437418090,-61745.70350681804
1711437418131,-53810.897749923635
1711437418171,-46287.41346049728
1711437418211,-39281.63206860726
1711437418252,-27531.233333873795
1711437418291,-13973.786124421982
1711437418331,-18384.658860062482
1711437418371,-32688.71618209174
1711437418412,-44644.94615066331
1711437418452,-40259.785568740685
1711437418492,-31747.641546834726
1711437418532,-29113.393135495484
1711437418572,-36973.27275718399
1711437418612,-40769.81111024134
1711437418654,-51974.97513218736
1711437418693,-54332.117508138064
1711437418733,-56801.50804011896
1711437418773,-56953.95152799063
1711437418813,-56629.64949909295
1711437418854,-54427.62718782597
1711437418893,-54048.716739985626
1711437418933,-48983.7761998612
1711437418973,-43832.26784872147
1711437419014,-42170.57324148994
1711437419054,-53466.895918781636
1711437419094,-59695.35681214463
1711437419134,-63588.44227243983
1711437419174,-60681.19675178197
1711437419214,-64047.58093501348
1711437419255,-65376.78982260637
1711437419294,-73442.54092563922
1711437419334,-82175.04531912226
1711437419375,-90247.40411677957
1711437419414,-100378.92217364581
1711437419455,-108589.13482866576
1711437419495,-115903.81833416969
1711437419535,-115620.9070675876
1711437419575,-115410.20867901505
1711437419615,-111486.2672083762
1711437419656,-101685.3234656984
1711437419695,-88398.94139085896
1711437419735,-99270.68945989199
1711437419775,-111240.62160687428
1711437419816,-106653.34556351532
1711437419856,-96534.11041403795
1711437419896,-90134.1468299639
1711437419936,-75195.20108831953
1711437419976,-77210.07526054699
1711437420016,-77062.11044802144
1711437420057,-61850.1516695912
1711437420096,-63077.18272991036
1711437420136,-54981.167214823654
1711437420176,-69411.32298903097
1711437420217,-62084.03974693781
1711437420257,-31831.751665074145
1711437420297,6321.584803961683
1711437420337,18366.406069007935
1711437420377,23284.542040362023
1711437420417,33731.737191315275
1711437420458,39391.31416665926
1711437420497,44665.96121980762
1711437420537,49947.252655905904
1711437420578,54766.65524659539
1711437420618,55948.07625313988
1711437420659,61818.930377924815
1711437420698,63560.3556547279
1711437420738,65538.30155703006
1711437420778,66294.67383283982
1711437420818,65246.72743965755
1711437420859,65487.90465070843
1711437420899,65939.64804244833
1711437420939,65604.89032586105
1711437420979,63576.50521744718
1711437421019,60451.92366622132
1711437421060,50980.07442126935
1711437421099,41799.77932240954
1711437421139,35301.39691428095
1711437421180,14576.561832646374
1711437421220,-13594.066523034126
1711437421260,-19733.509996125475
1711437421300,-18073.51236789301
1711437421340,-24850.77218411537
1711437421380,-19181.688933527097
1711437421420,-7096.555384177249
1711437421461,40366.62810384552
1711437421501,55206.76174247102
1711437421541,37836.90837358916
1711437421581,24761.289598766714
1711437421621,26819.42787507875
1711437421662,31406.404706939822
1711437421701,30652.71931593353
1711437421741,32776.790183441015
1711437421781,36143.872075805906
1711437421821,35612.143042581156
1711437421862,36883.46491083037
1711437421902,37669.90292662103
1711437421942,32888.85171171487
1711437421982,22880.09618851915
1711437422022,15660.56059699459
1711437422063,12669.19827923039
1711437422102,13147.678170127328
1711437422142,14285.670281061437
1711437422183,15759.365352791268
1711437422223,15142.70196090918
1711437422264,16838.190715107135
1711437422303,14892.648903394584
1711437422343,16083.455124449683
1711437422383,16794.822042580694
1711437422423,18006.123873791657
1711437422464,18980.745365593117
1711437422504,20837.133613331243
1711437422544,22687.810613555834
1711437422584,23396.39457702078
1711437422624,25006.27125519351
1711437422665,26104.30841629929
1711437422704,24702.19715986494
1711437422744,15321.474997753045
1711437422784,6856.539805504493
1711437422825,3157.1397185237147
1711437422866,3580.0299185246695
1711437422905,5146.602557755541
1711437422945,6873.295153569896
1711437422985,8644.076578739798
1711437423025,9408.603860649047
1711437423066,8373.705457328353
1711437423106,8422.661839080043
1711437423146,9089.098755216226
1711437423186,11731.70286852261
1711437423226,14199.127873546677
1711437423267,16315.658567908918
1711437423306,18632.52689336054
1711437423347,20986.698374961503
1711437423387,23330.497668168275
1711437423427,20261.213450690964
1711437423468,9926.807223784272
1711437423507,2908.857521499973
1711437423547,1336.7434329376556
1711437423587,2196.339505202137
1711437423627,4547.26331758732
1711437423668,6803.959396652412
1711437423708,8307.00672939932
1711437423748,8162.167495947564
1711437423788,7775.014589596773
1711437423828,8142.261101762531
1711437423869,10256.904050258687
1711437423908,11389.510614311788
1711437423949,13867.354465129785
1711437423989,16446.74260363332
1711437424029,18449.566672834335
1711437424070,20622.71834054636
1711437424109,22455.240191201447
1711437424149,15446.516571670538
1711437424190,2830.3367370872293
1711437424229,-4435.653332004789
1711437424270,-6678.755888640881
1711437424310,-5750.729461603332
1711437424350,-3252.712372408714
1711437424390,-1158.353704563342
1711437424430,-1020.9465532170143
1711437424471,-2654.4145648241974
1711437424510,-3603.3272741618566
1711437424553,-3449.9028862579726
1711437424593,-2123.2770650298335
1711437424633,-95.49996118759736
1711437424674,2372.7236103643663
1711437424713,4831.335780373542
1711437424753,6952.503771773307
1711437424794,9113.161378697958
1711437424834,10821.46680583572
1711437424874,11382.967125141062
1711437424914,562.2314639291726
1711437424954,-10767.696819530334
1711437424994,-16808.1423360731
1711437425034,-14393.027505374514
1711437425075,-11528.400999991223
1711437425114,-9877.188132327283
1711437425155,-10189.785409217933
1711437425194,-10648.176842155866
1711437425235,-10739.441281236708
1711437425275,-9503.68545615836
1711437425315,-7394.409467772115
1711437425355,-5028.948233857285
1711437425395,-2549.0009367256425
1711437425435,31.73422137624584
1711437425476,2411.224816030357
1711437425515,4403.852199974703
1711437425555,6705.907052800059
1711437425595,8536.00692288531
1711437425636,2713.5711921276525
1711437425676,-10998.984478225932
1711437425716,-18662.427375329193
1711437425756,-19880.42642796971
1711437425796,-18240.25424239016
1711437425836,-15549.742689027218
1711437425877,-13088.562122008763
1711437425916,-13127.734605763573
1711437425956,-14514.562422151212
1711437425997,-14652.30531336856
1711437426036,-12870.809503309894
1711437426077,-10569.751528781606
1711437426117,-8290.852501156041
1711437426157,-5213.2696795761585
1711437426197,-1954.0243923459202
1711437426237,248.87563576293178
1711437426278,2466.310004491359
1711437426317,4385.998772050021
1711437426357,6489.6021746718325
1711437426397,6110.301963502308
1711437426437,-5895.185794614721
1711437426478,-17500.052150721196
1711437426518,-22196.749854774214
1711437426558,-21883.675222160993
1711437426598,-19502.968892895617
1711437426638,-17160.575580954086
1711437426679,-16920.130841784645
1711437426718,-18530.34506708989
1711437426758,-20456.78685499588
1711437426798,-20371.345757149626
1711437426839,-18782.12400599569
1711437426879,-16658.907317353645
1711437426919,-14461.160509443609
1711437426959,-11565.856544896495
1711437426999,-9284.445350291207
1711437427039,-8099.54560289951
1711437427080,-5946.9891770342365
1711437427119,-4182.233132797759
1711437427159,-8920.491110692732
1711437427200,-22281.653260063846
1711437427240,-30902.477342658676
1711437427281,-33117.56923947856
1711437427320,-31460.727275719168
1711437427360,-27868.477287865942
1711437427400,-24618.631543192547
1711437427441,-24041.954786849674
1711437427481,-25660.3997002095
1711437427521,-26053.924031193834
1711437427561,-24249.551258350722
1711437427601,-20645.511513896286
1711437427641,-17405.087222305592
1711437427682,-13168.820945320185
1711437427721,-9565.517458422575
1711437427761,-5987.306074604625
1711437427802,-3039.1705976631492
1711437427842,-11048.494517714484
1711437427882,-22541.32874225173
1711437427922,-26686.121095297858
1711437427962,-26032.13107848284
1711437428002,-22567.416652954882
1711437428042,-18502.708550837822
1711437428083,-15296.167454082053
1711437428122,-15258.501030271407
1711437428163,-15631.257715926971
1711437428203,-13997.951505730161
1711437428243,-11219.756725742947
1711437428284,-7922.700209788978
1711437428323,-3962.136169947451
1711437428363,108.06450670189224
1711437428403,3933.41502546845
1711437428443,6497.866836337373
1711437428484,9272.991198123666
1711437428524,4294.156871158164
1711437428564,-12150.932170751505
1711437428604,-23295.72894567158
1711437428644,-26344.09664149792
1711437428685,-25765.23703435436
1711437428724,-23745.85498552071
1711437428764,-21206.865064526908
1711437428804,-20508.8029605248
1711437428845,-21134.218631932512
1711437428886,-21132.79087613942
1711437428925,-19590.073691928526
1711437428965,-17111.751457716804
1711437429005,-13634.85885180463
1711437429045,-10364.660530025372
1711437429086,-6838.342727703974
1711437429126,-3847.242983911652
1711437429166,-811.2873448184691
1711437429206,1245.4880141532049
1711437429246,4260.598524649162
1711437429287,2488.2071415069513
1711437429326,-12589.570015175268
1711437429366,-23987.92622765666
1711437429406,-27429.936397530604
1711437429446,-27025.81159705855
1711437429488,-24728.177775721066
1711437429527,-22655.93523981981
1711437429567,-21916.5650693723
1711437429607,-22225.051657535136
1711437429647,-22277.85010849312
1711437429688,-20817.197575002676
1711437429727,-17191.353717566235
1711437429768,-14019.991189036984
1711437429808,-9733.796569918748
1711437429848,-5594.646439715987
1711437429888,-1853.4919677847065
1711437429928,1488.2867777389474
1711437429968,4866.250708587468
1711437430008,7675.817593043204
1711437430048,10747.605283510406
1711437430089,13811.205656433012
1711437430128,8953.402985482011
1711437430169,-5346.625553433783
1711437430209,-13331.2194121324
1711437430249,-14856.097608230542
1711437430290,-13371.042156074196
1711437430329,-10176.413871846627
1711437430369,-8313.93900500238
1711437430409,-7984.603589175735
1711437430450,-8588.555883274646
1711437430490,-7389.978153055999
1711437430530,-5275.661370491143
1711437430570,-2233.29186418443
1711437430610,1531.9836030192673
1711437430650,5170.028292664792
1711437430691,8006.26381165348
1711437430730,11346.128440517467
1711437430771,13860.981154643465
1711437430811,16650.77371398732
1711437430851,18665.40827501798
1711437430892,21006.772704596166
1711437430931,23075.239876274718
1711437430971,17547.746575240977
1711437431012,4622.512668175623
1711437431052,-2805.4377754388843
1711437431092,-4725.044053804129
1711437431132,-3095.219105304219
1711437431172,-135.39269057288766
1711437431212,846.4540189383551
1711437431252,-106.51940291840583
1711437431293,-737.2987429101486
1711437431332,-659.2043895807583
1711437431373,521.3281404799782
1711437431413,2687.246608532965
1711437431453,4232.020025343634
1711437431494,6325.4946455406025
1711437431533,9500.062828363152
1711437431573,12261.292672041804
1711437431613,14181.575308025815
1711437431653,15244.520972196478
1711437431694,17173.21058748383
1711437431733,18930.648403184256
1711437431774,14518.725780875422
1711437431814,2354.4746315623634
1711437431854,-5782.352463923395
1711437431895,-7884.176993723959
1711437431934,-6323.052218300756
1711437431974,-3207.0159336645156
1711437432014,-428.6598863750696
1711437432054,559.9876902285032
1711437432095,-544.7151737827808
1711437432134,-339.8220417019911
1711437432174,1036.589523748029
1711437432214,3781.3084290234838
1711437432255,7682.744268393377
1711437432295,9590.669686833862
1711437432335,12542.403857092373
1711437432375,15675.44459044002
1711437432415,18385.830250194063
1711437432455,19812.91429473227
1711437432496,13674.70749895298
1711437432535,2054.076725496445
1711437432575,-4094.5474208339583
1711437432616,-3347.847510004649
1711437432656,720.6689195469953
1711437432696,4901.780366875464
1711437432736,8127.309467994608
1711437432776,8314.743305461481
1711437432816,7230.406528487802
1711437432856,7494.320185182616
1711437432897,9048.81958780624
1711437432936,12418.036338336067
1711437432976,15215.040763268014
1711437433016,18247.456925582606
1711437433056,21305.430463333614
1711437433097,23910.098005868495
1711437433137,26514.996200791094
1711437433177,25525.188888336066
1711437433217,14447.321068234742
1711437433257,5895.803024801193
1711437433298,3760.508183165919
1711437433337,4602.137815954164
1711437433377,6392.403238802217
1711437433417,8590.161307260394
1711437433458,9249.665163341444
1711437433498,8271.829339306802
1711437433538,7345.776070191292
1711437433578,9597.249676973093
1711437433618,11962.800781077007
1711437433658,14340.989047724754
1711437433699,16931.016552173067
1711437433738,19352.745603248943
1711437433778,20220.380646771286
1711437433818,22724.552240148187
1711437433858,26040.499086348573
1711437433899,26196.194277171046
1711437433939,15110.766035488574
1711437433979,4450.023383428343
1711437434019,82.2015387583524
1711437434059,74.58616972947493
1711437434100,1822.5519280305598
1711437434139,2854.7714130003005
1711437434179,3671.751049728133
1711437434219,3090.690369504504
1711437434259,2943.247374234721
1711437434300,2268.8582344918977
1711437434340,3693.5258817540016
1711437434380,4504.142822301714
1711437434420,5445.969932398293
1711437434460,6636.3953898281325
1711437434501,7797.4998740747105
1711437434540,10206.120951379184
1711437434580,11707.218438352225
1711437434620,13003.72576362826
1711437434661,14931.881817289861
1711437434701,15041.16608373262
1711437434741,5861.730905854143
1711437434781,-5302.627278978936
1711437434821,-11076.406664212234
1711437434861,-12455.93646485731
1711437434902,-11794.236349573592
1711437434941,-10229.181400623638
1711437434981,-9129.458605267107
1711437435022,-9896.520220516715
1711437435061,-10164.305091835558
1711437435102,-10214.048571889987
1711437435142,-9230.25553499069
1711437435182,-7503.451975127915
1711437435222,-5272.03845000593
1711437435262,-3407.422678577248
1711437435303,-912.50688052224
1711437435342,1282.983585266862
1711437435382,2212.9594133966602
1711437435422,3665.227510364959
1711437435463,5922.890604370739
1711437435503,7616.657565120608
1711437435543,563.9335006619804
1711437435583,-9400.531329957768
1711437435623,-16895.528460101224
1711437435663,-18107.703534441534
1711437435704,-16530.102347016335
1711437435743,-14112.192448017653
1711437435783,-12248.457844884135
1711437435823,-12733.547621917445
1711437435864,-13829.800882003969
1711437435904,-13076.441954240901
1711437435944,-11956.864440345205
1711437435984,-9637.513947543222
1711437436024,-7111.423120573163
1711437436064,-3868.839666651096
1711437436105,-1269.5923442756757
1711437436144,1556.7055396463256
1711437436185,3890.94730736129
1711437436225,5214.930749857798
1711437436265,-3296.5366318905726
1711437436306,-12513.294811504427
1711437436345,-17113.605558902957
1711437436385,-16866.05753035168
1711437436425,-14468.673103188863
1711437436466,-11177.184295032406
1711437436506,-8497.410798301687
1711437436546,-8211.359961200505
1711437436586,-8744.800663733156
1711437436626,-8175.972913455451
1711437436666,-5876.614656523336
1711437436707,-3220.1026949749794
1711437436746,-33.147087172139436
1711437436787,2762.225285771303
1711437436827,6161.542585603893
1711437436867,9145.27314731828
1711437436908,11335.002083680592
1711437436947,4944.599772588583
1711437436987,-5798.5245056082495
1711437437027,-10869.18795825122
1711437437068,-10977.952283339575
1711437437108,-9069.647932283115
1711437437148,-6446.452462130459
1711437437188,-4392.410071117803
1711437437228,-3362.6141091373283
1711437437268,-2987.8364127958193
1711437437309,-2457.7930649025366
1711437437348,-730.7376208351925
1711437437388,2196.3167744292878
1711437437429,4694.648243616801
1711437437469,7607.409509509569
1711437437510,10340.211753247306
1711437437549,12429.344760037493
1711437437589,14866.470381491352
1711437437629,16597.92001248384
1711437437669,11481.852939354489
1711437437710,-1220.4389736275189
1711437437750,-8761.459791973
1711437437790,-11067.717682762071
1711437437830,-9643.642582606059
1711437437870,-7870.456721078139
1711437437911,-5750.072656658478
1711437437950,-4867.281105173752
1711437437990,-4954.691704113968
1711437438031,-5350.9173877902795
1711437438071,-3986.1565395011567
1711437438111,-2614.5749040895607
1711437438151,-336.85699857142754
1711437438191,2543.931670521386
1711437438231,5186.538267562166
1711437438271,8051.830737062963
1711437438312,9732.899563963292
1711437438351,11746.773021332454
1711437438392,14050.822351526469
1711437438432,14824.6617321386
1711437438472,4813.2819958576
1711437438513,-5388.840225937776
1711437438552,-11037.289221002255
1711437438592,-9024.898003977258
1711437438632,-6779.707717466867
1711437438672,-5488.93930869014
1711437438713,-5516.465881442651
1711437438753,-6013.200466789305
1711437438793,-5333.165573302656
1711437438833,-3058.972584349336
1711437438873,-907.7233235361055
1711437438914,1501.2647966891527
1711437438953,3989.3634059596807
1711437438993,7089.701436821837
1711437439033,9062.853755060583
1711437439073,11539.642802110873
1711437439114,13563.419290997554
1711437439153,15703.094878901262
1711437439193,17812.91905413638
1711437439234,16683.08869439829
1711437439274,6941.385333802551
1711437439314,-1652.097312074853
1711437439354,-5111.178273283411
1711437439394,-4562.969362071715
1711437439434,-2567.9100530734286
1711437439474,-7.690156024880707
1711437439515,1246.8032654100098
1711437439554,567.6311650681309
1711437439594,662.5235679396428
1711437439634,906.0173534466885
1711437439674,2270.3668376589194
1711437439715,4260.84168130951
1711437439755,6723.9314647594
1711437439795,8727.222180875018
1711437439835,11321.105274571339
1711437439875,13352.452522891108
1711437439916,14941.934963918291
1711437439955,17253.40328715858
1711437439995,18629.90985883912
1711437440035,20931.751620013267
1711437440075,21064.331524671055
1711437440116,12511.05765609187
1711437440155,4396.635468999855
1711437440196,1206.5707015846856
1711437440236,1137.6251602310222
1711437440276,2380.3849469311535
1711437440317,4883.193024815293
1711437440356,5935.116169787478
1711437440396,5539.079276949866
1711437440436,4513.8444145130925
1711437440476,3726.048963820329
1711437440517,5038.7788094179705
1711437440556,6491.876554560848
1711437440596,7962.242421687115
1711437440636,10034.440180160338
1711437440677,11813.533605875913
1711437440717,13955.221404826734
1711437440757,15269.821511735441
1711437440797,16482.31977589149
1711437440837,18146.270228009205
1711437440877,19803.24042964494
1711437440918,19989.244523839327
1711437440957,13133.20240642014
1711437440997,5214.890501922462
1711437441037,2208.1686832890846
1711437441077,2440.945130294189
1711437441118,3851.3078574384563
1711437441158,5973.743363842601
1711437441198,7616.574421535246
1711437441238,7341.168177668238
1711437441278,6891.586466416251
1711437441319,7194.340479316656
1711437441358,8101.49464106909
1711437441398,9280.179147631163
1711437441438,11289.716513819993
1711437441478,13293.500399301294
1711437441519,16024.377455715556
1711437441559,17515.381821265677
1711437441599,18764.974543126533
1711437441639,20562.97028642241
1711437441679,19100.584227915853
1711437441720,12179.9407751502
1711437441759,6999.447322416818
1711437441799,5074.64844696247
1711437441839,5563.656971590826
1711437441880,7489.641226860695
1711437441920,9297.951856588246
1711437441960,10336.42319078627
1711437442000,9959.25584429293
1711437442040,9766.550209553447
1711437442080,10656.050631224178
1711437442121,11708.181617748924
1711437442160,13048.46170545742
1711437442200,15042.163759771269
1711437442240,16928.942272510612
1711437442280,19353.860433054622
1711437442321,20079.296744955005
1711437442361,20941.829107481986
1711437442401,22551.92229277827
1711437442441,18237.61362511525
1711437442481,8813.572815129999
1711437442522,2708.330809892621
1711437442561,1290.3028038281482
1711437442601,1193.5524156480096
1711437442641,2048.6744408644736
1711437442681,3731.3704679184593
1711437442722,3739.9561844677664
1711437442762,3035.694355980959
1711437442802,2391.131161544239
1711437442842,2874.501115491148
1711437442882,3639.9582396699116
1711437442923,4908.525737137999
1711437442962,6698.86012389441
1711437443002,8504.73355243518
1711437443042,10379.413292723708
1711437443083,12094.498400927056
1711437443123,13317.149412647355
1711437443163,14822.292014280334
1711437443203,14561.686976053286
1711437443243,6619.163284991402
1711437443283,-2120.7553040925413
1711437443324,-5794.728447712958
1711437443363,-6676.457636777777
1711437443403,-5492.097683344036
1711437443444,-4187.6478398749605
1711437443484,-3829.383339569904
1711437443524,-4091.6319309363607
1711437443564,-5540.636634218972
1711437443604,-5064.179804635234
1711437443644,-4647.944266051054
1711437443684,-3180.745738620637
1711437443725,-1382.9954956041183
1711437443765,757.4684302876703
1711437443805,2891.62877518381
1711437443845,4990.993314854102
1711437443885,6696.179133652011
1711437443926,8011.493742812425
1711437443965,10033.640194480307
1711437444005,10761.898012459744
1711437444046,3605.2644887098577
1711437444085,-5542.627454181202
1711437444126,-9604.06173733389
1711437444166,-10236.601990587544
1711437444206,-9199.132051601773
1711437444246,-7205.519153580768
1711437444286,-6395.1418393962085
1711437444327,-7075.094149966491
1711437444366,-7819.304031257052
1711437444407,-7062.959615946282
1711437444447,-6635.5792297809385
1711437444487,-4945.699870467652
1711437444528,-2419.5919274210464
1711437444567,-108.20617670752108
1711437444607,2356.886047891574
1711437444648,3876.716445505619
1711437444687,4853.438660089858
1711437444728,5557.345723345876
1711437444768,7096.662978618173
1711437444808,8301.77579488908
1711437444848,5607.946118020918
1711437444888,-3583.423834910849
1711437444929,-10132.119424195495
1711437444968,-12910.896785256686
1711437445009,-12141.94046043558
1711437445049,-10121.238325568382
1711437445089,-8287.097146314103
1711437445130,-8562.132556555793
1711437445169,-9810.923415929079
1711437445209,-9928.722804934718
1711437445249,-9887.224135566503
1711437445289,-8677.757607736858
1711437445330,-6606.228981026448
1711437445370,-4481.724072302226
1711437445410,-2900.299022618681
1711437445450,-476.46482305950485
1711437445490,1338.5639153693337
1711437445531,2603.990977400914
1711437445570,4093.171093261335
1711437445610,5954.271726278588
1711437445651,5663.247462891974
1711437445691,-5209.009064676007
1711437445732,-15946.720372293843
1711437445771,-20552.439293874893
1711437445811,-20765.854882269166
1711437445851,-18424.385774748167
1711437445891,-15874.647607550025
1711437445932,-14619.274013372604
1711437445972,-14910.421373410616
1711437446011,-14910.876321104355
1711437446052,-14720.905901181512
1711437446092,-13618.926564868074
1711437446132,-11566.377588651376
1711437446172,-9094.877473890781
1711437446212,-7072.207843434531
1711437446252,-4511.858974859584
1711437446292,-2569.847175168572
1711437446333,-801.5197490560822
1711437446372,866.2690906517673
1711437446412,3274.566905135056
1711437446452,4225.316877305042
1711437446492,-3838.6159429282416
1711437446533,-13955.86515753204
1711437446573,-18990.859534270363
1711437446613,-19500.783871860942
1711437446653,-18157.24524144968
1711437446693,-15677.634121319745
1711437446734,-14666.359574307688
1711437446773,-15443.431515340693
1711437446813,-16674.594962394563
1711437446853,-16295.662374055246
1711437446893,-15953.132803959772
1711437446934,-14246.65627581207
1711437446974,-11764.594511175295
1711437447014,-9638.653342556208
1711437447054,-7386.047365829814
1711437447094,-5765.716199811548
1711437447135,-4906.7746381317265
1711437447174,-2941.662905617617
1711437447214,-1009.9166818112135
1711437447254,-4936.714219943155
1711437447294,-15509.275304520968
1711437447335,-22488.476577353664
1711437447374,-24083.250545114744
1711437447415,-22495.045712098712
1711437447455,-19506.9984908225
1711437447495,-17031.38018358266
1711437447536,-16477.94890105282
1711437447575,-17897.782513048034
1711437447615,-18439.20698870928
1711437447655,-17018.83112804359
1711437447695,-15168.249725509202
1711437447736,-12676.10925784777
1711437447776,-9180.478919799905
1711437447816,-6719.818087579915
1711437447856,-3990.0639943282586
1711437447896,-1285.0653451685794
1711437447937,-294.06898750388063
1711437447976,-8240.49368395703
1711437448016,-17073.136326060165
1711437448056,-20526.82384996442
1711437448096,-19929.694924365496
1711437448137,-17856.69177515665
1711437448177,-14384.923263539094
1711437448217,-13049.14660645253
1711437448257,-13312.668472394347
1711437448297,-13989.677749658935
1711437448338,-13924.784106126754
1711437448377,-12035.52968366351
1711437448417,-9280.215641199145
1711437448457,-6435.06560017704
1711437448498,-3640.526650183834
1711437448538,-942.690532530658
1711437448578,1439.5418533938937
1711437448618,4172.841409955174
1711437448658,3930.5317658325657
1711437448698,-6760.753077380359
1711437448739,-17336.789233052405
1711437448778,-21402.90558577981
1711437448818,-21810.850345467916
1711437448859,-20067.557730359957
1711437448899,-17802.683713285485
1711437448939,-17059.333805966657
1711437448979,-17538.249312387314
1711437449019,-17220.15592028573
1711437449059,-17006.953565221513
1711437449099,-14715.591464619618
1711437449140,-12182.398906962713
1711437449180,-8917.460965654114
1711437449220,-5245.585204961011
1711437449260,-2311.9556328826584
1711437449300,719.5287686176598
1711437449341,2643.671238214709
1711437449380,5248.21430871007
1711437449420,7262.088933944935
1711437449461,936.73327757488
1711437449500,-10148.822178178001
1711437449541,-16228.128538767342
1711437449581,-16779.280104484176
1711437449621,-15724.056373089086
1711437449661,-13511.768542318605
1711437449701,-12159.69429732021
1711437449742,-12598.657440886367
1711437449781,-13230.891653280472
1711437449821,-12208.083351382986
1711437449862,-10751.51230727043
1711437449902,-8683.416825177148
1711437449943,-5368.554277680814
1711437449982,-2319.8267766684294
1711437450022,860.7224652948789
1711437450062,3935.0229269017
1711437450102,7098.43329568929
1711437450143,9132.08016335778
1711437450183,11836.411269550677
1711437450223,14420.073944441043
1711437450263,13975.938112353906
1711437450303,3828.2614344493486
1711437450344,-4267.559006608324
1711437450383,-6554.710315919947
1711437450423,-5621.331978206988
1711437450463,-4375.527778710704
1711437450503,-2436.407799187349
1711437450544,-1885.0909396721981
1711437450584,-1913.5476654965896
1711437450624,-1784.53535945341
1711437450664,-544.5530768116005
1711437450704,1875.862357599428
1711437450745,4160.979807561263
1711437450784,7098.4810917221475
1711437450824,10237.65036747884
1711437450864,13521.820304228691
1711437450905,15831.029503806029
1711437450945,17698.15413812222
1711437450985,19601.818295976147
1711437451025,21838.514630105114
1711437451065,23730.064410753548
1711437451105,24870.895850567613
1711437451146,18422.714073782787
1711437451185,9664.990190956742
1711437451226,5545.332911451114
1711437451266,5081.23171635787
1711437451306,6537.818727729144
1711437451347,8433.908892418724
1711437451386,9101.503334467532
1711437451426,9203.727295145858
1711437451466,8444.8572009583
1711437451507,8435.349800199037
1711437451547,9926.12193506863
1711437451587,11366.923734622542
1711437451627,13412.9599110235
1711437451667,15197.429868835956
1711437451707,17673.623828033218
1711437451748,19771.92322122166
1711437451787,21393.249278949574
1711437451828,22406.692939380184
1711437451868,23735.490929613356
1711437451908,25179.63473304035
1711437451949,25544.874835456954
1711437451988,19628.10413499549
1711437452028,11387.631580813322
1711437452068,7652.2261218740605
1711437452108,7589.291972798761
1711437452149,8631.908186947694
1711437452189,11026.28009153041
1711437452229,12311.111023594625
1711437452269,12291.015771201346
1711437452309,11173.789614786161
1711437452350,10859.31684552948
1711437452389,11578.020425394177
1711437452429,13492.159987007268
1711437452470,15749.60128812585
1711437452510,17190.54450192768
1711437452551,19216.186997155193
1711437452590,20420.466832990758
1711437452630,22542.211029301165
1711437452670,25795.858436394716
1711437452711,19539.240037840093
1711437452751,11890.581193064805
1711437452790,8478.933621414471
1711437452831,8390.863896258641
1711437452871,10224.12735305354
1711437452911,12526.085136851296
1711437452952,13791.516888958868
1711437452991,13553.544198788702
1711437453031,13087.367147043813
1711437453071,12686.244591757655
1711437453111,13935.328096145764
1711437453152,15113.873590700794
1711437453192,16853.327651336323
1711437453231,19025.32871058304
1711437453272,20428.28073566896
1711437453312,22197.613001935184
1711437453352,23008.50536347297
1711437453392,24080.296988102607
1711437453432,22996.930395594798
1711437453472,14286.046518171206
1711437453512,5276.259247234557
1711437453553,1726.1863722582348
1711437453592,1813.2123834092636
1711437453633,3706.022321759723
1711437453673,5536.106677983422
1711437453713,6472.759710360551
1711437453753,5564.1457780392375
1711437453793,5445.679310213076
1711437453833,5482.168807687471
1711437453873,6217.67533741612
1711437453913,6885.880245323991
1711437453954,8910.602358114906
1711437453993,10496.084977218881
1711437454034,12656.427899674047
1711437454074,14149.20579550555
1711437454114,15220.229748641606
1711437454155,16313.071866714861
1711437454194,17253.139449119102
1711437454234,13101.6389876334
1711437454274,1898.6814181122463
1711437454314,-4898.319383840542
1711437454355,-6580.131285205483
1711437454395,-5671.879681905964
1711437454434,-3875.620279489085
1711437454475,-2926.754553362727
1711437454515,-3107.044855846092
1711437454555,-3657.136155060027
1711437454595,-4448.657304852735
1711437454635,-4169.411209430546
1711437454675,-3312.869470708538
1711437454715,-895.665665553417
1711437454756,724.8856141692959
1711437454795,3388.8571927503217
1711437454835,4957.7697324426845
1711437454876,6864.903266523033
1711437454916,8671.73629892338
1711437454956,9802.435800572857
1711437454996,11449.569925687276
1711437455036,10615.584713435732
1711437455076,933.5070851957425
1711437455116,-8724.382923681755
1711437455157,-12645.028584002983
1711437455196,-12613.973765265895
1711437455237,-11784.809566790704
1711437455277,-10269.413779500872
1711437455317,-9778.367537339684
1711437455358,-10510.474923790433
1711437455397,-12196.849609542638
1711437455437,-12185.474074553233
1711437455477,-11716.553738051094
1711437455517,-11435.591733435402
1711437455558,-9577.985046125483
1711437455598,-8795.311331744539
1711437455638,-7884.893540052231
1711437455678,-7502.850081535522
1711437455721,-7088.043302635197
1711437455759,-4473.315003893338
1711437455798,-3345.6478883572854
1711437455838,-1070.0765825649723
1711437455878,-4151.2939240492415
1711437455919,-15396.125399760902
1711437455960,-24205.162011709297
1711437455999,-27945.84758372535
1711437456039,-28543.61247947323
1711437456079,-27305.258922597626
1711437456119,-23744.551453658845
1711437456160,-22746.148276618216
1711437456199,-24659.30696088681
1711437456239,-25646.958140399773
1711437456280,-25073.400375343394
1711437456320,-22672.94101386424
1711437456360,-20608.295996637084
1711437456400,-18587.453235975467
1711437456440,-16315.237055121455
1711437456480,-13575.718713072827
1711437456520,-10635.271703597857
1711437456561,-8110.528217475396
1711437456600,-6008.085265412461
1711437456640,-3074.433319688076
1711437456681,-2407.090814781841
1711437456721,-11954.617387040518
1711437456761,-18092.519819898764
1711437456801,-20217.60575681599
1711437456841,-19073.052933188155
1711437456881,-16379.96357321553
1711437456921,-11512.30751264887
1711437456962,-8844.678552884376
1711437457001,-7699.303693892434
1711437457042,-8830.880732720252
1711437457082,-8210.609860016964
1711437457122,-6754.687194416532
1711437457163,-5207.487957801903
1711437457202,-3049.12245608191
1711437457242,-216.98293306864798
1711437457283,1264.8572614900768
1711437457323,5256.008257924113
1711437457363,8512.007176065119
1711437457403,8268.655981046613
1711437457443,10417.031022156123
1711437457483,12224.862245232798
1711437457523,6437.11271632649
1711437457564,-2774.4967968058772
1711437457603,-7956.60602641711
1711437457644,-8145.104740484618
1711437457684,-6137.006205240497
1711437457724,-3403.8512444868684
1711437457765,-1378.6155481371097
1711437457804,-624.2865128496196
1711437457844,-1667.001595231006
1711437457884,-2248.6047137570567
1711437457927,-2301.3509417246096
1711437457965,-1430.0735159292817
1711437458005,1555.3684976962395
1711437458045,3138.0731377131306
1711437458085,6204.1694328603335
1711437458125,8870.031566176564
1711437458166,10882.72677429393
1711437458205,12746.672327686567
1711437458246,11766.214026045986
1711437458286,2697.5774648063816
1711437458326,-4382.795229319017
1711437458367,-6834.330973006086
1711437458406,-6500.6965625460725
1711437458446,-4267.362342872657
1711437458486,-649.1029279055074
1711437458526,749.3166316126008
1711437458567,1357.4486653273925
1711437458607,360.4782653246075
1711437458647,-803.2767942363862
1711437458687,1283.6384110096842
1711437458727,3494.93132774299
1711437458768,5901.508564446121
1711437458807,8479.087751324987
1711437458848,10570.574950378388
1711437458888,12274.838883416494
1711437458928,14138.017610424198
1711437458969,13694.730406704592
1711437459008,4874.828681509243
1711437459048,-3530.9143524512183
1711437459089,-7489.64269697736
1711437459129,-7591.0953784536105
1711437459169,-5756.035284838406
1711437459209,-2732.3075946497265
1711437459249,-576.3659953917377
1711437459289,-467.1369623481296
1711437459329,-983.3377677572425
1711437459370,-1472.3428599415347
1711437459409,-800.7527063421439
1711437459450,1792.2664473559707
1711437459490,3469.1041059279814
1711437459530,5577.090274160262
1711437459571,8935.079954314977
1711437459610,10777.779340793379
1711437459650,12212.669217810966
1711437459690,14187.02864909079
1711437459730,13093.532149544684
1711437459771,3724.193464651704
1711437459810,-4361.495001838077
1711437459850,-8102.018259834964
1711437459891,-8284.304517434444
1711437459931,-6125.701970056165
1711437459971,-3486.7994614387862
1711437460011,-3198.0794188866857
1711437460051,-3830.627851787489
1711437460091,-4612.614125898574
1711437460134,-4584.905164535157
1711437460172,-3381.392287154682
1711437460211,-1403.554554356495
1711437460251,1226.5754446769133
1711437460292,3479.0418561452534
1711437460331,6245.100622808095
1711437460372,7522.860933128977
1711437460412,9013.997251099907
1711437460452,11201.055180570344
1711437460492,11361.739583451068
1711437460532,4030.5619972280692
1711437460573,-4808.233398092445
1711437460612,-8968.876532047987
1711437460652,-9055.274293781025
1711437460692,-6671.386087796185
1711437460733,-3638.2379012103193
1711437460773,-1483.1007127445191
1711437460813,-433.6224308521487
1711437460853,-1476.0858220434748
1711437460893,-1634.511151306564
1711437460933,-202.15392944938503
1711437460974,1314.7112529766746
1711437461013,3420.3995036941487
1711437461053,5852.762171934592
1711437461093,7521.653371904977
1711437461134,10052.624266807223
1711437461174,11979.822756364243
1711437461214,13497.478029813152
1711437461254,15443.139477214543
1711437461294,15771.93256322667
1711437461334,8640.277478593867
1711437461375,1087.2031221932266
1711437461414,-2141.749885876896
1711437461454,-1763.6655993380118
1711437461495,243.5413170098327
1711437461535,2316.0531837842427
1711437461575,4127.885444788495
1711437461615,3388.1126303253695
1711437461655,2954.2205620124005
1711437461695,2858.4543059819844
1711437461735,2776.6946871753316
1711437461776,4237.797131031752
1711437461815,6561.4369666755665
1711437461856,8545.176977280062
1711437461896,10122.255437523592
1711437461936,11764.561243928969
1711437461977,13657.447635400342
1711437462016,14658.158866405953
1711437462056,12231.555338743841
1711437462096,4042.462331342045
1711437462136,-1933.2843941955362
1711437462177,-3435.00712854648
1711437462216,-2181.23826740589
1711437462256,98.04479255480692
1711437462297,2465.9521863767877
1711437462337,3289.6605630987324
1711437462377,3376.057462018449
1711437462417,1700.2159318618942
1711437462457,1672.9341028770432
1711437462497,3118.0439546257257
1711437462537,4269.621058519697
1711437462578,6297.018206550507
1711437462617,7600.739083121996
1711437462657,8963.373904329026
1711437462698,11845.03429031372
1711437462738,12715.196206970606
1711437462779,7408.9085343459155
1711437462818,-1444.8461411898024
1711437462858,-6172.118968353607
1711437462898,-6746.5319562903605
1711437462938,-5288.376126674702
1711437462979,-2809.71564821247
1711437463018,-478.12363385409117
1711437463059,30.209701453102753
1711437463099,-779.2514809677377
1711437463139,-1178.5158505791333
1711437463180,-431.99417083570734
1711437463219,1726.5049197790213
1711437463259,3504.39534055721
1711437463299,5710.528042597696
1711437463339,7345.75925209024
1711437463380,8672.570953339105
1711437463420,10945.361255547265
1711437463460,12069.017799678259
1711437463500,4823.952162888134
1711437463540,-4763.0568795283325
1711437463581,-9469.471084464574
1711437463620,-9637.410600204952
1711437463660,-7807.21875198232
1711437463700,-5206.293621439021
1711437463741,-3112.2326785637997
1711437463782,-3342.3456226000562
1711437463821,-4198.483136141207
1711437463861,-5082.769863263238
1711437463901,-3945.811294934014
1711437463941,-2205.096302852966
1711437463982,-1388.6606073481962
1711437464022,1282.6664885887876
1711437464062,3550.2769091371447
1711437464102,4907.233447377104
1711437464142,6473.377605400747
1711437464183,8141.440747757675
1711437464222,7932.65476209647
1711437464262,-1221.9463314539753
1711437464302,-11358.111923127435
1711437464342,-14788.836024319287
1711437464383,-14643.346121069044
1711437464423,-13035.081751656486
1711437464463,-10945.681438685395
1711437464503,-10781.353807291016
1711437464543,-11777.908264005091
1711437464584,-13134.617692088243
1711437464623,-13005.582190447953
1711437464663,-11837.851224770304
1711437464704,-10346.176574815065
1711437464744,-8097.895162282977
1711437464785,-5920.482488709502
1711437464824,-3657.3683419250883
1711437464864,-1368.1795688997954
1711437464904,-82.97870678617619
1711437464944,1697.5446508410387
1711437464985,4011.678404686507
1711437465025,3020.553185054101
1711437465065,-6713.546251622029
1711437465105,-15118.072656000732
1711437465145,-18367.49175498751
1711437465186,-17218.359384592623
1711437465225,-14762.663338435581
1711437465265,-12315.62892781198
1711437465305,-11219.593499404611
1711437465346,-12218.656322817784
1711437465386,-12563.172621490201
1711437465426,-12004.16987065319
1711437465466,-10606.359649334103
1711437465506,-8560.978360938374
1711437465546,-5813.068012756761
1711437465587,-2902.148600475164
1711437465626,-696.3865208663046
1711437465666,1655.3823495623656
1711437465707,3420.8344538067468
1711437465747,5519.663071159739
1711437465788,8029.294077861123
1711437465827,8853.58950856165
1711437465867,2403.356638268102
1711437465907,-6457.639881319366
1711437465948,-11002.464780159993
1711437465988,-10860.310346256476
1711437466028,-8264.2512463585
1711437466068,-5545.420189913362
1711437466108,-3982.422431204468
1711437466148,-4789.906515499577
1711437466189,-5485.08624816034
1711437466228,-6237.357337723486
1711437466268,-3696.6914367601275
1711437466309,-1126.2066785281058
1711437466349,1447.2468265895732
1711437466389,3597.475175769767
1711437466429,6133.0601151934825
1711437466469,8310.250145868398
1711437466509,9384.71218534559
1711437466549,11805.964591999538
1711437466590,12639.151120346505
1711437466629,5287.3693579151295
1711437466670,-3962.60874756868
1711437466710,-8096.38423271291
1711437466750,-7837.267177505419
1711437466791,-5106.844630107051
1711437466830,-1750.95653016679
1711437466870,227.34540285123512
1711437466910,398.29385195323266
1711437466950,-759.5422807591967
1711437466991,-997.032806023024
1711437467030,-604.7839731075801
1711437467070,901.9451794419438
1711437467110,3687.748835182283
1711437467151,6518.643202763051
1711437467191,8918.073338507675
1711437467231,11152.387401997345
1711437467271,13206.189229076263
1711437467311,14957.840232581599
1711437467351,11143.640089114197
1711437467392,2438.956829963252
1711437467431,-2552.9136001840234
1711437467471,-3708.3539939769544
1711437467512,-1681.6177506740205
1711437467552,1167.5227143631782
1711437467592,4023.692089825636
1711437467632,4378.516538368072
1711437467672,3291.2511174194515
1711437467712,2288.5754230262246
1711437467752,2539.5902857012115
1711437467793,4853.333854340017
1711437467832,6365.0301952301525
1711437467873,8217.20342149306
1711437467913,10570.904631664045
1711437467953,12448.507325971732
1711437467994,13993.31598551292
1711437468033,16009.490230645053
1711437468073,12788.663391299779
1711437468113,2021.828977491241
1711437468153,-5311.914606749546
1711437468194,-7223.611185152549
1711437468234,-6092.572862448636
1711437468274,-3440.6094872872345
1711437468314,-381.2360690180212
1711437468354,955.4767582756467
1711437468395,647.9238429390825
1711437468434,-321.07569254003465
1711437468474,-324.8944243667647
1711437468514,1178.7015536539257
1711437468554,3145.379019574262
1711437468595,5495.1195574779995
1711437468634,7759.95475734584
1711437468675,9200.28494787938
1711437468715,11415.881367865019
1711437468755,13411.271789353807
1711437468796,15353.597496299772
1711437468835,10496.981429661158
1711437468875,264.2006011614576
1711437468915,-5667.606376847252
1711437468955,-5800.337105204351
1711437468996,-3518.5383778102696
1711437469036,-1492.2264015285764
1711437469076,-53.652829049155116
1711437469116,610.6338643345516
1711437469156,272.57500204630196
1711437469197,-143.09089602553286
1711437469236,1013.6144700238947
1711437469276,2639.328423072817
1711437469316,3546.6955481516197
1711437469356,6229.559192092856
1711437469397,7880.210117577575
1711437469437,10369.437908228952
1711437469477,11659.104156162124
1711437469517,12703.120223409962
1711437469557,14391.888563408516
1711437469598,12857.467543345876
1711437469637,4280.94601773005
1711437469677,-2663.137247988023
1711437469717,-4580.937931420747
1711437469757,-3324.7456695090514
1711437469798,159.28948163427413
1711437469837,2107.6194344502874
1711437469878,2290.3448448120616
1711437469918,1747.7806825642474
1711437469958,1225.0989390043542
1711437469999,546.3178138202056
1711437470038,1101.077983992407
1711437470078,2437.073152028024
1711437470118,3973.5335578753147
1711437470158,5714.623565744143
1711437470199,8378.094952949788
1711437470238,9478.1473090644
1711437470279,9290.882226943038
1711437470319,9277.802168440074
1711437470359,9756.18908721488
1711437470400,2897.493680779822
1711437470439,-7439.983881428372
1711437470479,-13993.078946583206
1711437470519,-15698.454559256788
1711437470559,-17020.940521092853
1711437470600,-13131.048103773268
1711437470640,-9453.722237859387
1711437470680,-7179.552622219082
1711437470720,-7397.798052889761
1711437470760,-7133.168599913828
1711437470801,-5827.0483538522385
1711437470840,-4237.178302449873
1711437470880,-2455.202078339178
1711437470920,-494.8859066753648
1711437470960,610.2083509922959
1711437471001,2458.129597690422
1711437471041,3789.317007501144
1711437471081,5268.719794529956
1711437471121,6495.2710039995145
1711437471161,95.55627313139848
1711437471202,-6374.859940715134
1711437471241,-9996.378558327444
1711437471281,-10006.044877912616
1711437471321,-7478.627918874612
1711437471362,-4981.693833243102
1711437471402,-2927.8201063824818
1711437471442,-2604.8004496293142
1711437471482,-4589.250619126018
1711437471522,-4353.33056501532
1711437471562,-2965.785348283127
1711437471603,-1595.7066952437162
1711437471642,386.24362160940655
1711437471682,2578.802272181958
1711437471723,4867.1896608104
1711437471763,5926.531558394432
1711437471804,6639.088976090774
1711437471843,8119.835684570484
1711437471883,-243.0940322112292
1711437471923,-8011.9045701180585
1711437471964,-12495.739667715272
1711437472004,-12874.31659228378
1711437472044,-11096.984838243108
1711437472084,-7942.226036164444
1711437472124,-6974.706890241709
1711437472164,-7130.543512511533
1711437472205,-7498.4334687485825
1711437472244,-7196.307149376953
1711437472284,-6575.392991743516
1711437472324,-4081.237771606073
1711437472364,-2033.3048721025698
1711437472405,143.21157771116123
1711437472445,2802.4363276008517
1711437472485,4141.832144571934
1711437472525,6513.8037764197215
1711437472565,7916.6289967997
1711437472606,1148.5871793073602
1711437472645,-9170.034124875674
1711437472684,-14255.062417304842
1711437472724,-14809.518314878456
1711437472764,-11696.889957020525
1711437472805,-9466.059919800842
1711437472845,-7589.641596097499
1711437472885,-7232.197020838736
1711437472925,-8128.977994357236
1711437472965,-8289.004297221778
1711437473006,-7459.2494014222175
1711437473046,-5598.580329607008
1711437473086,-3487.7855044966564
1711437473126,-1176.870844528079
1711437473166,1727.165444835322
1711437473207,3318.4898669747636
1711437473246,4438.673963319976
1711437473286,6866.5163225617725
1711437473326,8309.273095418466
1711437473366,1766.2766147921793
1711437473407,-8864.42333169654
1711437473446,-14174.201469623018
1711437473487,-15329.734653288266
1711437473527,-13538.613073433284
1711437473567,-10641.556035970803
1711437473607,-8625.788611126132
1711437473647,-8797.287377467379
1711437473687,-9418.14906890504
1711437473727,-10326.170704360353
1711437473767,-8979.3703056355
1711437473808,-7377.415642621927
1711437473847,-5380.535788518842
1711437473888,-2702.8160681757145
1711437473928,221.37411611760035
1711437473968,2392.941034959862
1711437474009,4976.967915555928
1711437474048,5796.566129255574
1711437474088,8301.936561347917
1711437474128,10922.44673552271
1711437474168,7504.524173879297
1711437474209,-2032.0635673962533
1711437474248,-8338.961140938336
1711437474288,-10171.560427186545
1711437474329,-8162.858208935941
1711437474369,-5557.609353129752
1711437474409,-3250.6325269127265
1711437474449,-2686.1621024440974
1711437474489,-2907.282000860898
1711437474529,-2750.8923172939103
1711437474569,-2576.3283112309873
1711437474610,-932.5249378008302
1711437474649,1352.8694542404264
1711437474689,4091.206507258583
1711437474729,5977.118823480792
1711437474769,8509.971158121945
1711437474810,10503.880803387612
1711437474850,11626.634360022843
1711437474890,13766.781716249883
1711437474930,15440.575579124968
1711437474970,14322.802137923427
1711437475011,7165.134929561289
1711437475050,729.1561666231137
1711437475090,-1979.7736542113125
1711437475130,-585.1573107684962
1711437475170,1604.626249217894
1711437475211,3958.2610773365013
1711437475251,5512.900266253622
1711437475291,4982.871758447494
1711437475331,4914.344821994193
1711437475371,4355.661270426819
1711437475412,5103.5541171729565
1711437475451,7440.535710010212
1711437475491,9632.41980953468
1711437475531,11976.831701602321
1711437475572,14200.31372329127
1711437475612,15763.337803245056
1711437475652,16890.27525156131
1711437475692,18600.276502446737
1711437475732,20615.261434221873
1711437475772,20707.95505578583
1711437475813,14698.523341720691
1711437475852,8235.503596193623
1711437475892,4379.86468211282
1711437475932,4779.136032259557
1711437475972,7025.329991790466
1711437476013,9494.380736806663
1711437476053,11173.196379770292
1711437476092,11396.952691262588
1711437476133,10513.679867289029
1711437476173,9353.592566652922
1711437476213,9608.427718833322
1711437476253,11242.473325056024
1711437476293,12720.087763653835
1711437476333,14106.58484216081
1711437476373,15399.759101219941
1711437476414,16995.729408954037
1711437476453,18673.91720456956
1711437476493,18951.508876481792
1711437476534,13617.649249215843
1711437476574,7489.787453447003
1711437476614,3731.055386249209
1711437476654,3809.8226669016294
1711437476694,5547.397093252279
1711437476734,7625.755596193951
1711437476774,9259.015665429644
1711437476815,9323.6124185347
1711437476854,8671.446150581818
1711437476895,8118.762408552226
1711437476935,8724.73977392912
1711437476975,9118.872416611295
1711437477016,10655.308558107587
1711437477055,11472.394579398446
1711437477095,12484.277874859516
1711437477135,14297.442322424613
1711437477175,15112.479867636925
1711437477216,9759.590469156858
1711437477255,2118.4526327229105
1711437477295,-2161.8197915903293
1711437477335,-2811.163692570757
1711437477376,-1171.4455634350888
1711437477416,1672.5455954850186
1711437477456,3014.337840457447
1711437477496,3779.0518850572407
1711437477536,2698.460134455934
1711437477576,1781.7645508632995
1711437477617,2056.261767322896
1711437477656,4201.4335358524695
1711437477696,5358.233985859668
1711437477737,6810.905531197786
1711437477777,8368.689742074348
1711437477817,9556.966793207917
1711437477857,10081.395821065176
1711437477897,6809.995985234622
1711437477937,-2931.5877404964995
1711437477977,-9485.326552862534
1711437478018,-11092.791671463754
1711437478057,-9863.64289727062
1711437478098,-7884.150176303927
1711437478137,-5749.27959316154
1711437478178,-5518.25305799651
1711437478219,-6301.218273257837
1711437478258,-6684.754196862923
1711437478298,-7064.738444372313
1711437478338,-4947.009356438415
1711437478378,-2691.057993539842
1711437478419,-1655.364637784427
1711437478459,845.4589553747792
1711437478498,2276.6124748704024
1711437478539,4010.161975020077
1711437478579,6092.727566458052
1711437478620,4316.231187865837
1711437478659,-4828.34559547808
1711437478699,-12883.082645654678
1711437478739,-15640.712661504513
1711437478779,-15100.67214705376
1711437478820,-13661.592928052647
1711437478860,-11490.39881865587
1711437478900,-10765.145748663694
1711437478940,-12090.323597545037
1711437478980,-12501.217319204006
1711437479021,-12524.087923448067
1711437479060,-10807.96628265665
1711437479100,-9222.09165800875
1711437479140,-6716.798758451827
1711437479181,-4658.547841389198
1711437479221,-2300.4741105467547
1711437479261,-1057.667443320388
1711437479301,1046.3773870891891
1711437479341,3185.771567293443
1711437479381,2330.0479857902974
1711437479422,-6075.159597712103
1711437479461,-13560.63901257515
1711437479502,-17078.601077315398
1711437479542,-16343.048271403648
1711437479582,-13543.483724148711
1711437479623,-10986.463039810536
1711437479662,-10065.642691067187
1711437479702,-9732.03188471985
1711437479742,-10894.073661947623
1711437479783,-10720.950176684186
1711437479823,-9757.914360433351
1711437479863,-8142.421357206069
1711437479903,-5324.273106134264
1711437479943,-2794.5449072383344
1711437479983,-877.1399550479837
1711437480024,925.5091508543119
1711437480063,3393.46067412477
1711437480104,5959.986190722324
1711437480144,6810.788874916732
1711437480184,966.379817828536
1711437480225,-7527.112257986795
1711437480264,-12256.501484426437
1711437480304,-11868.54494111659
1711437480344,-9699.83365121577
1711437480385,-6580.229575122474
1711437480425,-4403.382567434106
1711437480465,-3692.508597434964
1711437480505,-4886.642814772204
1711437480545,-4833.206767169293
1711437480585,-4055.218884464819
1711437480626,-2748.3442049389705
1711437480665,-49.89819340943359
1711437480705,2499.8136865319684
1711437480746,6426.9394875478465
1711437480786,8677.468735170085
1711437480826,10771.804881888907
1711437480866,8914.17764614732
1711437480906,369.9361681230366
1711437480946,-6212.191344000865
1711437480986,-8626.522303217323
1711437481027,-7271.08759201481
1711437481066,-3624.714388646651
1711437481106,-1066.545173040824
1711437481146,703.1325141997077
1711437481186,231.3287798706442
1711437481227,-306.6029050364159
1711437481267,194.18738346965984
1711437481307,2067.385403260356
1711437481347,3844.2979557851795
1711437481387,5482.448037405498
1711437481428,8122.54318844853
1711437481467,9145.59209220903
1711437481507,11098.847049781121
1711437481547,12990.86736004753
1711437481587,6823.359113710467
1711437481628,-1982.4839710155502
1711437481667,-6405.0476477756165
1711437481708,-6771.340824064333
1711437481748,-5035.869690884836
1711437481788,-2324.566485815216
1711437481829,45.513430549995974
1711437481868,345.79549241880886
1711437481908,-683.5027217585593
1711437481948,-1286.9400265431032
1711437481988,-246.88658162974752
1711437482029,1748.8135909391567
1711437482069,3506.336021307623
1711437482108,4889.709665530361
1711437482149,7143.466448263731
1711437482189,8449.240369198844
1711437482230,10543.750657135155
1711437482269,11086.065885329153
1711437482309,3066.156894638203
1711437482349,-7045.685693946201
1711437482389,-10959.09488732391
1711437482430,-11316.248065001331
1711437482469,-9679.475303910207
1711437482509,-7073.620804325212
1711437482550,-5514.699062352069
1711437482590,-5553.111292003654
1711437482630,-7300.381552663166
1711437482670,-7238.002508898266
1711437482710,-6167.256206228398
1711437482750,-3512.301073870389
1711437482790,-1725.5328693785705
1711437482831,16.51704891398549
1711437482870,2160.9140930855647
1711437482911,3861.2185308733024
1711437482951,5451.046624147799
1711437482991,7348.50453888718
1711437483032,6247.420463582734
1711437483071,-2499.821272149449
1711437483111,-9909.816151005216
1711437483151,-12093.310969341546
1711437483191,-11007.137940759072
1711437483232,-8210.32878182875
1711437483271,-6165.362903949805
1711437483311,-5130.235127088381
1711437483352,-5704.6958739706315
1711437483392,-6536.100559582468
1711437483432,-6578.992232643068
1711437483472,-4444.723881808575
1711437483512,-3046.5184360696003
1711437483552,-828.3283697934821
1711437483592,1797.5441611902788
1711437483633,4044.1850210214034
1711437483672,6460.373378514312
1711437483713,8101.668354188325
1711437483753,10227.00288400473
1711437483793,10234.48588907905
1711437483834,2570.5762319462374
1711437483873,-5136.621274376055
1711437483913,-7702.10551452497
1711437483953,-7075.952047351515
1711437483993,-4568.598424212774
1711437484034,-2102.2466558546294
1711437484073,-132.28865176951513
1711437484114,-88.60450290469453
1711437484154,-298.1461416739039
1711437484194,-147.31014686217532
1711437484235,553.0605713981204
1711437484274,1935.0385988205671
1711437484314,4236.649719046196
1711437484354,6198.404938426102
1711437484394,8207.991341342218
1711437484435,9499.239232771331
1711437484475,10477.66511607822
1711437484515,11537.412710844306
1711437484555,13419.405329959933
1711437484595,12338.007298215758
1711437484636,3762.6398459966294
1711437484675,-2771.822609855095
1711437484716,-5106.570974001894
1711437484756,-3869.5350571498275
1711437484796,-799.8947384364437
1711437484837,1826.979560329346
1711437484877,3405.795702253934
1711437484917,3078.002921767533
1711437484957,1540.0951437465847
1711437484997,2070.1866873349063
1711437485038,2351.6878177658655
1711437485077,3827.196559435688
1711437485117,6076.92775397934
1711437485157,7803.84570547333
1711437485198,9178.012846161146
1711437485238,10664.82122871885
1711437485278,12390.29902607156
1711437485318,14035.796486202162
1711437485358,9665.545020641293
1711437485398,1574.866817547474
1711437485439,-3131.7882637926377
1711437485478,-4168.8950808781665
1711437485518,-1540.3555526947603
1711437485559,1681.610275939107
1711437485599,4187.1412279373035
1711437485639,5435.19014842459
1711437485679,4678.498819700209
1711437485719,3944.0948495341
1711437485759,4212.586860320531
1711437485799,5648.32429464208
1711437485840,7133.619174659951
1711437485880,9322.725761544425
1711437485920,11463.388486480806
1711437485960,12181.999894653214
1711437486000,14656.674037535442
1711437486041,15092.638213032158
1711437486080,8476.358422197402
1711437486120,282.927387454547
1711437486161,-3893.9010160265025
1711437486201,-3812.9610906201415
1711437486241,-1808.6020393949002
1711437486281,562.4282479193062
1711437486321,2361.0458716074936
1711437486361,2998.9591498295777
1711437486401,1876.1458422378637
1711437486442,1519.2891198268626
1711437486481,1977.2740613976493
1711437486522,3895.2768068220466
1711437486562,5119.216561032925
1711437486602,6444.728426799178
1711437486643,9181.27071795077
1711437486682,9887.719360781368
1711437486722,11611.380982882576
1711437486763,13044.420370101929
1711437486803,6138.3694497749675
1711437486843,-3842.0590828757267
1711437486883,-8719.74385264772
1711437486923,-9664.184634123929
1711437486963,-8005.161233850755
1711437487003,-5584.346789539792
1711437487044,-3459.033447765745
1711437487084,-3806.778215426719
1711437487124,-5407.229809092358
1711437487164,-5904.9803390922025
1711437487204,-5755.041627944447
1711437487245,-3456.4172836765647
1711437487284,-1868.3032097173855
1711437487324,781.6275450126268
1711437487365,2526.2914572283626
1711437487405,4115.658925231779
1711437487445,5441.484123896575
