Timestamp,Cleaned_PPG
1712819459558,0.0
1712819459596,0.0
1712819459637,0.0
1712819459676,0.0
1712819459716,0.0
1712819459756,0.0
1712819459797,0.0
1712819459838,0.0
1712819459877,0.0
1712819459917,0.0
1712819459957,0.0
1712819459997,0.0
1712819460039,0.0
1712819460078,0.0
1712819460118,0.0
1712819460158,0.0
1712819460198,0.0
1712819460239,0.0
1712819460279,0.0
1712819460319,0.0
1712819460359,0.0
1712819460399,0.0
1712819460440,0.0
1712819460479,0.0
1712819460519,0.0
1712819460560,0.0
1712819460599,0.0
1712819460641,0.0
1712819460680,0.0
1712819460720,0.0
1712819460760,0.0
1712819460800,0.0
1712819460841,2203725.0
1712819460880,2067804.4448917937
1712819460921,1939894.7879594774
1712819460961,1820759.3613849478
1712819461001,1710183.0841809069
1712819461042,1606805.2771370127
1712819461081,1510497.543473133
1712819461121,1420396.5407941886
1712819461161,1336212.3101571365
1712819461201,1257984.6286309073
1712819461242,1183914.1000010297
1712819461282,1114900.1906969573
1712819461322,1050444.1903878492
1712819461362,989332.754794209
1712819461402,933103.9692992263
1712819461443,879394.8508719872
1712819461482,827391.4470673224
1712819461522,773368.6275339127
1712819461562,719130.6213095887
1712819461602,670692.9484401306
1712819461644,625017.7363043162
1712819461683,583524.5373995984
1712819461723,547301.7718486064
1712819461766,512986.95023560245
1712819461803,481922.0709523293
1712819461844,453112.01356591284
1712819461883,428281.7999678408
1712819461923,403728.5143729658
1712819461963,381358.2667163233
1712819462004,360762.6924602685
1712819462045,336821.90919906786
1712819462084,306432.4647848755
1712819462124,275241.0409733099
1712819462164,241397.66373526677
1712819462204,213450.3096099971
1712819462245,192427.41092635226
1712819462284,186043.7449608387
1712819462325,182300.84218818787
1712819462365,165735.89569901768
1712819462405,156076.43601901922
1712819462446,135635.48602915555
1712819462485,114064.29678046983
1712819462525,101065.18358764239
1712819462565,105079.59525157278
1712819462606,107883.44701837935
1712819462647,111532.22176477313
1712819462686,115953.49443094293
1712819462726,115311.23670254787
1712819462766,113902.79817177821
1712819462806,104816.8292908473
1712819462847,100133.72247249959
1712819462887,93951.48112988938
1712819462927,89012.61171384249
1712819462967,87299.991250013
1712819463007,88089.04790647794
1712819463048,90006.21178599074
1712819463087,90932.15420179907
1712819463127,94811.41097407369
1712819463167,96418.55471481942
1712819463208,95291.62106269319
1712819463249,91069.30718431342
1712819463288,88862.97784050927
1712819463328,88717.87940690573
1712819463368,96349.11475069914
1712819463408,116695.78991136514
1712819463449,150928.01451254264
1712819463489,184859.72165041696
1712819463529,213231.62112023495
1712819463569,226045.80852492875
1712819463609,226316.37194623053
1712819463650,228097.33402110357
1712819463689,209820.06327844085
1712819463729,186600.48020326067
1712819463769,141084.35703979246
1712819463810,86567.25761888176
1712819463850,33105.888450025115
1712819463890,-16572.309344459325
1712819463930,-37405.9029641496
1712819463973,-44496.65699996147
1712819464011,-41574.11219054926
1712819464052,-42740.312434447
1712819464091,-36125.81078671664
1712819464132,-45562.250919151586
1712819464172,-59266.296546907164
1712819464212,-71941.94448513817
1712819464253,-82914.42306991015
1712819464293,-92020.17969518993
1712819464333,-105282.41965522803
1712819464373,-104213.34207416419
1712819464414,-118794.2373611601
1712819464454,-119849.02032280061
1712819464494,-122218.36489771074
1712819464534,-118575.91932291538
1712819464574,-117658.66737579368
1712819464615,-112241.79785828898
1712819464656,-102657.29666370805
1712819464695,-99903.89876946062
1712819464735,-121551.67699709255
1712819464776,-148955.6195202223
1712819464816,-171765.7663180614
1712819464857,-181286.34014680004
1712819464897,-185425.64629920665
1712819464937,-207255.86027122755
1712819464977,-208800.27471805643
1712819465017,-201225.0333426483
1712819465058,-169405.6458998178
1712819465098,-127974.94682609802
1712819465138,-99537.97641495056
1712819465178,-64405.36622718349
1712819465219,-56225.007528080605
1712819465260,-59243.81560060172
1712819465299,-65222.50873750681
1712819465339,-65155.9823227569
1712819465380,-65035.341995762894
1712819465420,-51308.33949375898
1712819465460,-46452.28678648034
1712819465500,-45236.50467852061
1712819465540,-43841.23592258943
1712819465580,-45958.17160646105
1712819465621,-47827.27673151693
1712819465661,-46958.26746734837
1712819465701,-38910.259733677376
1712819465741,-48904.321758700535
1712819465781,-61166.88272554055
1712819465821,-75534.12405615556
1712819465862,-86388.89111414552
1712819465902,-104206.11912786844
1712819465942,-127897.73288411042
1712819465982,-145316.1981416503
1712819466022,-138121.84956337744
1712819466063,-129685.87811819138
1712819466103,-120813.20629630424
1712819466143,-119181.9830032452
1712819466183,-107365.94926633546
1712819466223,-76965.21081373002
1712819466264,-63329.98452275852
1712819466303,-39737.37311056
1712819466344,-69414.70465142839
1712819466384,-60515.68172162492
1712819466424,-26640.047169604804
1712819466465,-18242.30887980014
1712819466505,-18164.983915171353
1712819466545,-8875.125006327406
1712819466585,4921.168965732679
1712819466625,13112.651802017586
1712819466666,12993.713521757629
1712819466706,-1527.7709708581679
1712819466746,-12857.097308743745
1712819466786,-21788.96480389079
1712819466827,-30374.771855445113
1712819466867,-33877.319456545636
1712819466907,-29620.17546696239
1712819466947,-33151.97756943246
1712819466988,-29177.211897723842
1712819467029,-22990.16600337648
1712819467070,-24203.08334199316
1712819467109,-24497.64584222529
1712819467149,-22381.582170010544
1712819467190,-16398.240855013486
1712819467230,-8404.65888946876
1712819467271,-1038.868550003972
1712819467310,2830.307430794928
1712819467351,5950.769086396787
1712819467391,9222.278667319566
1712819467431,12782.1126189176
1712819467472,12039.37118732743
1712819467512,-2677.331115412526
1712819467552,-15866.634673018474
1712819467592,-37205.23828266794
1712819467632,-4235.492235831451
1712819467673,-2655.2532963135745
1712819467713,-23674.292910424294
1712819467753,-19850.926588112256
1712819467794,-5434.905004910193
1712819467834,-2053.223451347556
1712819467875,-2284.1718959771097
1712819467914,2714.5096870106645
1712819467954,7569.702486665687
1712819467995,11085.769242979586
1712819468035,16255.225573027274
1712819468076,21266.661203064956
1712819468115,25102.351110705175
1712819468156,29089.290202582255
1712819468196,33592.50181593886
1712819468236,36828.64142313786
1712819468277,39817.27078630915
1712819468317,43446.371674631024
1712819468357,47102.58404890541
1712819468397,49532.90024572681
1712819468437,42605.1870181635
1712819468478,28879.070018929662
1712819468518,17335.134548783768
1712819468558,8822.08334791381
1712819468598,1917.7086134636775
1712819468639,-2462.977489602752
1712819468680,-3708.58682543505
1712819468719,-3526.9968905462883
1712819468760,-3340.298865778139
1712819468800,-2226.7762671769597
1712819468840,234.5210265982896
1712819468881,4482.632450020872
1712819468920,9450.20076058642
1712819468960,13354.230479562422
1712819469001,16412.604445610894
1712819469041,20277.275312379934
1712819469081,24103.331488057273
1712819469121,28956.369832813274
1712819469161,33341.25840963703
1712819469201,36954.970579204615
1712819469242,41483.76851544669
1712819469282,46036.62950247037
1712819469322,41578.73769814754
1712819469362,30267.11002880754
1712819469402,20341.44570323266
1712819469442,13247.501748631708
1712819469483,7523.726951403078
1712819469523,3623.68249059096
1712819469563,-696.7484612809494
1712819469603,-12207.91464604251
1712819469643,-20805.391242743004
1712819469684,-23991.500192583073
1712819469724,-4556.218453627545
1712819469764,12557.375454410212
1712819469804,22992.879970605485
1712819469844,35250.694462843705
1712819469885,50685.60411710013
1712819469925,59407.246283401735
1712819469965,70378.43433126225
1712819470005,82512.37129231589
1712819470045,95178.97708329675
1712819470086,100488.53198438487
1712819470126,89820.64442362683
1712819470166,58336.09512550989
1712819470206,55394.20993885677
1712819470247,54460.127290717326
1712819470288,42011.424798486056
1712819470328,28130.01376264752
1712819470369,16628.56204146752
1712819470409,13403.74178402382
1712819470449,12459.506868459051
1712819470490,9064.574165923987
1712819470530,5389.42005342897
1712819470570,3391.0453786714934
1712819470610,3751.941743798321
1712819470650,6666.651286682347
1712819470692,9852.146033284022
1712819470731,12928.75836385414
1712819470771,16896.730907923775
1712819470812,20978.399738815147
1712819470852,28443.070531939622
1712819470893,43974.38214384834
1712819470932,55098.36006108485
1712819470972,57097.84976722812
1712819471013,33375.906456816476
1712819471053,14722.48203360429
1712819471094,1782.4736627014354
1712819471133,-15783.4692900558
1712819471174,-40004.2225357173
1712819471214,-54228.90393535467
1712819471254,-83635.44199701864
1712819471295,-118347.66872119019
1712819471335,-130037.54706898611
1712819471375,-117691.31056488678
1712819471415,-86199.31529053021
1712819471455,-37053.92166926293
1712819471496,-2904.802458022721
1712819471536,26638.613201763248
1712819471576,55956.29126868164
1712819471614,64650.18543504225
1712819471654,61946.883723535575
1712819471695,-2275.1970339871477
1712819471735,12768.380080920877
1712819471775,17813.652706447756
1712819471815,18663.01048713387
1712819471855,2228.3681145880837
1712819471896,4520.399546931731
1712819471936,9040.827432591934
1712819471976,11960.583415569272
1712819472016,15416.429658092558
1712819472056,18908.26773062139
1712819472097,21231.743323151022
1712819472137,22038.007194182603
1712819472177,22297.06410957547
1712819472217,26582.728840898722
1712819472257,31574.107480237726
1712819472298,35180.709977637045
1712819472337,37163.54966903478
1712819472378,36007.068531610304
1712819472418,41893.61832328234
1712819472458,56484.17364317272
1712819472499,65572.88264626986
1712819472538,85017.20255073765
1712819472578,110249.29585487442
1712819472619,116094.09791492904
1712819472659,105805.17191851372
1712819472700,91020.05120890308
1712819472741,73240.08800497022
1712819472781,39431.79451190308
1712819472821,6883.64637917513
1712819472861,-14706.33837390272
1712819472902,-15205.463318627793
1712819472942,-7331.153122099116
1712819472982,61682.60609276127
1712819473022,55738.70177023113
1712819473062,64215.971249906346
1712819473103,63540.04239206808
1712819473143,83984.98065728601
1712819473183,78509.66589974519
1712819473223,82633.2308759694
1712819473263,78651.59306281433
1712819473304,63472.40076742321
1712819473344,45300.401206124574
1712819473384,23992.28235839121
1712819473424,-16473.93845675094
1712819473465,-34872.38961862726
1712819473506,-53706.63991310308
1712819473545,-59103.08904751018
1712819473585,-45767.63163842121
1712819473625,-15220.573141345754
1712819473666,19040.115600198507
1712819473708,34848.892572879326
1712819473747,38047.28700558096
1712819473787,36728.525854602456
1712819473828,36331.28148883302
1712819473868,32603.237875638064
1712819473909,25138.29465416167
1712819473948,14591.976943427697
1712819473988,22545.40172235854
1712819474029,27505.865589806344
1712819474069,22149.360301032662
1712819474110,4822.667044001631
1712819474149,-1464.810370033607
1712819474190,-4299.245441806968
1712819474230,-3153.42918523401
1712819474270,-14984.530353087932
1712819474311,-22271.22462991206
1712819474351,-22118.332255828194
1712819474391,-22962.172343670856
1712819474431,-17061.22979508061
1712819474472,-10833.923750879243
1712819474513,-9178.363731737249
1712819474552,-9525.562973963097
1712819474592,-6130.5926231206395
1712819474633,1136.1404688041657
1712819474673,14215.440340051427
1712819474714,51348.089717403054
1712819474754,73616.7641315083
1712819474794,90873.30144770374
1712819474834,88594.34227956552
1712819474874,57354.90038989391
1712819474916,15703.455891759135
1712819474955,-22374.505839681253
1712819474995,-40641.839674738236
1712819475036,-43775.17366078962
1712819475076,-33616.0794306742
1712819475117,-24527.042928517796
1712819475156,-9580.812116311397
1712819475196,7791.617296707351
1712819475236,26491.50999385817
1712819475277,33034.938185485546
1712819475318,21203.25455333013
1712819475357,23906.54706073273
1712819475397,31871.648716298863
1712819475437,25542.904316831846
1712819475477,30411.24941519508
1712819475518,32036.113258006517
1712819475558,45858.53125556465
1712819475598,48167.20066605136
1712819475638,38048.06999326078
1712819475678,22835.99439858226
1712819475719,11027.075891552493
1712819475759,-287.43998530413955
1712819475799,-7787.028356811963
1712819475839,-16043.233691453934
1712819475879,-23201.26789219305
1712819475920,-26120.9835013235
1712819475959,-26251.696365658194
1712819476000,-30702.831659911666
1712819476040,-45157.868622866925
1712819476080,-37379.301332755014
1712819476121,-30093.546927336603
1712819476160,-22376.965096288826
1712819476201,-18224.496291379444
1712819476241,-14446.53944286285
1712819476281,-9326.330086763017
1712819476322,-10935.54813103797
1712819476362,-10189.117938064039
1712819476402,-7768.470282348804
1712819476442,-754.1694041802548
1712819476482,4265.281382952351
1712819476523,7803.552824569866
1712819476563,-2763.7674057288095
1712819476603,7847.825768437237
1712819476643,5896.9989315494895
1712819476683,6016.775413032621
1712819476724,11589.90070031304
1712819476764,10694.414512977004
1712819476804,5421.459514008369
1712819476845,1111.0201275181025
1712819476885,3038.9938732795417
1712819476926,7779.638020589948
1712819476965,10795.741769786458
1712819477005,10416.103217225522
1712819477047,12633.554220126942
1712819477087,15681.45498530427
1712819477128,16820.16734371707
1712819477167,23688.931169728283
1712819477208,29231.373627878726
1712819477248,22624.104935857467
1712819477288,30572.684715199284
1712819477329,42797.51883037388
1712819477369,43845.41685232986
1712819477409,46821.33409840893
1712819477449,50584.27360026399
1712819477489,47336.81495734444
1712819477531,43673.11912605539
1712819477570,37568.68653682666
1712819477610,33631.880642493255
1712819477651,29875.196366957854
1712819477691,27829.980468388647
1712819477732,23643.740271131508
1712819477772,20631.563330960926
1712819477812,16675.961476463825
1712819477852,17640.23789485218
1712819477892,17509.46628226433
1712819477933,17023.865982381627
1712819477973,17262.75721055176
1712819478013,18553.947885462083
1712819478053,16374.567908804398
1712819478093,20820.745627603494
1712819478134,21558.789661445655
1712819478174,24602.28805101104
1712819478214,25477.75558886351
1712819478255,26688.36786299292
1712819478295,15602.066703927703
1712819478336,3057.0095830564387
1712819478376,-9383.486599915661
1712819478416,-13086.84539832361
1712819478456,-19754.97912233509
1712819478496,-22239.45829589758
1712819478537,-12759.297088614665
1712819478576,-15755.841831622645
1712819478616,-14755.362655940466
1712819478657,-14358.410853106529
1712819478697,-12633.866771691013
1712819478738,-13592.665108446963
1712819478777,-11253.771703897975
1712819478817,-8343.682354918681
1712819478857,-6300.004414474126
1712819478898,-4232.590891638771
1712819478938,-2825.881737964228
1712819478978,-553.3868032707833
1712819479018,2195.4445358724333
1712819479058,4374.3403585092165
1712819479099,7865.340189489536
1712819479140,10293.351167597808
1712819479179,11153.153999197762
1712819479219,-1621.1583973430097
1712819479259,-19219.041461918503
1712819479299,-30982.68032031879
1712819479340,-38575.07553747995
1712819479380,-46351.55085989088
1712819479420,-49303.73707606271
1712819479460,-51251.6129761748
1712819479501,-53476.35733991023
1712819479541,-53222.30377043551
1712819479581,-52357.35808557272
1712819479621,-51206.98569948925
1712819479661,-49359.70059551392
1712819479701,-45395.85573946778
1712819479743,-39365.55268797744
1712819479782,-32695.364326464478
1712819479822,-31236.076976163313
1712819479863,-18569.372735409997
1712819479903,-11779.156206350774
1712819479944,-3970.2444962235168
1712819479983,1137.4120240476914
1712819480023,8418.459774914663
1712819480064,11289.56200695876
1712819480104,10011.307951804716
1712819480145,-669.105864496436
1712819480184,-6680.625037157442
1712819480225,-9081.17394997552
1712819480265,-15231.056324948557
1712819480305,-20441.86170486454
1712819480346,-28055.35878990311
1712819480386,-27393.791446942836
1712819480427,-25770.879133619368
1712819480468,-24582.080133799464
1712819480508,-23043.306596519426
1712819480549,-20995.430916514248
1712819480588,-20568.5862411391
1712819480628,-19160.66385619715
1712819480669,-16339.103577971924
1712819480709,-15019.195018834434
1712819480750,-13476.585285952315
1712819480789,-13167.469372417778
1712819480830,-10982.052767583635
1712819480870,-8093.761122522876
1712819480910,-4153.439383699559
1712819480951,-27619.241058610845
1712819480991,-31094.661902492866
1712819481031,-50913.65380445868
1712819481071,-52208.8597462615
1712819481111,-48099.08688313654
1712819481152,-50991.13921990199
1712819481192,-50548.76854367461
1712819481232,-52256.164697439875
1712819481273,-51545.07937791105
1712819481313,-57283.464225460775
1712819481354,-55067.015760635026
1712819481393,-49725.660963595845
1712819481434,-38209.18980526645
1712819481474,-35053.283970536664
1712819481514,-33106.4635170633
1712819481555,-24034.07733338466
1712819481594,-25128.384151807986
1712819481635,-15714.761137850583
1712819481675,-8565.96190383751
1712819481715,-3364.011634520255
1712819481756,-2746.0385151389055
1712819481796,-16319.173146761954
1712819481836,-33705.981739478186
1712819481876,-46222.95041888673
1712819481916,-61454.60251994198
1712819481957,-68946.03889650246
1712819481996,-68851.60567283584
1712819482037,-66489.19929297268
1712819482077,-60451.933653791435
1712819482117,-59250.241730128415
1712819482158,-56935.469150209334
1712819482197,-54825.59401011327
1712819482237,-27238.84082964156
1712819482278,-15300.526864928892
1712819482318,10520.910571670625
1712819482359,15427.715846122941
1712819482398,15632.201627006754
1712819482438,23315.07353302557
1712819482478,31838.85608244501
1712819482519,41145.50763390586
1712819482559,42977.85911781341
1712819482599,55118.412887792336
1712819482639,49011.49359877524
1712819482679,44456.58622924518
1712819482719,21616.490082298405
1712819482761,26634.53668631427
1712819482800,34065.85212158598
1712819482840,41372.878652223386
1712819482881,60693.94464191701
1712819482921,72313.6284130821
1712819482962,73162.20228376728
1712819483001,59447.033543027006
1712819483041,59919.7396283322
1712819483082,10193.84499937389
1712819483122,18208.541265904903
1712819483163,9423.140396406874
1712819483202,14028.295942779165
1712819483243,15615.048821103293
1712819483283,11087.22988995025
1712819483323,9070.44313603267
1712819483364,11596.051419800147
1712819483404,18394.329814417288
1712819483444,14924.806610361673
1712819483484,5692.984449985437
1712819483524,-5510.655214893166
1712819483565,-13343.703271844424
1712819483605,-22990.439189339057
1712819483645,-22004.000649375375
1712819483690,-17027.20817120839
1712819483730,-21323.15072979778
1712819483771,-21660.461540523916
1712819483811,-25942.180529863108
1712819483851,-21223.60407255683
1712819483891,-20717.02409312129
1712819483931,-5303.6627233875915
1712819483972,2898.2402541111223
1712819484011,16528.3385648299
1712819484051,13423.581646448001
1712819484092,15918.013621529564
1712819484132,20079.431303034537
1712819484172,10422.692387758754
1712819484212,-10577.671482501086
1712819484252,-30701.369831893593
1712819484292,-34561.38300532801
1712819484333,-47288.14626937872
1712819484373,-8214.45512671629
1712819484413,-23583.741127374582
1712819484453,-19700.245291247033
1712819484493,-22034.86816376215
1712819484533,-23758.694576711394
1712819484574,-22952.875246434473
1712819484613,-21337.340308410116
1712819484654,-20820.204952769214
1712819484694,-19819.648971669376
1712819484734,-16205.074890553951
1712819484775,-15493.641470083036
1712819484814,-11567.848613307811
1712819484854,-9425.94584158808
1712819484894,-5454.3427062504925
1712819484935,-3299.6946631879546
1712819484975,-2804.0796981672756
1712819485015,-7701.572944649728
1712819485055,-20446.101139388047
1712819485095,-29822.313092468306
1712819485135,-38810.66863232711
1712819485176,-44582.80603184947
1712819485215,-46649.51678769919
1712819485256,-46516.81166595174
1712819485296,-47524.02617908968
1712819485336,-48464.555919456296
1712819485377,-45098.128795530414
1712819485416,-45736.28802549513
1712819485456,-40062.89256635541
1712819485497,-31883.064959777053
1712819485537,-27160.874111963436
1712819485578,-21549.520932453685
1712819485617,-19470.35883962689
1712819485657,-12370.381074360339
1712819485697,-13629.03145093238
1712819485738,-20951.589148606174
1712819485779,-29148.954931367654
1712819485818,-38661.33993567806
1712819485859,-37796.16884870501
1712819485899,-32569.13440692844
1712819485939,-28881.965061161667
1712819485980,-27892.407710446045
1712819486020,-25861.92589677195
1712819486060,-22493.161641535815
1712819486100,-18965.16981640854
1712819486140,-15607.832612761296
1712819486181,-8596.275773666799
1712819486220,-12312.744862941792
1712819486261,-3369.205185910221
1712819486301,-8313.812407529913
1712819486341,-14047.262601349503
1712819486382,-16016.993094217498
1712819486421,-24540.09164981963
1712819486461,-20653.623594996985
1712819486502,-31248.873495920794
1712819486542,-19241.639207911678
1712819486582,-1828.336105497554
1712819486622,-35821.30333993258
1712819486662,-118631.63714509364
1712819486702,-129813.26260206266
1712819486743,-110571.43854817515
1712819486783,-94730.9214724563
1712819486823,-92591.87688781903
1712819486863,-97693.34070374165
1712819486903,-92958.39182261238
1712819486944,-88893.39758125716
1712819486985,-87107.93516960857
1712819487024,-84995.32087270077
1712819487064,-79351.84478608496
1712819487105,-71962.62332686596
1712819487145,-73960.65359806758
1712819487185,-84885.92799956677
1712819487225,-95106.23028117651
1712819487265,-100779.06073083682
1712819487305,-103378.66178599792
1712819487346,-103383.99169118423
1712819487387,-100139.71788981697
1712819487426,-97521.34527659905
1712819487467,-97813.74156645732
1712819487507,-87309.2860269812
1712819487547,-91994.54235193925
1712819487588,-86104.64863476856
1712819487627,-78685.35760950949
1712819487668,-72100.2025063124
1712819487708,-65922.31065991241
1712819487748,-71203.86094764853
1712819487789,-58081.61020251131
1712819487829,-60225.06507313764
1712819487869,-81950.34887535963
1712819487909,-51246.69550489308
1712819487950,26263.637646221556
1712819487991,32184.14174100384
1712819488030,13115.232350755716
1712819488070,3537.697378332261
1712819488111,9974.498274023179
1712819488151,21018.94917427795
1712819488192,22913.54198257043
1712819488231,21093.98811443802
1712819488271,24099.04812373547
1712819488312,27748.96765366709
1712819488352,30967.673112297663
1712819488393,33550.110611671116
1712819488433,37531.06811883114
1712819488473,41418.85025084298
1712819488513,39195.17724644393
1712819488553,29025.88516209158
1712819488596,17218.188729892718
1712819488636,10399.157047723886
1712819488676,6754.574804821517
1712819488716,7665.501271922141
1712819488757,10638.632628886495
1712819488798,9768.008266753284
1712819488837,9103.785065324279
1712819488877,10928.298421433428
1712819488918,13928.92751992005
1712819488958,17409.73397852294
1712819488999,20522.807304173242
1712819489038,20995.697533651488
1712819489078,25728.192432705313
1712819489119,30330.776648950297
1712819489159,36141.17570683174
1712819489200,32602.182354946155
1712819489239,20583.239217079245
1712819489280,12784.405328779016
1712819489320,9834.048922573682
1712819489360,5496.612221260089
1712819489401,3031.8346449520905
1712819489440,2727.5284066735767
1712819489480,2906.982610990526
1712819489521,4033.8676940170117
1712819489561,6777.557118053082
1712819489601,9326.969928938895
1712819489641,12210.364635244943
1712819489681,14922.282096176874
1712819489721,18643.9380308846
1712819489762,22247.679006812163
1712819489802,25148.11616784823
1712819489842,28324.80188091239
1712819489882,31393.02629665984
1712819489922,26504.82010162319
1712819489962,16720.20654488867
1712819490003,10282.326054075966
1712819490043,6493.469709250843
1712819490083,4108.428054465214
1712819490123,3718.606088908389
1712819490163,4388.1179222431965
1712819490204,5216.057782418327
1712819490244,5806.960314231459
1712819490284,7956.6945250649005
1712819490324,10237.968235356733
1712819490365,12966.826221025782
1712819490405,16395.21576538682
1712819490445,19865.45894001471
1712819490485,23509.23965333216
1712819490525,26993.84770936449
1712819490566,31034.33116275724
1712819490607,33545.25878042914
1712819490646,35846.969775168225
1712819490686,30514.10921200202
1712819490727,22341.271777385846
1712819490767,16720.24531929847
1712819490808,13762.431666445453
1712819490848,10831.946983186994
1712819490888,9498.521365239285
1712819490928,8997.138253275305
1712819490968,9218.82346134074
1712819491009,8771.183699375717
1712819491049,9639.58403021004
1712819491089,12137.458858497906
1712819491129,14346.76145093143
1712819491169,17381.43192684464
1712819491211,20051.298593222164
1712819491250,22934.40173298167
1712819491290,25438.555566513212
1712819491331,26958.512524693506
1712819491371,29637.731816823594
1712819491412,32185.611394003034
1712819491453,29576.916154617677
1712819491493,21048.636969367508
1712819491533,13463.040299804416
1712819491573,9268.760422948748
1712819491614,6485.550875048619
1712819491654,5362.2861492419615
1712819491694,5553.340189828072
1712819491734,5853.524157550186
1712819491775,5369.032431611326
1712819491816,5929.090054361615
1712819491855,6480.474275535438
1712819491895,8821.448284320766
1712819491936,10915.394957824145
1712819491976,13524.321196807083
1712819492017,15996.039684352698
1712819492057,18409.669376400998
1712819492097,20612.633223812794
1712819492137,23166.891746743582
1712819492177,29799.78601268097
1712819492218,30684.13601960172
1712819492258,23975.945842907764
1712819492298,15466.577769220341
1712819492338,9815.694041116163
1712819492378,6568.472320087021
1712819492419,4871.1060305438
1712819492459,3888.8455049132463
1712819492499,4312.443754031556
1712819492539,4315.269039341016
1712819492579,3760.782009688206
1712819492620,4664.373749752063
1712819492660,5994.990829287097
1712819492700,8045.668290899368
1712819492740,10511.0026419051
1712819492780,12452.207676028367
1712819492821,14638.075563156744
1712819492860,16258.496095088078
1712819492901,18541.726964634145
1712819492941,20180.093611515127
1712819492981,21680.987031972967
1712819493022,24103.972115451004
1712819493061,26849.856282693334
1712819493101,22759.104327149922
1712819493142,14383.771961512044
1712819493182,7293.13780200202
1712819493223,4011.23490133835
1712819493262,1507.4420571501832
1712819493302,915.7029599933885
1712819493343,-267.7216331453528
1712819493383,-2574.1543153147213
1712819493424,-5054.458064880688
1712819493463,-5522.720220772317
1712819493504,-4315.52127168118
1712819493544,-2631.1925440824125
1712819493584,-545.0997582520358
1712819493625,306.97499954514205
1712819493664,239.63594246376306
1712819493705,1249.4793622544967
1712819493745,2891.3965260921977
1712819493785,5206.654147977475
1712819493826,7422.361184595153
1712819493867,7710.632726149168
1712819493907,111.22442511701956
1712819493947,-9554.588797821663
1712819493988,-16960.988032850204
1712819494029,-20587.23294186918
1712819494068,-22883.015290190233
1712819494108,-21735.491658753715
1712819494149,-19787.806089550722
1712819494189,-17973.97076204745
1712819494230,-16623.73155016615
1712819494269,-13589.640379455639
1712819494310,-10642.263902954059
1712819494350,-7588.792200197
1712819494390,-4516.60620845505
1712819494431,-693.8806685698219
1712819494471,2791.9283918794245
1712819494511,5283.622960656183
1712819494551,8294.200822032057
1712819494591,10749.817056314321
1712819494632,13502.556249288842
1712819494672,15644.15133092599
1712819494712,18099.820439931937
1712819494752,11924.038457529154
1712819494792,33.017185389995575
1712819494834,-9592.417450241279
1712819494873,-16534.08797442587
1712819494913,-20814.946965321433
1712819494954,-23814.81257503247
1712819494994,-25897.27131035831
1712819495035,-26384.046790933702
1712819495074,-27969.335885970388
1712819495115,-28166.91915779817
1712819495155,-27166.44774495042
1712819495195,-24569.67525564879
1712819495236,-20882.918920934433
1712819495276,-16725.627460406628
1712819495316,-13411.792966236826
1712819495356,-8997.579983537318
1712819495396,-6197.177893142216
1712819495438,-3116.9104080281686
1712819495477,-588.6049708251376
1712819495517,2603.5798432687297
1712819495558,5919.471978386631
1712819495598,9135.039011592977
1712819495638,12460.83377423021
1712819495678,15081.653338421602
1712819495718,10032.394917394035
1712819495753,-2881.752281599678
1712819495793,-15108.649591796566
1712819495834,-22844.633522533346
1712819495874,-28114.22696230584
1712819495914,-31900.03532665549
1712819495954,-33697.824894277146
1712819495994,-36292.01317865937
1712819496035,-38308.88526162342
1712819496074,-39277.4735430642
1712819496114,-38468.12480573938
1712819496154,-36727.39500190504
1712819496194,-34422.56529152184
1712819496235,-31531.85537240049
1712819496275,-28238.36342723202
1712819496315,-25789.983509727288
1712819496355,-22099.218418460805
1712819496395,-18131.060920656426
1712819496436,-14863.949426318519
1712819496476,-11742.765936069423
1712819496516,-8191.174047501758
1712819496556,-4132.7002322622575
1712819496596,441.14783798391
1712819496637,-3173.8988364257384
1712819496677,-13994.845980837476
1712819496717,-25009.25351236295
1712819496757,-30703.485338268336
1712819496797,-34428.164118206594
1712819496838,-36654.008195793256
1712819496878,-36175.33589082956
1712819496918,-35422.17653683876
1712819496958,-34761.531953401165
1712819496998,-32887.01328408066
1712819497039,-29944.462234372273
1712819497079,-26653.541250252863
1712819497119,-22822.86667159316
1712819497159,-19250.10607741261
1712819497200,-15547.159212553175
1712819497243,-11757.852202384034
1712819497282,-8094.550386726391
1712819497322,-3861.8985025393777
1712819497363,71.35542554594576
1712819497403,3930.454983239528
1712819497444,7569.108554441249
1712819497483,11025.494169848971
1712819497523,12591.11893724394
1712819497564,5644.195689257234
1712819497604,-6410.137900013709
1712819497645,-15985.488839501515
1712819497684,-21938.794914195314
1712819497725,-26841.276563067455
1712819497765,-29732.634180218447
1712819497805,-30603.344980876427
1712819497846,-30827.595522424206
1712819497886,-31967.039878427517
1712819497926,-31092.788828885183
1712819497966,-28936.326534430496
1712819498006,-25760.110957402037
1712819498047,-23005.958217651583
1712819498087,-18892.68076015031
1712819498127,-15062.636966313701
1712819498168,-11330.564478907268
1712819498208,-7831.5371797515545
1712819498249,-4306.742043782491
1712819498289,-917.8184311287478
1712819498329,2915.472008598037
1712819498369,6221.200478433166
1712819498409,9399.134493724443
1712819498450,13310.21938453056
1712819498490,16037.940559437498
1712819498530,9984.728080470813
1712819498571,-944.2921720154118
1712819498611,-9624.14754478028
1712819498652,-19343.15978590632
1712819498692,-21962.849959006533
1712819498732,-22217.24900606391
1712819498772,-22116.470024176408
1712819498812,-21940.120320973452
1712819498853,-21290.47805397585
1712819498892,-18771.266641949303
1712819498933,-15118.896874298109
1712819498973,-11439.670427404577
1712819499013,-7661.078180159908
1712819499054,-4461.518626872217
1712819499093,-875.6657871599309
1712819499133,2374.2817503404804
1712819499174,6069.510174371768
1712819499214,9071.146455830894
1712819499254,11841.56495982036
1712819499294,15270.449342492735
1712819499334,18663.900295536732
1712819499374,20119.549916932127
1712819499415,13057.797382524237
1712819499455,3723.0730961258523
1712819499495,-2861.8550709588453
1712819499535,-6780.46072277287
1712819499575,-9721.426771851256
1712819499615,-11077.312278292375
1712819499656,-10454.767569536343
1712819499696,-8992.907780516893
1712819499736,-8992.315272638574
1712819499776,-8011.793215669226
1712819499816,-6059.062724192161
1712819499857,-2969.559289458208
1712819499897,-86.23438774445094
1712819499937,3223.2600300991908
1712819499977,6415.019599458436
1712819500018,9771.013647288317
1712819500059,12780.785425709328
1712819500098,15675.436142332852
1712819500138,18798.12061699014
1712819500179,22085.83732873248
1712819500219,24850.33060001768
1712819500260,26497.848927862477
1712819500299,20735.923440942075
1712819500340,11532.482046246063
1712819500380,4158.298985152971
1712819500420,-338.96841222955845
1712819500461,-4319.515810297336
1712819500501,-6809.643108855933
1712819500541,-7347.1703925388865
1712819500581,-7200.012283641845
1712819500621,-7080.819048362784
1712819500662,-5833.304144320544
1712819500702,-3480.7479165818077
1712819500742,-1077.9919339059852
1712819500782,1421.394356133882
1712819500823,4165.64268312417
1712819500864,7216.550478905672
1712819500903,10812.545258800266
1712819500943,13686.609568351647
1712819500984,15411.630855192896
1712819501024,18887.962541069137
1712819501065,21720.038764205994
1712819501104,25203.13311941945
1712819501144,27698.735161232762
1712819501185,30125.977072510635
1712819501225,32707.52396073239
1712819501266,31713.095915452344
1712819501305,23274.833962668665
1712819501346,14557.287101122085
1712819501386,9294.826141831698
1712819501426,5627.473962503951
1712819501467,2053.74244039692
1712819501507,278.1091514690779
1712819501548,-523.7798965782858
1712819501589,-1142.638171527069
1712819501629,-1739.4711935960222
1712819501670,-1272.008670564508
1712819501710,-118.67189221084118
1712819501750,2038.5606498410925
1712819501790,4236.182113147574
1712819501830,7047.457362545654
1712819501871,9039.425556852715
1712819501911,12075.77041812893
1712819501951,14642.670863592066
1712819501991,17213.40139289247
1712819502031,19788.51081450004
1712819502072,22377.98704986251
1712819502112,24980.979349150788
1712819502152,26912.93483961257
1712819502192,29072.0163580738
1712819502232,29963.236334030982
1712819502273,24674.491410080576
1712819502313,16164.22101515811
1712819502353,10796.168131747749
1712819502393,7754.2262261812575
1712819502433,5309.17045068834
1712819502474,4663.214788458776
1712819502513,4319.968775016721
1712819502554,3475.3360503711738
1712819502594,3008.179961404996
1712819502634,2907.7821593037806
1712819502675,4248.976996212266
1712819502714,6382.444735030178
1712819502754,8746.749636461725
1712819502795,11506.128474638797
1712819502835,14047.89419992501
1712819502876,16394.901223059278
1712819502915,19580.93529305351
1712819502955,22964.820915860124
1712819502995,26540.476612123894
1712819503036,29973.86251496477
1712819503077,33152.64027952729
1712819503116,35957.51075947075
1712819503156,32649.07244420261
1712819503196,24035.344075428322
1712819503237,15857.681406347081
1712819503278,11099.263207192998
1712819503317,7115.686139635276
1712819503357,3854.716689897701
1712819503398,2480.016124547692
1712819503438,1741.6249059867114
1712819503479,890.0827978528105
1712819503518,-275.17104723583907
1712819503559,-102.38543056487106
1712819503599,1662.759417079389
1712819503639,3196.6693076207303
1712819503680,5098.241225024685
1712819503720,7641.6103536693845
1712819503760,9897.418340228032
1712819503800,11948.904657033272
1712819503840,14381.746515436564
1712819503881,16499.25898148748
1712819503921,18655.574137724005
1712819503961,20147.365809057606
1712819504002,21776.487218763446
1712819504042,24522.10833332548
1712819504083,25185.090921293944
1712819504122,19534.74643609021
1712819504162,10011.489352509845
1712819504203,3087.7492368260864
1712819504243,-2314.9674953618087
1712819504284,-6123.578378085513
1712819504323,-8480.482205179054
1712819504364,-9362.494178381748
1712819504404,-10488.006241437048
1712819504444,-11135.376378403045
1712819504485,-10680.185649259482
1712819504525,-9778.437771182973
1712819504565,-8982.001353207044
1712819504605,-6992.479279092979
1712819504645,-4767.088154736441
1712819504686,-2426.6320461279247
1712819504726,123.66485528601333
1712819504766,2400.434679244645
1712819504806,4288.202848271001
1712819504847,6280.235155690694
1712819504889,8654.34933818318
1712819504929,11642.031040317379
1712819504969,13952.585999164963
1712819505009,16454.852936288808
1712819505050,18337.640988660278
1712819505091,9700.661356853321
1712819505130,-77.07873009564355
1712819505170,-6146.5789240603335
1712819505211,-9706.17803337914
1712819505251,-13025.669592456426
1712819505292,-14297.514572684187
1712819505331,-15299.211643168004
1712819505372,-16233.325278912205
1712819505412,-17516.014901342336
1712819505452,-16238.78396137571
1712819505493,-15186.749456551392
1712819505532,-12602.484622498974
1712819505572,-9685.822109094821
1712819505612,-6783.730319526279
1712819505653,-3673.0337943383493
1712819505694,-204.69046519184485
1712819505733,3252.344012774527
1712819505773,6044.305977148935
1712819505813,8861.991520137526
1712819505853,11762.414877208881
1712819505894,15125.25952948723
1712819505934,17338.636065514293
1712819505974,10673.699438526528
1712819506014,-213.52581005194224
1712819506055,-8379.71247939067
1712819506095,-12905.265724096913
1712819506135,-16311.916253456846
1712819506175,-19366.45715001831
1712819506215,-20770.809983098647
1712819506256,-21511.950928383274
1712819506297,-22444.998940529767
1712819506336,-22442.916028503794
1712819506376,-21915.93841269915
1712819506417,-19889.783867441118
1712819506457,-17400.090529398993
1712819506498,-14719.254661964485
1712819506537,-11707.717343667988
1712819506577,-9156.128501888365
1712819506618,-6213.762183741666
1712819506658,-3253.666327638086
1712819506699,56.49340237490833
1712819506738,2998.138392627239
1712819506779,6272.537773095304
1712819506819,8768.685022974852
1712819506859,11560.084447494475
1712819506900,11028.983445091406
1712819506940,1127.3829466835596
1712819506980,-10933.260865557473
1712819507020,-18957.78699709801
1712819507060,-24280.02862042468
1712819507101,-29138.458506216295
1712819507141,-31315.178632667754
1712819507181,-32410.309052378172
1712819507221,-33170.23364046728
1712819507262,-34188.4950841628
1712819507303,-33510.82401841134
1712819507342,-31711.591724044178
1712819507383,-29453.800940243527
1712819507423,-26812.125987643376
1712819507463,-23610.443673025817
1712819507504,-20385.652629977325
1712819507543,-17314.387631929945
1712819507584,-14169.965519722318
1712819507624,-11813.426559858257
1712819507664,-7612.5965616274625
1712819507705,-3919.5088896816596
1712819507745,-97.86851413967088
1712819507785,3068.029965352267
1712819507831,6753.353844430763
1712819507871,8939.735938626807
1712819507912,1378.6834693504497
1712819507952,-9825.788151150104
1712819507992,-18764.940108906012
1712819508032,-24937.39925631252
1712819508072,-29796.289296473842
1712819508113,-32288.969269699184
1712819508152,-32372.687554286094
1712819508193,-32870.209636486834
1712819508233,-33203.67266792338
1712819508273,-32298.452777296305
1712819508314,-29952.83072824753
1712819508354,-27051.633877417073
1712819508394,-23196.66466778703
1712819508434,-19120.00242554769
1712819508474,-15136.820982765406
1712819508515,-11267.19057623297
1712819508555,-7582.578765543411
1712819508595,-3583.297787983436
1712819508635,103.02195383259095
1712819508675,3860.8135959492065
1712819508717,7250.2940426941495
1712819508758,10614.499795029173
1712819508798,10364.735903569032
1712819508838,660.8102120882832
1712819508878,-10141.910142624518
1712819508919,-17326.677480413113
1712819508959,-22154.435814066324
1712819508999,-26134.617428795435
1712819509039,-28218.921434426215
1712819509079,-27793.541676419787
1712819509120,-28108.50264173653
1712819509160,-28191.480191353243
1712819509200,-26700.944975920953
1712819509240,-24431.201652796008
1712819509280,-21648.895720992703
1712819509321,-18068.08682378661
1712819509361,-14061.530779233202
1712819509401,-10288.666066070553
1712819509441,-6715.100009818096
1712819509481,-3112.7262702356093
1712819509522,134.98999452311546
1712819509562,4560.705151872942
1712819509602,7993.987826609984
1712819509642,10995.688903182745
1712819509682,14529.454079759074
1712819509723,17896.106373710325
1712819509763,14463.780092142988
1712819509803,2928.4463579752482
1712819509843,-7968.335080476943
1712819509884,-15127.703466351144
1712819509925,-20290.069297366776
1712819509964,-24582.30880079954
1712819510004,-25683.093911539298
1712819510045,-25803.941741418093
1712819510085,-26145.59051313717
1712819510126,-25874.846249190858
1712819510166,-24698.058636708185
1712819510206,-21784.216062040534
1712819510246,-18116.069052141625
1712819510286,-14426.829253574368
1712819510327,-10911.365990461316
1712819510367,-7981.2757449809
1712819510407,-4549.918474222766
1712819510447,-795.5423233369365
1712819510487,2205.6861262018792
1712819510529,5677.13634058414
1712819510568,9696.102416817565
1712819510608,13246.283942534588
1712819510649,16285.026958901435
1712819510689,19767.67204141477
1712819510730,20324.292795806658
1712819510769,11460.835028429516
1712819510809,44.92264011083171
1712819510850,-8971.305913087213
1712819510890,-14790.774592725094
1712819510931,-18952.060956475558
1712819510971,-21502.45763599244
1712819511011,-22686.085923232138
1712819511051,-23048.027803419624
1712819511091,-23254.16447165562
1712819511132,-22656.187279892853
1712819511172,-20900.371912104078
1712819511212,-18008.02321222471
1712819511253,-14022.03955116542
1712819511293,-10234.120926121483
1712819511334,-6455.62649236084
1712819511373,-2330.7424143301323
1712819511413,899.3526469166391
1712819511454,4320.758192710578
1712819511494,8137.419352148194
1712819511535,11410.026009885594
1712819511574,19666.115079662297
1712819511615,16637.28253347031
1712819511655,6423.216537041124
1712819511695,-3892.8384772820864
1712819511736,-10379.53627211717
1712819511776,-14335.33338693995
1712819511816,-17796.938909393968
1712819511856,-18574.664745206945
1712819511896,-18659.879650322488
1712819511937,-18164.65365361562
1712819511977,-17816.940152660012
1712819512017,-16232.677093689563
1712819512057,-13191.551836723462
1712819512097,-9545.540938552469
1712819512138,-6077.827778874431
1712819512177,-2087.313495797571
1712819512218,1726.0965556991287
1712819512258,5374.3532988256775
1712819512298,9130.138189161196
1712819512339,13189.313130416675
1712819512378,16538.344675787026
1712819512418,19961.274629753083
1712819512459,23302.028426154517
1712819512499,26675.392616052413
1712819512540,26113.562993887113
1712819512579,16376.694551769178
1712819512619,3590.247157642385
1712819512660,-5030.449081040919
1712819512700,-10796.367084038677
1712819512741,-15342.851920168847
1712819512780,-18201.654194584582
1712819512821,-18635.520233332878
1712819512861,-18071.750338222366
1712819512901,-17925.47138283751
1712819512942,-16614.164092876017
1712819512981,-13911.697448812658
1712819513022,-10721.325246962253
1712819513062,-7462.513804604998
1712819513102,-3692.390215560328
1712819513143,-262.5034254514612
1712819513183,3608.694690771401
1712819513223,6774.185719525209
1712819513263,10162.873778694076
1712819513304,13801.26369153196
1712819513344,17290.59951403574
1712819513384,20837.352988943923
1712819513424,24494.825384236872
1712819513464,27755.972903678892
1712819513505,30623.47753503034
1712819513546,32029.15382043505
1712819513585,23851.526656181784
1712819513625,11637.218863889575
1712819513666,3188.9498664136045
1712819513706,-2032.9699185427744
1712819513747,-6093.84256325243
1712819513787,-9339.460238506552
1712819513827,-10430.71284090355
1712819513867,-10801.515229668468
1712819513907,-10794.230189318303
1712819513948,-10383.903363612015
1712819513988,-8637.173990237061
1712819514028,-6645.568230505567
1712819514068,-3177.4620048175566
1712819514108,354.4484538240358
1712819514150,3511.1675043755677
1712819514189,7122.701739760581
1712819514229,10406.97587847081
1712819514270,14327.900643040659
1712819514310,18137.311393369688
1712819514351,22014.829907187028
1712819514390,25863.5864320572
1712819514431,28819.186134980526
1712819514471,32291.394340693718
1712819514511,32505.14460000582
1712819514552,23858.186793433502
1712819514592,13192.58664002642
1712819514632,6911.373125984799
1712819514672,3462.6799886799417
1712819514712,340.3059575781226
1712819514753,-1040.8419330727775
1712819514793,-1006.9882704915944
1712819514833,-1581.0739031108096
1712819514876,-2210.6617956864648
1712819514914,-2035.2055730379652
1712819514955,-335.78449482051656
1712819514995,2498.9089097753167
1712819515035,5368.198680140777
1712819515076,8722.161028348375
1712819515116,11716.073843480088
1712819515157,14468.955727014225
1712819515196,17224.958870668197
1712819515236,19951.05518804514
1712819515276,23032.321297334507
1712819515316,26161.29500161996
1712819515358,28185.532430799445
1712819515397,30926.19738945621
1712819515437,33520.791268123314
1712819515477,31843.655615357682
1712819515517,21904.606794938445
1712819515558,9551.243292166619
1712819515598,1534.589069494512
1712819515638,-3628.2818673795555
1712819515678,-7789.3172782461625
1712819515718,-10181.364795365836
1712819515759,-10852.445820668247
1712819515799,-11914.26311853039
1712819515839,-12044.007687699515
1712819515879,-12124.415334527148
1712819515919,-10652.377914414741
1712819515960,-8733.835377849173
1712819516000,-5866.863091666717
1712819516040,-2588.278076056391
1712819516080,380.1927490250673
1712819516120,3371.632658838993
1712819516161,6368.615485431161
1712819516201,9921.372163064545
1712819516241,12568.491188344546
1712819516281,15236.207981011597
1712819516322,18567.7799412678
1712819516362,21466.332268749364
1712819516402,24045.461082265014
1712819516442,26832.909443138633
1712819516482,25445.86092114728
1712819516523,14762.194365558913
1712819516564,2051.4543152449187
1712819516603,-6021.400339764077
1712819516643,-10318.334647559095
1712819516684,-14177.04035320459
1712819516724,-16884.220365198096
1712819516765,-16705.66939179087
1712819516805,-16728.8746438073
1712819516845,-16337.590947293676
1712819516885,-15453.631754849572
1712819516925,-13663.500215098727
1712819516966,-11801.862647553673
1712819517006,-8877.188011682127
1712819517046,-6050.166641275631
1712819517089,-2466.600371150067
1712819517127,278.52450037607923
1712819517168,3352.76879995293
1712819517207,6117.541288332548
1712819517247,9514.1864150092
1712819517288,13011.190342877759
1712819517328,15597.02943981858
1712819517369,18268.849681079853
1712819517409,21557.05403115484
1712819517449,19688.289277290925
1712819517489,9347.177661410067
1712819517529,-1000.4451988348737
1712819517570,-7443.64396159444
1712819517610,-11043.465717697516
1712819517650,-13944.687086442485
1712819517690,-14096.213718920015
1712819517730,-14268.637489577755
1712819517771,-15508.126611346146
1712819517811,-15743.61570911808
1712819517851,-14506.188659861684
1712819517892,-12130.781449169852
1712819517932,-9067.857761875726
1712819517973,-6322.3016923384275
1712819518012,-2919.0808640723117
1712819518052,-391.92053881590255
1712819518093,2561.0844078809023
1712819518133,8736.1787852759
1712819518174,11893.329647867475
1712819518214,15051.436917362735
1712819518254,17964.964581960812
1712819518294,20607.252912990283
1712819518335,13668.348029223736
1712819518376,490.03073716768995
1712819518416,-10622.66020538914
1712819518456,-17893.52402097406
1712819518496,-22752.37250582874
1712819518536,-26967.217306068167
1712819518577,-28747.275031578727
1712819518617,-27616.379260585643
1712819518657,-28671.581293511204
1712819518697,-29335.658405865543
1712819518737,-27592.208772453712
1712819518778,-25158.836637240136
1712819518817,-21931.982656155713
1712819518858,-18873.367709573824
1712819518898,-14879.825825654436
1712819518938,-11697.819133597892
1712819518979,-8504.453980609309
1712819519018,-4784.527296260931
1712819519059,-981.4452066456433
1712819519099,2668.023806028068
1712819519139,6358.39932686789
1712819519180,9848.16319049662
1712819519220,12971.261637916323
1712819519260,15430.849772484275
1712819519303,8767.454901321325
1712819519340,-4089.028228137642
1712819519381,-15183.07798556611
1712819519421,-22096.555400415324
1712819519461,-27586.85831893352
1712819519501,-31999.550720322877
1712819519541,-32580.17204183666
1712819519582,-33568.59422519151
1712819519622,-34167.93159035337
1712819519662,-33464.52408938436
1712819519702,-31920.60684769042
1712819519743,-29204.33214604971
1712819519784,-25653.854420190677
1712819519823,-21524.39142018417
1712819519863,-17585.91115068132
1712819519889,-14188.325856073294
1712819519930,-10188.940055555897
1712819519970,-6098.4791307691485
1712819520010,-2368.6151991644874
1712819520050,2002.602985760197
1712819520090,5571.265080262441
1712819520130,9177.831656565191
1712819520171,12225.494857668411
1712819520210,15614.479142887052
1712819520250,18764.23392886389
1712819520291,11782.649034795118
1712819520331,320.6557731805369
1712819520372,-10334.242259932216
1712819520411,-16360.494183079805
1712819520451,-20315.461886197794
1712819520491,-23292.9057417328
1712819520532,-24828.603827158688
1712819520572,-25848.06346819317
1712819520612,-27430.501585846534
1712819520652,-27807.56633676868
1712819520692,-27278.332654623082
1712819520732,-26858.968935621437
1712819520773,-27903.728774691
1712819520813,-27477.142418437637
1712819520853,-25445.935076477937
1712819520893,-23511.684056164697
1712819520933,-21800.651080523618
1712819520974,-19515.8028138089
1712819521013,-17861.327164886985
1712819521053,-16728.452424165327
1712819521094,-14093.987557508051
1712819521134,-9980.81976985652
1712819521175,-4968.680480921175
1712819521214,-8218.798843836877
1712819521254,-18293.046074310318
1712819521294,-26470.871577552054
1712819521335,-32528.606294121128
1712819521376,-34404.07193767326
1712819521415,-35398.93782314798
1712819521455,-30276.17267837026
1712819521495,-24274.371698008385
1712819521535,-19131.211717758095
1712819521576,-12177.553618400125
1712819521616,-7005.883191074245
1712819521656,322.6427098712884
1712819521696,9289.242127367528
1712819521736,16358.023811275605
1712819521777,23676.476975363446
1712819521817,29874.010181071702
1712819521857,33947.39877663716
1712819521897,41242.03124888288
1712819521938,47274.39053237322
1712819521979,50409.71327462932
1712819522018,49404.99278183794
1712819522058,43252.17342516361
1712819522099,25901.655812421348
1712819522139,7024.289282258134
1712819522180,4437.783014901448
1712819522219,2381.270618833136
1712819522259,8214.415656823665
1712819522300,18225.706698318012
1712819522340,28630.857689174358
1712819522381,35499.333573183045
1712819522420,27211.25095149991
1712819522460,14340.562108422862
1712819522500,25446.72681796411
1712819522541,29841.160235402174
1712819522582,21204.217993190512
1712819522621,16188.678508805111
1712819522661,8886.91728952853
1712819522701,6101.81549136946
1712819522741,1638.1827479738276
1712819522782,-159.7495825192891
1712819522822,653.8524587051943
1712819522862,400.1285471706651
1712819522902,229.38582598417997
1712819522942,-10369.936172972433
1712819522983,-23405.443320689956
1712819523023,-31631.192016387125
1712819523063,-38572.99488497665
1712819523103,-43738.632753529586
1712819523143,-45854.54324077582
1712819523184,-48430.600942452904
1712819523224,-49497.11951046763
1712819523264,-47685.02677854546
1712819523304,-41449.7615928913
1712819523344,-34987.85167761566
1712819523385,-28732.01492234366
1712819523425,-17589.178947967477
1712819523465,-13437.210438280134
1712819523505,-11404.734136477113
1712819523546,-8916.648998747114
1712819523586,-29.051305271685123
1712819523626,11011.115115275374
1712819523666,21964.26915204758
1712819523706,37525.375603196444
1712819523747,45306.64554257481
1712819523788,25864.803299948107
1712819523827,15518.782937779091
1712819523867,19232.30705719255
1712819523908,21600.45737440884
1712819523948,29144.36508523021
1712819523989,37152.75317610195
1712819524029,44853.36006069672
1712819524069,46870.263285412686
1712819524109,47078.22324056784
1712819524149,46306.92548048007
1712819524190,48935.15601963503
1712819524230,54551.08109624102
1712819524270,58253.1106161261
1712819524310,61172.34462882648
1712819524351,65478.96681665466
1712819524392,69007.5207506863
1712819524431,73698.49873356172
1712819524471,76316.74870508886
1712819524512,78954.92255002377
1712819524552,79549.18273716723
1712819524593,69113.92793455557
1712819524632,55750.75285034068
1712819524672,50322.93701770622
1712819524713,44629.26128494716
1712819524753,38450.29049175326
1712819524794,38620.32522880519
1712819524833,35240.147857865086
1712819524874,20949.33568717842
1712819524914,6587.598110521911
1712819524954,-6779.131686917273
1712819524995,-15144.462240965106
1712819525035,-22786.07599802385
1712819525075,-16771.173180296086
1712819525115,-20147.913641158957
1712819525156,-15734.24680616823
1712819525196,-10332.76448159595
1712819525236,-2646.820799655281
1712819525276,8702.31739965966
1712819525317,15555.887374688173
1712819525357,33788.1110948096
1712819525398,51239.205276205204
1712819525437,61654.18120405963
1712819525478,60920.84262754279
1712819525518,51102.280115253525
1712819525558,35686.10061526508
1712819525599,38131.25302352384
1712819525639,41956.08576755016
1712819525679,54165.28333845944
1712819525719,47843.87576426775
1712819525759,49363.49974998622
1712819525800,40917.86962012481
1712819525839,41179.17819395568
1712819525879,41520.88677592459
1712819525920,42343.3810679107
1712819525960,44113.821261907
1712819526001,52299.013440057635
1712819526040,60325.791388767306
1712819526080,69907.80894087115
1712819526121,79510.35897066863
1712819526161,93206.74180645193
1712819526202,104640.04485566239
1712819526241,113583.41402216395
1712819526281,115999.02578351041
1712819526322,120031.70250627818
1712819526362,115093.22299839463
1712819526403,122131.62502719904
1712819526442,122252.56074186764
1712819526482,115883.5297248261
1712819526522,101164.9745597383
1712819526563,81141.71545383474
1712819526604,70908.26418008166
1712819526643,54787.08498867182
1712819526683,44807.73879549955
1712819526724,45672.68520320393
1712819526764,39009.39331828826
1712819526805,46212.06927851355
1712819526844,65730.85257958481
1712819526884,69919.12853866862
1712819526925,73881.66076610703
1712819526965,65558.93489677622
1712819527006,73860.35871488135
1712819527045,68204.45701829181
1712819527086,68591.06652377988
1712819527126,54396.24398339703
1712819527166,51931.737951566
1712819527207,47536.308017418254
1712819527247,47446.67422567331
1712819527287,42911.131832580315
1712819527327,42926.53098802362
1712819527367,42122.86575611122
1712819527408,42549.49105616193
1712819527448,40101.372311362764
1712819527488,37470.85886426899
1712819527528,38362.382015499286
1712819527569,39960.092874591006
1712819527610,42463.56902287551
1712819527649,43606.58490332402
1712819527689,45647.11432947125
1712819527730,47325.87879023841
1712819527770,48280.51177160069
1712819527811,49451.075039105956
1712819527850,52699.695941464044
1712819527891,55323.26181121031
1712819527931,56244.29197398061
1712819527971,44237.7214665506
1712819528012,31218.545241856016
1712819528052,20296.409835435916
1712819528092,17113.661117831245
1712819528132,13722.735669999383
1712819528172,11794.131002644077
1712819528213,9130.21165518742
1712819528253,5162.948596533388
1712819528293,491.75009981449693
1712819528333,-1169.9878919338807
1712819528374,-2849.9003487974405
1712819528415,-4229.837188839912
1712819528454,-7450.480076847132
1712819528495,-4912.075815071352
1712819528535,-3518.6722221039236
1712819528575,-2603.773276038002
1712819528616,-6588.365468847565
1712819528655,-6378.119725480676
1712819528696,-5722.607491779141
1712819528736,-2123.2097264938056
1712819528776,-1565.5418691565283
1712819528817,-8909.391916784924
1712819528857,-15931.954984685406
1712819528897,-20840.397397016175
1712819528937,-25516.771136517636
1712819528978,-27787.976335349493
1712819529018,-25466.355977109168
1712819529058,-25614.793911957182
1712819529098,-28254.129108413123
1712819529138,-33736.30035492638
1712819529178,-36985.28541248152
1712819529219,-37662.420844963286
1712819529259,-36906.7775361808
1712819529299,-34882.480163060594
1712819529339,-29449.84174246248
1712819529379,-19243.512548765633
1712819529420,-14962.268398958258
1712819529460,-9483.107213884126
1712819529500,-5718.608913057484
1712819529540,-2113.10872044554
1712819529580,-6070.85637611337
1712819529621,-24483.240668678423
1712819529660,-42255.59001479717
1712819529701,-55121.73378950823
1712819529741,-62496.49487723969
1712819529781,-65750.88493405934
1712819529822,-67469.77878568834
1712819529861,-64942.73571085697
1712819529901,-60030.31245660735
1712819529942,-51809.28448133869
1712819529982,-48142.245410776
1712819530023,-51615.61872484977
1712819530062,-42445.726795181865
1712819530103,-36548.239071079064
1712819530143,-31288.496543044923
1712819530183,-29527.330649962416
1712819530224,-26834.389467978384
1712819530263,-23679.669536107453
1712819530304,-20745.339166373713
1712819530344,-17606.824611300835
1712819530384,-14914.093004884664
1712819530425,-22254.99803005252
1712819530465,-39939.68245845381
1712819530505,-55105.45227771066
1712819530546,-64013.896896717604
1712819530586,-68820.95968892239
1712819530627,-72566.61521231756
1712819530666,-75557.33392337011
1712819530706,-73664.74328557169
1712819530747,-72758.6685561582
1712819530787,-68396.92389108939
1712819530828,-61015.849248460494
1712819530867,-53568.570081996266
1712819530908,-44056.46839193092
1712819530948,-34829.89163005608
1712819530988,-26677.70971774729
1712819531029,-20077.568749082973
1712819531069,-14417.470921343425
1712819531109,-5861.158420695225
1712819531150,-33.239591678604484
1712819531190,5006.78630224918
1712819531231,6213.326204562094
1712819531270,1057.2332031074911
1712819531310,-4172.9335663248785
1712819531351,-14989.426678648219
1712819531391,-20641.701246012934
1712819531432,-23694.019648520276
1712819531471,-24479.22384355287
1712819531512,-24820.471816617297
1712819531552,-25713.199725604616
1712819531592,-27012.223135223612
1712819531633,-26391.702878089854
1712819531673,-24668.629478292307
1712819531713,-21739.86598913651
1712819531753,-18328.057822240284
1712819531793,-12920.329675621819
1712819531834,-6596.13677401375
1712819531874,-97.31556103983894
1712819531914,8059.8951042951085
1712819531969,13562.892589739058
1712819532009,22147.403474099934
1712819532050,25910.976853056578
1712819532089,31600.126070377883
1712819532130,28697.878591891844
1712819532170,26538.510968100978
1712819532210,29147.982852320187
1712819532251,29106.358896315796
1712819532290,31820.80850335583
1712819532330,27719.036222283263
1712819532371,20862.91163365147
1712819532411,15477.056061820127
1712819532452,14209.591662038118
1712819532492,15336.372769700829
1712819532532,15801.964876359794
1712819532572,16980.805055325152
1712819532612,18408.60041578859
1712819532653,19716.960001399973
1712819532692,21594.770325218327
1712819532733,23998.661204695934
1712819532773,25645.154718406964
1712819532813,19064.583702772623
1712819532854,5781.685668564867
1712819532893,-3638.695726201404
1712819532933,-8915.380820377963
1712819532974,-11038.483766886173
1712819533014,-10747.75197400595
1712819533055,-11579.058797520353
1712819533094,-7743.372829997912
1712819533134,-8657.101363069378
1712819533174,-6710.9968380164355
1712819533215,-7963.479126635939
1712819533255,-5028.33905005455
1712819533295,-4849.190659835935
1712819533335,-4047.741601143498
1712819533375,-6267.921670414042
1712819533415,-5073.3451753451955
1712819533457,162.801652709255
1712819533496,1952.4372330219485
1712819533536,7732.349631008692
1712819533576,12461.620894855121
1712819533616,19093.59012995567
1712819533657,13916.225618446246
1712819533697,11290.20918970462
1712819533737,9446.800775490003
1712819533777,10810.872001949232
1712819533818,11042.795985043515
1712819533858,12985.832851907238
1712819533898,14998.296426226152
1712819533938,17177.245747014415
1712819533978,18811.25984948175
1712819534019,21581.771667504683
1712819534060,25175.242403703975
1712819534099,28539.591366235167
1712819534139,32729.279007922392
1712819534181,37306.72717915056
1712819534221,40637.24413478491
1712819534262,44013.620742327534
1712819534301,45383.52246142668
1712819534341,47548.16902385582
1712819534382,44325.75547132059
1712819534422,45484.21078584902
1712819534463,39571.27196957497
1712819534502,32704.764822740108
1712819534543,24723.071959361434
1712819534583,20657.174169047037
1712819534623,24595.608567302814
1712819534664,22353.79144722363
1712819534704,11317.779255151749
1712819534744,-1925.8833905379288
1712819534784,-5927.087436913513
1712819534824,-11478.918447782984
1712819534865,-4881.857386431657
1712819534905,-2226.3415801881347
1712819534945,-3784.4908973292913
1712819534985,-10515.706845412496
1712819535026,-14860.656618244946
1712819535066,-16678.665192724904
1712819535106,-14710.916393014602
1712819535146,-14817.132913349662
1712819535186,-16646.176695192466
1712819535227,-26484.958826950286
1712819535268,-34886.83516690601
1712819535307,-41648.50720938831
1712819535347,-41258.84411632409
1712819535388,-34709.1017563967
1712819535428,-24321.84040750377
1712819535469,-43297.23160487041
1712819535509,-38002.67829921236
1712819535549,-39983.754828271456
1712819535589,-34747.71359791071
1712819535631,-26893.200902728364
1712819535672,-17322.96647592541
1712819535711,-14438.327731124125
1712819535752,-4574.522937196307
1712819535792,-2155.4869819281157
1712819535832,-2842.519821358612
1712819535873,-2810.096628083149
1712819535912,-3008.326783643337
1712819535952,-335.8408375706058
1712819535993,-2134.701577021973
1712819536033,-19455.53722808184
1712819536074,-39129.44899652875
1712819536113,-50114.47080951347
1712819536153,-58916.17672267696
1712819536193,-50377.327320727054
1712819536234,-42228.20326742437
1712819536274,-28487.619542104192
1712819536314,-24016.982792955125
1712819536354,-24597.710428852588
1712819536394,-26443.74695773772
1712819536434,-27169.55220694444
1712819536475,-24312.51933597005
1712819536515,-11576.260033165338
1712819536555,-6308.747124654008
1712819536595,-527.682292856276
1712819536635,3007.2989743682556
1712819536676,249.38226824160665
1712819536716,-5765.508041867288
1712819536756,16225.990798410494
1712819536796,16533.072768409736
1712819536836,8474.512159351725
1712819536877,-5314.204011947848
1712819536917,-8963.7689366478
1712819536957,-5063.53366951365
1712819536997,5176.682041269029
1712819537037,13960.411608150229
1712819537078,19731.83019161364
1712819537118,15596.868833975866
1712819537158,9084.823468239512
1712819537199,5019.18093002704
1712819537239,6269.974054312101
1712819537280,6646.857292506844
1712819537319,8173.781272337306
1712819537359,11908.513708221726
1712819537400,17636.29115474806
1712819537440,20919.799232476857
1712819537481,17402.367646055063
1712819537520,17064.853083983762
1712819537561,14489.200968700461
1712819537601,12619.058790225536
1712819537641,-48.723494426347315
1712819537682,-14761.60053903889
1712819537722,-17999.490624892525
1712819537762,-20361.317905857693
1712819537802,-24932.299622964114
1712819537842,-27648.225528766867
1712819537883,-39938.4765452717
1712819537923,-63242.93352000043
1712819537963,-97229.17879849486
1712819538003,-101841.21051382367
1712819538044,-86138.89690515143
1712819538085,-64355.24957056902
1712819538124,-44854.571393645136
1712819538165,-35966.33943988243
1712819538205,-29952.154703318607
1712819538245,-26012.533421867527
1712819538286,-21293.982397991465
1712819538325,-16357.94772193348
1712819538366,-8982.220733758062
1712819538406,-3235.4358499138616
1712819538446,-8478.621718570124
1712819538487,-21490.244118331466
1712819538527,-38371.98616838921
1712819538567,-88326.12181434361
1712819538607,-100232.89729027823
1712819538648,-107217.51507369848
1712819538688,-104573.4275241089
1712819538728,-104577.14228159748
1712819538768,-99549.91007092549
1712819538808,-87547.53599045076
1712819538849,-82957.72339009074
1712819538890,-76527.71033381764
1712819538929,-68803.65495377732
1712819538969,-60062.542019865476
1712819539010,-44768.47165013384
1712819539050,-39207.07355082384
1712819539091,-34056.50883793598
1712819539131,-22849.224457594566
1712819539171,-4008.2259820217732
1712819539211,18575.718510464532
1712819539251,34747.45412755059
1712819539292,19497.16747742286
1712819539331,-6549.0857430025935
1712819539372,-33028.65131385578
1712819539412,-45719.522642219206
1712819539452,-43368.245890275575
1712819539493,-32933.76768437517
1712819539532,-25154.625151426997
1712819539572,-21480.96192899742
1712819539613,-18775.776200700086
1712819539653,-14957.048840535805
1712819539694,-10444.094412650447
1712819539733,-7924.953310295008
1712819539773,-11274.699608427007
1712819539813,-7008.041267869994
1712819539854,36051.21317710262
1712819539894,54050.78435824136
1712819539934,62981.284097961616
1712819539974,73314.46630160231
1712819540014,72965.46024887962
1712819540054,68595.49432993867
1712819540095,50892.54381604353
1712819540135,34360.292521702126
1712819540175,25823.403429357568
1712819540215,17628.296002213145
1712819540255,15479.588481615763
1712819540296,17147.11248141993
1712819540336,24976.408597541973
1712819540376,30374.378238955047
1712819540416,37534.14807351725
1712819540457,43253.873468799284
1712819540497,45061.86322905333
1712819540537,44608.72122720163
1712819540577,45547.83122518635
1712819540617,48513.20150806708
1712819540658,50656.71975862142
1712819540699,51918.81969169434
1712819540738,52949.65195169067
1712819540778,55080.86066136998
1712819540819,54282.04223748855
1712819540859,43472.38058710098
1712819540902,27847.26775340573
1712819540941,19169.51745643909
1712819540981,14882.147102630697
1712819541022,12485.200822440907
1712819541062,12404.866886888165
1712819541103,8778.952375122346
1712819541142,2849.904960353393
1712819541183,-8838.751767708221
1712819541223,-20595.48201528797
1712819541263,-33986.27545402711
1712819541304,-29848.110655553406
1712819541344,-25112.757513045566
1712819541384,-19600.427464774344
1712819541424,-18318.22975825239
1712819541464,-14884.076789242914
1712819541505,-10147.816148353275
1712819541545,-13188.850362576544
1712819541585,-5519.625481197378
1712819541625,-8088.911901332904
1712819541666,-12039.913206628757
1712819541707,-16985.56151887658
1712819541746,-19214.376811294816
1712819541787,-11629.766792323906
1712819541827,-8795.252082304098
1712819541867,-13539.782533247024
1712819541908,-24939.211993260775
1712819541947,-16530.112902432447
1712819541988,-13120.111335604684
1712819542028,-12304.790620564949
1712819542068,-3243.5109279670287
1712819542109,-322.3412269242108
1712819542149,4329.186608636053
1712819542189,16278.565520096337
1712819542229,22642.290047924034
1712819542269,22946.85936346464
1712819542310,29705.555094683543
1712819542350,34529.355907346355
1712819542390,40409.78308580583
1712819542430,40003.02572965622
1712819542470,25247.2374660098
1712819542511,12752.976804149803
1712819542551,5890.62899623788
1712819542591,2215.796834718669
1712819542631,8496.950154947117
1712819542671,-21279.391305648955
1712819542712,-24748.369166411925
1712819542752,-27221.50443591643
1712819542792,-21177.343052845914
1712819542832,-10826.490390384337
1712819542872,-5382.458001124905
1712819542913,2376.656813235255
1712819542952,14427.931925668381
1712819542993,19976.39094660571
1712819543033,24788.227278159466
1712819543073,22314.72419087123
1712819543114,21214.778782727662
1712819543153,32821.3778201004
1712819543193,53349.703098142985
1712819543234,55756.2722062557
1712819543274,49575.28347827238
1712819543315,30551.038513431326
1712819543354,12381.476693554781
1712819543394,10729.578262270428
1712819543435,7932.048403116874
1712819543475,8277.156125135254
1712819543516,16135.99701675633
1712819543555,30910.086656153202
1712819543596,29234.14964392502
1712819543636,32017.44726973353
1712819543676,29293.41137932148
1712819543717,32446.392102839425
1712819543756,36297.85124657722
1712819543798,38616.26112859417
1712819543838,46634.45084721781
1712819543878,41590.88336518477
1712819543919,27799.273816527333
1712819543959,47646.52231550962
1712819543999,48939.52517892164
1712819544024,49999.67534412001
1712819544064,31480.46800115984
1712819544105,22167.87507098075
1712819544145,23731.128550126217
1712819544185,28002.145493869903
1712819544225,28456.442222547717
1712819544265,31598.870792334434
1712819544306,33790.62041640002
1712819544345,34083.83883182076
1712819544385,38865.112042285036
1712819544426,39246.41752792243
1712819544466,40863.23887838982
1712819544507,41426.56788603915
1712819544546,44581.024163325084
1712819544587,45608.461177960504
1712819544627,47525.83559780731
1712819544667,47649.018705809955
1712819544708,52013.66319595184
1712819544747,55672.17144840397
1712819544788,54874.58792855614
1712819544828,47459.004503946984
1712819544868,33305.076445953455
1712819544909,20913.791363511467
1712819544949,17478.223029027693
1712819544989,12542.90075946413
1712819545029,12354.2326599136
1712819545070,10518.075523743872
1712819545111,9429.771754103014
1712819545150,7166.759904414415
1712819545190,4190.749774645548
1712819545231,3749.1659597470425
1712819545271,2876.0449557586107
1712819545312,3570.4974537701346
1712819545351,-228.62900748290122
1712819545392,-946.212527994765
1712819545432,-8198.524557585828
1712819545472,-10672.938030872494
1712819545513,-10163.110620028106
1712819545553,-9652.115343049634
1712819545593,-8638.173817764502
1712819545633,-11870.029028860386
1712819545673,-53048.40690949769
1712819545714,-67487.14241832588
1712819545754,-77152.64773982437
1712819545794,-84950.75116842147
1712819545834,-91023.33976996201
1712819545875,-95751.64844679972
1712819545915,-101904.36084755021
1712819545955,-107376.77158722118
1712819545995,-110581.3412581291
1712819546035,-111023.2842251237
1712819546075,-109936.55797431478
1712819546116,-108296.52507688734
1712819546156,-106149.04205322778
1712819546196,-102741.85196485813
1712819546236,-102232.6790282065
1712819546276,-100029.88641817728
1712819546317,-97285.18197708111
1712819546357,-94929.01407864317
1712819546397,-102158.42836917588
1712819546437,-120443.33894599578
1712819546477,-137869.68221858656
1712819546518,-150831.25898987148
1712819546557,-157172.5559641593
1712819546598,-161237.8840323903
1712819546638,-161659.13335739728
1712819546678,-162827.3898364161
1712819546719,-161420.28188533708
1712819546758,-155657.21145287622
1712819546798,-147568.41408507153
1712819546839,-138075.9938138707
1712819546879,-141691.52911933186
1712819546920,-131416.68939443282
1712819546959,-122628.43210558151
1712819546999,-116225.70128272427
1712819547040,-109531.1658376013
1712819547080,-102344.0661905855
1712819547121,-104852.73276954144
1712819547160,-118974.6810957673
1712819547201,-131204.25042735692
1712819547241,-138045.87726368592
1712819547281,-142031.45141790062
1712819547322,-143799.75596869807
1712819547362,-140129.43976425286
1712819547402,-138895.54162580613
1712819547442,-135549.12037650822
1712819547482,-131379.49468055647
1712819547523,-122160.46344807046
1712819547563,-109444.22627810063
1712819547603,-97447.97663525864
1712819547643,-86426.97677346831
1712819547684,-76218.8890411905
1712819547725,-70493.68312234711
1712819547764,-63142.19515725924
1712819547805,-54459.395358160604
1712819547845,-49560.152111594565
1712819547885,-55441.3175924425
1712819547926,-62262.391061391216
1712819547965,-66643.27906113607
1712819548006,-67184.18730146624
1712819548046,-68840.41803833912
1712819548086,-66502.98908348661
1712819548127,-62915.38692480768
1712819548167,-43302.5477968622
1712819548207,-34535.41155416309
1712819548247,-22655.348829803057
1712819548288,-10881.313084429596
1712819548329,801.1473086150363
1712819548368,11547.282881215215
1712819548408,20678.232395967934
1712819548449,28902.21119761467
1712819548489,36004.531015973305
1712819548530,43354.71629758319
1712819548569,50288.28164385585
1712819548610,51360.29032932129
1712819548650,37387.31437647808
1712819548690,24019.234423984773
1712819548731,15512.112376090838
1712819548771,6232.4424230232835
1712819548811,5776.509134177584
1712819548851,5226.540318851359
1712819548891,6989.315402464941
1712819548932,7840.685511721764
1712819548972,7665.668882276397
1712819549012,11849.822232289705
1712819549052,16166.877888228744
1712819549092,24856.000269745942
1712819549134,31884.744220579974
1712819549173,33395.16311806487
1712819549213,27817.804385530762
1712819549254,22633.947304727975
1712819549294,20604.347666874062
1712819549335,14780.927679581568
1712819549374,-983.9791692334693
1712819549414,-13111.908899786416
1712819549454,-19602.88226896897
1712819549495,-20990.139486325905
1712819549535,-16477.16469272948
1712819549575,-9173.353277878137
1712819549615,-6634.672058691969
1712819549655,-1080.6394128985703
1712819549695,4174.878230567789
1712819549736,10582.820610937895
1712819549776,17984.30114168441
1712819549816,26217.316095596878
1712819549856,34694.89115245687
1712819549896,43938.400581443915
1712819549937,53780.12307497626
1712819549977,61267.693354410585
1712819550017,68272.9067742806
1712819550057,79136.17554506753
1712819550097,66106.88299178798
1712819550138,59128.82016568538
1712819550177,55090.55917520309
1712819550218,54217.524196098326
1712819550258,57741.96539565362
1712819550298,60112.762057435466
1712819550339,56752.78098243335
1712819550378,45656.23943922622
1712819550419,38650.99071749323
1712819550459,30219.94793874002
1712819550499,41121.04467134713
1712819550540,54161.97680729441
1712819550580,53336.518884862075
1712819550620,56253.124645181
1712819550660,62954.18894399959
1712819550700,62521.88425771566
1712819550741,67322.52750437148
1712819550781,77642.01940232469
1712819550821,71424.62480933638
1712819550861,69700.11654816405
1712819550901,70718.1128346764
1712819550942,70967.9646158081
1712819550982,69239.8519536294
1712819551022,62105.179371537175
1712819551063,58830.85796866473
1712819551103,55672.22449913481
1712819551144,49561.06883613742
1712819551183,48607.16950958315
1712819551224,44969.194916564506
1712819551264,43602.24783209385
1712819551304,44220.84915433172
1712819551345,40114.17291214503
1712819551385,43711.67660564091
1712819551425,37154.078107971465
1712819551467,34377.82238360075
1712819551507,33467.13949089288
1712819551548,25477.801122542704
1712819551587,19793.741848266218
1712819551628,18031.08146361215
1712819551668,20092.078281192807
1712819551708,20839.96953167976
1712819551749,22939.9551178182
1712819551789,12103.365679574898
1712819551829,3262.5773834320717
1712819551869,6332.804022531258
1712819551910,13597.455793099478
1712819551950,12573.67339559435
1712819551990,13497.435006744694
1712819552030,9889.777785404818
1712819552070,8073.42443250143
1712819552111,13788.210255548358
1712819552152,19546.432848462136
1712819552191,20566.00174226053
1712819552231,9830.788128159009
1712819552272,-3958.061466827523
1712819552312,-2707.0039132018574
1712819552353,-5563.758153542178
1712819552393,-4493.431624779478
1712819552433,-3392.9661922436208
1712819552473,-2639.7810051492415
1712819552513,3133.1031434074976
1712819552554,8643.644690344343
1712819552593,15483.373007860035
1712819552634,19309.75609221449
1712819552674,24011.1628501846
1712819552714,31607.765947925393
1712819552755,41675.082859678194
1712819552794,43319.831963046454
1712819552834,43913.63811067003
1712819552875,38985.25214302214
1712819552915,38172.764447247144
1712819552955,41322.91700387932
1712819552995,46051.84334702371
1712819553035,56050.4188064835
1712819553075,64051.87094275793
1712819553116,72393.5873508032
1712819553156,71739.17125967238
1712819553196,60122.61052578641
1712819553236,52710.974744999316
1712819553276,55639.24229366984
1712819553316,55547.72486184654
1712819553357,51151.83730310993
1712819553397,48573.533106632996
1712819553437,41140.52467546472
1712819553478,40115.38346572197
1712819553518,40408.72603649297
1712819553559,22994.300425681286
1712819553599,4761.617007493507
1712819553639,-7376.000000374857
1712819553679,-19293.463707194198
1712819553719,-23170.37174301641
1712819553760,-27720.493682210566
1712819553800,-32785.20909322379
1712819553840,-36417.78403979982
1712819553880,-42969.255621065386
1712819553920,-46424.734792285366
1712819553961,-46289.84522472788
1712819554001,-43516.15666125831
1712819554041,-46780.34811128257
1712819554081,-44812.3166918254
1712819554121,-45806.01153350482
1712819554162,-45871.09022614127
1712819554202,-49522.33315756079
1712819554242,-59657.633095980156
1712819554283,-71079.86089636362
1712819554324,-80796.0176705271
1712819554365,-82735.59854718251
1712819554404,-88010.77965996368
1712819554444,-87941.40446358453
1712819554485,-88606.4219857587
1712819554525,-87068.36564615765
1712819554566,-86660.1672617644
1712819554605,-84110.85936465021
1712819554645,-80677.14721471723
1712819554686,-75140.50769209629
1712819554726,-70668.96717883926
1712819554767,-69886.22380243335
1712819554807,-67816.21147240186
1712819554847,-61128.40096167289
1712819554887,-64200.64940721961
1712819554928,-72789.01660290686
1712819554968,-79619.89506874443
1712819555008,-82577.23020422785
1712819555048,-84204.76945466269
1712819555088,-82234.73371067643
1712819555129,-75879.93486764282
1712819555170,-70056.09414168587
1712819555209,-66806.08518874552
1712819555249,-63986.69211666705
1712819555290,-66510.87063371856
1712819555330,-62167.551833804464
1712819555371,-56492.03577794484
1712819555411,-49981.87378838798
1712819555451,-43709.66832665983
1712819555491,-38732.43556646095
1712819555531,-34354.30914679635
1712819555572,-38331.2875043829
1712819555612,-47453.50352898659
1712819555652,-54182.282339342404
1712819555692,-52470.81032535643
1712819555732,-44961.1150877648
1712819555773,-35958.560660929885
1712819555813,-28066.879570153542
1712819555853,-25096.174408752006
1712819555893,-21983.55458666105
1712819555933,-18233.10088719055
1712819555974,-16280.868144774344
1712819556013,-10940.402516975999
1712819556054,-4964.703082537744
1712819556099,-1089.2505300343037
1712819556139,1565.177804529667
1712819556179,6644.030717925169
1712819556219,4924.648545215139
1712819556259,-5692.128561323974
1712819556299,-16386.931294488255
1712819556339,-21373.34095975128
1712819556380,-23460.698272007052
1712819556419,-26322.193695042515
1712819556460,-28845.13795919344
1712819556500,-28969.194392482284
1712819556540,-27517.092435920145
1712819556581,-18906.163938072044
1712819556620,-14618.322730304208
1712819556660,-10384.341538244626
1712819556700,-6431.216926431749
1712819556741,-2115.918664642144
1712819556781,3498.1317717377096
1712819556821,8836.627743616002
1712819556861,6396.606846525101
1712819556901,-2520.4972206102684
1712819556941,-9366.619406749494
1712819556982,-14735.522687499877
1712819557021,-18111.840251824353
1712819557061,-17245.62374482886
1712819557102,-15284.26877350104
1712819557142,-12975.489339553518
1712819557182,-12697.722103590844
1712819557222,-10918.477863025386
1712819557262,-6672.874562291428
1712819557302,-3414.6264481609687
1712819557342,874.1043333359994
1712819557383,4339.983866122551
1712819557423,7738.799221745692
1712819557463,11715.465858371696
1712819557503,12077.960690490203
1712819557543,4760.2185052854475
1712819557584,-4477.419978721067
1712819557623,-10461.206461366732
1712819557663,-13471.764178862097
1712819557704,-13857.608768935315
1712819557744,-11428.055934612174
1712819557784,-11159.772274296265
1712819557824,-9673.398703149054
1712819557864,-7252.103965127841
1712819557904,-3706.294780254597
1712819557945,1411.7615337385796
1712819557985,6166.298360615037
1712819558025,10287.854055375326
1712819558065,14069.929293934721
1712819558105,16834.71556285536
1712819558146,20510.176025360823
1712819558187,20344.70819104789
1712819558226,14282.02151221456
1712819558267,8675.760546042118
1712819558307,5153.724959337618
1712819558347,3731.2774597632233
1712819558388,4825.80734313326
1712819558428,7298.550521616358
1712819558468,9158.361086184857
1712819558508,11817.820414426504
1712819558548,13605.785094534513
1712819558589,23221.29600584088
1712819558629,33351.612026338466
1712819558669,43555.83951496426
1712819558709,52137.99463012209
1712819558750,59883.23667950835
1712819558791,66553.97801851435
1712819558830,70078.38659426896
1712819558870,71345.37523384951
1712819558911,64025.21928278031
1712819558951,51857.315352749545
1712819558992,43482.085624160245
1712819559031,39039.58054906223
1712819559072,37015.96546414122
1712819559112,36912.87019597273
1712819559152,37034.21972121112
1712819559193,35753.47528230632
1712819559233,36508.46278973902
1712819559274,40909.8212406605
1712819559314,47637.77251697332
1712819559354,53820.89595072577
1712819559395,59080.465288106585
1712819559434,62033.54940795479
1712819559475,64112.76961923484
1712819559515,63092.23711763602
1712819559555,61339.33064139029
1712819559596,50843.221210113494
1712819559636,39699.02398070134
1712819559676,31796.752247976605
1712819559716,26514.84050262207
1712819559756,25018.078977704048
1712819559797,23945.337653528433
1712819559837,24020.648997808108
1712819559877,20681.187252533622
1712819559917,19307.91137371119
1712819559957,17950.07855729712
1712819559998,18628.03315093345
1712819560037,17758.96485762624
1712819560078,16951.399669283303
1712819560118,18640.743271536194
1712819560158,20129.365166738164
1712819560199,25304.678486749995
1712819560238,27149.522990518482
1712819560279,27701.26362952823
1712819560319,22367.81370120053
1712819560359,14253.123106752988
1712819560400,5182.23692150414
1712819560439,-546.6715285321698
1712819560480,-3250.825709731318
1712819560520,-5842.6427394994535
1712819560560,-8336.963734306395
1712819560601,-11659.14299427392
1712819560640,-14218.588621515315
1712819560680,-15972.219168981072
1712819560721,-14243.446620571893
1712819560761,-11855.697706161533
1712819560802,-7489.495810794178
1712819560841,-2136.3901457269676
1712819560881,376.39195955265313
1712819560922,4459.506039523752
1712819560962,7828.236024279613
1712819561003,10218.483014609665
1712819561042,11560.444273438305
1712819561083,14142.157963483594
1712819561123,16286.667214774527
1712819561163,12568.12874212768
1712819561204,3957.590667385608
1712819561244,-2589.9519987010863
1712819561284,-6763.345099665225
1712819561324,-8501.290628235787
1712819561365,-8490.361506580375
1712819561406,-7659.983299380867
1712819561445,-7434.109221507097
1712819561485,-9067.428297576727
1712819561526,-7864.638802564004
1712819561566,-5274.400230407948
1712819561607,-2089.273585718358
1712819561646,1389.9288233579136
1712819561687,4043.31105496455
1712819561727,7159.954968256876
1712819561767,9814.109988431213
1712819561808,12827.381923422683
1712819561848,15107.428460224532
1712819561888,16873.803252254147
1712819561928,18699.46388945845
1712819561968,19104.657528153155
1712819562010,12428.507328607608
1712819562049,3738.2029067298863
1712819562089,-1076.0187252070755
1712819562130,-5342.406735106837
1712819562170,-6075.4735077437945
1712819562211,-6735.071744830813
1712819562250,-6846.3701269368175
1712819562291,-6936.791788510047
1712819562331,-5775.957924488932
1712819562371,-5278.464703985956
1712819562412,-4029.3001789613627
1712819562452,-2393.6864644554444
1712819562492,-60.906934523023665
1712819562533,2769.852731816005
1712819562573,4783.932167352876
1712819562614,7593.212713593617
1712819562653,9516.711961680558
1712819562693,11638.179229027359
1712819562734,14583.581128024496
1712819562774,12727.719210282201
1712819562815,4083.5555959017947
1712819562854,-4856.576641460881
1712819562895,-10424.424610442715
1712819562935,-13397.634526296053
1712819562975,-13151.971178068314
1712819563016,-13480.108004983515
1712819563055,-15455.047399614938
1712819563096,-17537.487043891568
1712819563136,-18431.21002468234
1712819563176,-16331.939673495712
1712819563217,-13506.773486738326
1712819563256,-11311.340132518671
1712819563296,-8346.704218339175
1712819563337,-4968.402858808171
1712819563377,-2328.6350441812538
1712819563418,724.3512746349443
1712819563457,4189.932943108492
1712819563497,7688.472381737316
1712819563537,10621.05702004931
1712819563578,13662.632560038473
1712819563619,13878.506156809162
1712819563658,6658.838343516458
1712819563698,-3070.4334159849677
1712819563738,-7411.041252330178
1712819563778,-13585.901244644308
1712819563819,-13562.361613591434
1712819563859,-12936.74024351174
1712819563899,-14336.429007227998
1712819563939,-13370.3334780382
1712819563979,-15241.881062867586
1712819564020,-8962.87613219535
1712819564060,-7545.883154771058
1712819564100,-3410.6187709015794
1712819564140,5418.49354640767
1712819564180,9722.700868596323
1712819564221,18703.4627066548
1712819564261,26816.406986895483
1712819564301,31687.659842147725
1712819564342,39694.422369735315
1712819564382,44885.8716562991
1712819564423,49081.12877668254
1712819564462,50478.07689288445
1712819564502,47273.614401018014
1712819564543,38488.4244254292
1712819564583,25097.69626821112
1712819564624,22213.39413646888
1712819564663,17767.826215408044
1712819564704,17577.046402058564
1712819564744,17557.09846462845
1712819564784,15045.485715863062
1712819564825,14860.497058063513
1712819564865,13915.241910836194
1712819564905,14222.142957939766
1712819564945,14898.252041390631
1712819564986,16582.641215479467
1712819565026,17198.3678929382
1712819565066,22580.189411371015
1712819565106,21574.728371910285
1712819565147,23272.935132949613
1712819565187,22772.58022902417
1712819565228,22202.20624598395
1712819565267,17568.901788238203
1712819565308,405.84204549062997
1712819565348,-7047.384375626454
1712819565389,-7152.307154508308
1712819565430,-12894.059454047587
1712819565470,-13006.795002348488
1712819565510,-18706.8262774467
1712819565550,-28246.71027559694
1712819565591,-33699.07202271512
1712819565632,-36475.108500369824
1712819565671,-35738.01828962518
1712819565711,-34836.70460903295
1712819565752,-33251.4400216043
1712819565792,-30679.468659579055
1712819565833,-27234.711453412427
1712819565872,-18229.597628178773
1712819565913,-16028.8656426128
1712819565953,-11455.999379963148
1712819565993,-6403.94493983034
1712819566034,-19993.72841784195
1712819566074,-24779.146151445806
1712819566114,-30274.95613562409
1712819566155,-31565.363333040616
1712819566195,-34377.10175991384
1712819566235,-33795.18073268933
1712819566275,-35949.554580627475
1712819566315,-39205.25305843423
1712819566355,-38746.15650097397
1712819566395,-35260.589189523365
1712819566436,-36196.139965808485
1712819566476,-33350.830426619854
1712819566516,-31696.904488245025
1712819566556,-29060.913937488105
1712819566596,-25944.65519768931
1712819566637,-25427.57645449764
1712819566676,-29129.951785530895
1712819566717,-28726.1574126645
1712819566757,-28261.54822671064
1712819566797,-33124.20407512714
1712819566838,-32774.106933282455
1712819566877,-28428.710463310592
1712819566918,-32674.55845691124
1712819566958,-30332.709414727986
1712819566998,-37068.44944367837
1712819567039,-30738.089161790907
1712819567078,-29505.37253638194
1712819567119,-22365.814386984333
1712819567159,-45086.68257573526
1712819567199,-38399.113940071315
1712819567240,-17423.68923964724
1712819567279,-3307.132966984529
1712819567320,-550.8275198950432
1712819567360,3287.5627978181
1712819567400,8842.679829053348
1712819567441,17663.326621846994
1712819567481,18239.884304794483
1712819567521,6375.294759886805
1712819567561,290.7361264619976
1712819567601,-5818.895462497603
1712819567642,-12207.306681597605
1712819567682,-17211.471682606963
1712819567722,-16550.529243333032
1712819567762,-13208.274350935128
1712819567802,-13252.821077990346
1712819567844,-10902.20691793738
1712819567883,-9517.989055715501
1712819567923,-10543.872615320142
1712819567964,-4695.742614153773
1712819568004,5798.121054462623
1712819568045,21721.834472516086
1712819568084,29597.91640603356
1712819568124,38663.13062717207
1712819568163,44833.311101207044
1712819568204,49202.62128938781
1712819568244,42642.746285648085
1712819568284,46958.892312182346
1712819568324,45792.478001948446
1712819568364,44215.242971489904
1712819568404,37184.21023100661
1712819568445,58573.94241672102
1712819568485,52495.80713401199
1712819568525,29183.92403880693
1712819568565,12679.63860123558
1712819568605,16925.857659158297
1712819568646,21403.669889284763
1712819568686,28958.550508559914
1712819568726,30853.525770006236
1712819568766,42940.69977889769
1712819568807,56211.610925270244
1712819568847,62705.18593634409
1712819568887,62040.114048317075
1712819568927,33881.970979192294
1712819568967,9825.25322838081
1712819569008,15161.951197257964
1712819569049,22461.498703348218
1712819569088,19934.928143904777
1712819569128,11758.416828336893
1712819569169,6149.503940321971
1712819569209,5431.438673057128
1712819569250,-2730.331737660803
1712819569290,666.1316730706021
1712819569330,2462.260399865918
1712819569370,6820.7978902871255
1712819569410,4364.189525982598
1712819569451,82.74894727393985
1712819569491,1066.8282031514682
1712819569531,-1288.0213789353147
1712819569571,129.8643756415695
1712819569611,-11401.124938580673
1712819569653,-23359.531598441536
1712819569692,-33185.87234492367
1712819569732,-35658.61717549898
1712819569773,-37414.84490190679
1712819569813,-33546.84754305007
1712819569854,-29116.170089163817
1712819569893,-27564.711245015496
1712819569933,-29306.67670877464
1712819569973,-31135.451932765776
1712819570014,-32916.23455266422
1712819570054,-39233.21777580725
1712819570094,-43502.1455851146
1712819570134,-41230.86509971018
1712819570174,-39244.338479314
1712819570214,-17601.9118751192
1712819570255,7752.375083873048
1712819570295,6659.561264161952
1712819570335,-6447.374889990315
1712819570375,-8687.282273191959
1712819570415,-4854.140707039274
1712819570456,2618.8798967024777
1712819570496,10766.713365597185
1712819570536,23389.94606102584
1712819570576,19512.179910370614
1712819570616,11423.136018353049
1712819570657,8620.427774329204
1712819570696,10588.09891065862
1712819570737,16415.028134065913
1712819570777,19221.804956119042
1712819570817,23484.53347866144
1712819570858,25583.06780774612
1712819570897,26354.146965177497
1712819570937,28137.42457035929
1712819570978,30265.179353216197
1712819571018,32141.823389076162
1712819571059,30358.138683176134
1712819571098,23249.269782534335
1712819571138,15160.786034060176
1712819571179,8766.095535086002
1712819571219,5102.119655334391
1712819571260,3366.4751260560006
1712819571300,4832.583156232722
1712819571340,6247.4715913808905
1712819571380,6324.059372249059
1712819571420,6823.924893569667
1712819571461,9140.53511644015
1712819571501,14251.990851844195
1712819571541,20163.048612348503
1712819571581,23883.66672452353
1712819571621,28769.587142425124
1712819571662,32434.914234497817
1712819571702,35724.902814416215
1712819571742,36527.96855022176
1712819571783,30637.57021868578
1712819571823,21442.1560894351
1712819571864,12843.040588280419
1712819571903,7082.0428682749625
1712819571944,2796.1480141400825
1712819571984,1540.7591979801655
1712819572024,3018.4769479401875
1712819572065,2478.6025113735814
1712819572105,3151.8669959804974
1712819572145,4654.9156244134065
1712819572185,6736.735754783265
1712819572225,8653.9386372203
1712819572266,10534.503233676776
1712819572306,11869.245606552344
1712819572346,12988.698310511652
1712819572386,14066.420079674572
1712819572427,16845.759257318918
1712819572468,16182.320594816701
1712819572507,19835.914718315937
1712819572548,14401.147570030065
1712819572589,7675.243550043553
1712819572629,3000.969835470896
1712819572670,790.4744903692044
1712819572709,-50.22106909379363
1712819572750,-567.8124468163587
1712819572790,-665.2418202932458
1712819572830,-985.4792930427939
1712819572871,142.2296385075897
1712819572911,2496.833976005204
1712819572951,427.1676116604358
1712819572991,-1022.5800932012498
1712819573032,2051.7579994853586
1712819573073,4761.534134503221
1712819573112,6464.426563607529
1712819573152,7032.2053546838
1712819573192,9230.489791858476
1712819573232,11696.729791766964
1712819573274,2940.7058361312374
1712819573313,-10451.648288014112
1712819573353,-19733.108152205823
1712819573393,-24750.33018251881
1712819573433,-26157.18018604233
1712819573474,-25762.4632401017
1712819573514,-26032.828555136453
1712819573554,-27390.059628531802
1712819573594,-27302.444546221755
1712819573634,-25011.786032204283
1712819573675,-21422.849242058583
1712819573715,-18053.809719603043
1712819573755,-9027.116732738214
1712819573795,-4529.646737731993
1712819573835,3740.3297501555644
1712819573876,10932.857489906251
1712819573915,17317.57145867101
1712819573956,22433.92058825912
1712819573996,22657.017977458658
1712819574036,16380.984661506023
1712819574077,8674.773055781377
1712819574117,4312.876219414873
1712819574157,3292.339557174593
1712819574197,2711.1115580480546
1712819574237,6496.452174396254
1712819574278,8896.833013965283
1712819574318,6520.020167429233
1712819574358,4238.656132021919
1712819574398,1273.9758385294117
1712819574438,1110.5549671705812
1712819574480,2462.5975009687245
1712819574519,1815.2748672741
1712819574559,4049.364176310133
1712819574600,7027.610393579351
1712819574640,10241.63174706581
1712819574681,13031.838872374967
1712819574720,15271.568560626125
1712819574760,13028.138635070063
1712819574801,4817.375082480721
1712819574841,-4249.732652996667
1712819574882,-10900.943015917437
1712819574921,-13168.716540163383
1712819574962,-14474.715006331448
1712819575002,-13686.343780611409
1712819575042,-10754.960187934805
1712819575083,-7899.149144834839
1712819575123,-4589.257027968764
1712819575163,-2095.0348052838817
1712819575206,1078.388600296108
1712819575243,4235.567578990478
1712819575284,5994.456085606478
1712819575324,8129.798751795199
1712819575364,10582.971760397777
1712819575405,13221.417265288997
1712819575445,17106.884317602497
1712819575486,20234.036266229814
1712819575525,22030.952045938233
1712819575566,15429.693193553481
1712819575606,6479.281028933125
1712819575646,-276.3382435650565
1712819575687,-3644.025059668813
1712819575727,-4462.3576864292845
1712819575767,-4671.501563200727
1712819575807,-4402.291178472107
1712819575847,-4059.5637193536386
1712819575888,-5235.741348286625
1712819575929,-7415.9051748267375
1712819575969,-9027.789962612558
1712819576009,-8509.24218223989
1712819576050,-6877.501634852961
1712819576091,-3849.7566634970717
1712819576130,314.47100346023217
1712819576171,4015.4113765575457
1712819576211,5585.6603746963665
1712819576251,8031.961454922333
1712819576292,9130.788454597117
1712819576331,2524.6685749744065
1712819576371,-6351.697012319928
1712819576412,-11856.107194435317
1712819576452,-12401.085631105117
1712819576493,-10183.306459784508
1712819576533,-6502.632959768176
1712819576573,-4238.205697871279
1712819576613,-3678.3699722117744
1712819576653,-2597.089751935331
1712819576694,-1156.3393608657643
1712819576733,2160.1554016708396
1712819576774,6623.5995809696615
1712819576814,10341.431895457441
1712819576854,13242.711352294777
1712819576895,15057.294938983861
1712819576934,17617.120439586462
1712819576974,20747.756898943335
1712819577015,16826.482125580078
1712819577055,9305.068659556098
1712819577096,3741.7046126052737
1712819577135,1698.9638451705687
1712819577175,3647.391275160713
1712819577216,7008.283567855135
1712819577256,9187.209289923543
1712819577297,9313.821383135859
1712819577336,9511.697605380788
1712819577377,10280.262083915528
1712819577420,11623.756214872003
1712819577457,15639.578089483082
1712819577498,19025.336263405625
1712819577538,20730.261713340413
1712819577578,21781.04795755213
1712819577618,21209.457344223745
1712819577658,21339.693041839637
1712819577699,17224.20057680458
1712819577739,6032.320580641506
1712819577779,-3235.603611404542
1712819577819,-6465.517980969511
1712819577860,-6154.29655014351
1712819577901,-3458.373642620165
1712819577940,-1143.1808383681346
1712819577980,475.32281929976307
1712819578021,262.47821766813286
1712819578061,713.0350169804879
1712819578102,2222.661209381884
1712819578141,4614.268775485922
1712819578182,7597.00533589581
1712819578222,10452.318738664035
1712819578262,12511.51223721425
1712819578303,14895.730839117896
1712819578343,17066.580642350018
1712819578383,19504.786166241392
1712819578423,14191.227594778175
1712819578464,3531.3841751175933
1712819578505,-5285.603974229423
1712819578544,-10120.344050508458
1712819578585,-12097.345880538225
1712819578625,-11906.652645231923
1712819578665,-11880.206089647021
1712819578706,-12762.08655066532
1712819578746,-15032.436604963616
1712819578786,-15382.211605035234
1712819578826,-13908.409607619513
1712819578866,-11847.128902014578
1712819578907,-8769.60995043721
1712819578947,-6233.120024010539
1712819578987,-3352.7703417306766
1712819579027,-281.10171533492394
1712819579068,2628.6454690259416
1712819579108,-1437.9919593329541
1712819579148,-9949.051643706392
1712819579188,-16524.409561103443
1712819579228,-19067.119015089236
1712819579269,-18800.474340054905
1712819579310,-14303.03442661604
1712819579350,-13304.667022276204
1712819579390,-12061.079099426745
1712819579430,-9492.892470330931
1712819579470,-5797.7674627746455
1712819579511,-2159.282987647224
1712819579551,1367.2440560623072
1712819579591,3673.9945801785216
1712819579633,6289.030178408371
1712819579671,9255.405706062447
1712819579712,12023.366446018917
1712819579751,6548.571870687418
1712819579792,-2185.142707677558
1712819579832,-7008.920281874947
1712819579873,-8528.030407716054
1712819579914,-9084.923531109933
1712819579953,-8001.965150563512
1712819579993,-8294.262372229714
1712819580033,-8706.264033789514
1712819580073,-8729.876841521123
1712819580114,-6984.817986496724
1712819580154,-4157.506161322817
1712819580194,-1155.3977559017949
1712819580240,2471.5269016409293
1712819580280,6092.097975874785
1712819580321,9237.996307383291
1712819580360,11760.830959054641
1712819580401,14135.579375030473
1712819580441,10369.416105957935
1712819580481,1713.143837686628
1712819580522,-6021.40612603398
1712819580561,-9692.38610901311
1712819580601,-11208.40749742277
1712819580641,-10339.987147487234
1712819580681,-10661.30214371183
1712819580722,-11494.677495432086
1712819580762,-12100.689634189941
1712819580802,-10708.689934930764
1712819580842,-7926.1088915986475
1712819580883,-4374.256014320999
1712819580924,-995.0747923145536
1712819580963,2752.3015164486133
1712819581003,5818.186833575601
1712819581044,8902.210522520822
1712819581084,12237.167790918611
1712819581125,14349.419207643252
1712819581164,10770.50695855124
1712819581205,3465.59680404095
1712819581245,-3239.049786729738
1712819581285,-2445.4796087655704
1712819581326,-1221.1602224193048
1712819581366,1161.6259039165452
1712819581406,-38.454336741473526
1712819581446,-5621.857054864522
1712819581487,-9764.369878208498
1712819581527,-10337.658343143295
1712819581567,-8348.73483777279
1712819581607,-5000.403272372438
1712819581647,-105.44222582131624
1712819581688,6183.073456943035
1712819581729,11130.070815064944
1712819581768,15104.571445489302
1712819581808,16651.16244147555
1712819581849,6559.084084420465
1712819581889,-6415.124993654434
1712819581930,-16580.25723455916
1712819581970,-22933.08472741209
1712819582010,-27162.741552188993
1712819582050,-29422.33048987668
1712819582090,-31428.993731063558
1712819582131,-34678.13319168892
1712819582171,-36974.11461543827
1712819582211,-36516.515440555755
1712819582251,-34171.39654801902
1712819582291,-30728.100210257806
1712819582333,-27613.085870167706
1712819582372,-25062.131924983114
1712819582412,-22156.84311421984
1712819582453,-21458.442620527698
1712819582493,-18656.761577904224
1712819582534,-16094.112506937934
1712819582573,-21564.177024347475
1712819582613,-24223.414774128934
1712819582654,-23758.069010783453
1712819582694,-22862.95101406332
1712819582735,-19445.200741901994
1712819582774,-16680.62276793667
1712819582815,-15721.60350393923
1712819582855,-16470.18163987249
1712819582895,-16531.820589037612
1712819582936,-13838.381892948411
1712819582975,-10383.153319215635
1712819583016,-4052.9845814639702
1712819583056,1444.6915295158979
1712819583096,5798.2600940950215
1712819583137,9862.823459627107
1712819583176,12050.732968477532
1712819583216,14355.573504899628
1712819583257,12573.302541772136
1712819583297,3353.871418294031
1712819583338,-5360.838917554822
1712819583377,-11046.078821567819
1712819583417,-14231.545404464938
1712819583457,-15994.239619767759
1712819583498,-16154.27229027357
1712819583539,-19036.62850289978
1712819583578,-19997.089200092712
1712819583618,-18111.790507670492
1712819583659,-12820.85784239322
1712819583699,-6314.204715048429
1712819583740,-289.2577128247358
1712819583779,4433.6606070357375
1712819583819,5384.333177984925
1712819583860,6213.174006322399
1712819583900,7750.78507418884
1712819583941,8970.408684083726
1712819583980,4100.521125053754
1712819584021,-3820.2964958194643
1712819584061,-9761.203106278088
1712819584101,-11031.610837482847
1712819584142,-9691.969018994598
1712819584181,-3531.3597983203363
1712819584222,1796.7640991695225
1712819584262,4289.144308628049
1712819584302,5500.963194075506
1712819584343,6097.37499012379
1712819584383,9188.993489821907
1712819584423,12273.507335564587
1712819584463,16191.791244042106
1712819584504,19243.122594612185
1712819584544,20753.329378097085
1712819584585,21807.689988913946
1712819584626,21826.106670175213
1712819584666,22258.1261670019
1712819584706,14764.099143225467
1712819584747,5495.919922976755
1712819584787,400.841829450801
1712819584827,-2205.52609158447
1712819584867,-5227.666845017578
1712819584907,-11519.58673950797
1712819584948,-15723.61475475016
1712819584988,-20571.558908617822
1712819585028,-27540.93489046092
1712819585068,-26507.076494756155
1712819585109,-25070.2002454591
1712819585150,-30379.226553543704
1712819585189,-31971.303569485433
1712819585229,-28056.36640991969
1712819585269,-25279.56040478684
1712819585310,-20454.429803893203
1712819585351,-12371.445421004202
1712819585390,-5065.154079941334
1712819585431,-4196.509136731736
1712819585471,-13302.85306033492
1712819585511,-12625.534282766515
1712819585552,-29461.434302086476
1712819585592,-29348.682992887683
1712819585632,-20352.276582484832
1712819585672,-30506.55110607948
1712819585713,-31895.423176512588
1712819585753,-27901.33456098009
1712819585793,-34294.30129046878
1712819585833,-37659.671421126
1712819585874,-38504.70122223068
1712819585914,-34632.80902701174
1712819585955,-31561.822883331217
1712819585994,-26698.135882901028
1712819586036,-23579.9186878982
1712819586076,-26483.472482200712
1712819586116,-27995.717181419488
1712819586157,-33587.94103191979
1712819586196,-38076.84195454093
1712819586236,-42747.871763056144
1712819586277,-46291.47396552586
1712819586317,-45870.624941302696
1712819586358,-51935.10434165015
1712819586397,-52100.22611865727
1712819586437,-46225.59519391088
1712819586478,-42366.505704785
1712819586519,-48393.92495370982
1712819586560,-46868.41463192436
1712819586599,-46340.521410825895
1712819586639,-50161.43078671675
1712819586680,-49248.75417436636
1712819586720,-45415.18095759023
1712819586761,-42164.083881217986
1712819586801,-49037.18844590476
1712819586841,-40950.44080848945
1712819586881,-52068.61172892107
1712819586921,-63812.355287220795
1712819586962,-53954.56759881764
1712819587002,-49888.90818431601
1712819587042,-50797.079265463166
1712819587082,-42508.18411844876
1712819587122,-37097.95695689903
1712819587163,-33540.38681404991
1712819587203,-24974.74854508415
1712819587243,-18707.507427074248
1712819587284,-17548.869279673556
1712819587324,-17217.926805328345
1712819587365,-11085.693551816978
1712819587404,-8425.184572850354
1712819587444,-7632.2365154679865
1712819587485,-6096.83493994968
1712819587525,-3716.1333592091687
1712819587566,-3231.8808766007423
1712819587605,-5907.991050768644
1712819587646,-7583.021018967498
1712819587686,-12202.284427321749
1712819587726,-17588.45060219476
1712819587767,-21486.252954083495
1712819587807,-16011.495429960312
1712819587847,-16825.573481190484
1712819587887,-17711.795824378496
1712819587927,-12383.719508481212
1712819587969,-10617.705164651852
1712819588008,-8626.355158758117
1712819588048,-2340.04893352231
1712819588089,2422.387507471489
1712819588129,6487.903437389061
1712819588170,11087.259321139194
1712819588209,13828.790715642972
1712819588250,16720.37540444755
1712819588290,19956.152312660124
1712819588330,20989.451376024168
1712819588371,15186.838078661356
1712819588411,7004.748258110369
1712819588451,2035.0987551154103
1712819588491,345.1416263070423
1712819588531,562.520934548229
1712819588573,1350.1867046321277
1712819588613,1825.0393603178672
1712819588653,1327.0989994169213
1712819588693,1292.5449984367006
1712819588734,2842.294328262564
1712819588774,4647.0391840108205
1712819588814,7185.070023999549
1712819588854,9551.36005973164
1712819588894,12940.183209299576
1712819588934,15525.825402203714
1712819588975,19121.018115106504
1712819589015,22208.2058158624
1712819589055,26178.951865976444
1712819589095,26202.832580660004
1712819589135,20826.03976988606
1712819589176,13789.991700905608
1712819589216,10451.801609592047
1712819589256,9406.00900310697
1712819589296,10189.603423216846
1712819589336,12110.894850965124
1712819589377,12971.768396984553
1712819589416,13330.030312310439
1712819589457,13915.483392850962
1712819589497,15078.077663351083
1712819589537,17767.7899701579
1712819589578,20898.887492029695
1712819589617,23927.621785285184
1712819589657,27146.153486558702
1712819589698,30092.005494903307
1712819589738,33102.96753249969
1712819589779,35342.97700051102
1712819589818,37234.463126453804
1712819589859,37177.87662672717
1712819589899,30517.966897986364
1712819589939,21441.540890660137
1712819589980,15652.105041005183
1712819590020,12470.239650491625
1712819590060,11382.737044733018
1712819590100,11404.906400388572
1712819590140,11872.38565723598
1712819590182,10915.983011136763
1712819590221,10737.729301333427
1712819590261,11492.081514861435
1712819590302,13920.507804834284
1712819590342,16735.009458079934
1712819590383,19153.868502601283
1712819590422,20401.565615081927
1712819590463,23162.656893957173
1712819590503,25216.31342160143
1712819590543,27300.354726696387
1712819590584,29414.127548839897
1712819590624,30456.233307006536
1712819590664,25956.78451391589
1712819590704,16513.067714299075
1712819590744,8916.868377847131
1712819590785,5202.738259704784
1712819590825,3269.468004703056
1712819590865,2361.9188268731814
1712819590905,2296.2608740532305
1712819590946,1356.0364094199613
1712819590987,400.7349226551596
1712819591026,48.08761232718825
1712819591066,332.15189668769017
1712819591106,40.32509499276057
1712819591147,-307.81231357413344
1712819591188,1486.7088451469317
1712819591227,3725.5790021065623
1712819591268,8232.58739275788
1712819591309,10672.014422828564
1712819591350,14989.37849805737
1712819591391,18834.944086435484
1712819591430,17479.97105963109
1712819591471,11342.900429046014
1712819591511,5703.633098378312
1712819591551,2952.2794664362445
1712819591592,1551.0950845081825
1712819591632,-771.7391157641541
1712819591672,-6474.656593225896
1712819591712,-10754.606941305334
1712819591753,-12898.090135230683
1712819591793,-13122.850840419997
1712819591833,-14092.357936201151
1712819591873,-13730.115472752135
1712819591913,-13745.75169303664
1712819591953,-11400.662877244642
1712819591994,-6080.155550398398
1712819592034,-2421.316557217622
1712819592074,-966.4523806395009
1712819592114,-2676.5448853007983
1712819592154,-10785.886476666667
1712819592195,-20831.338596307673
1712819592234,-26235.01377020823
1712819592276,-26417.368960216176
1712819592307,-21201.400672546355
1712819592347,-16226.340634047752
1712819592388,-13558.148441420868
1712819592427,-10284.73364449921
1712819592468,-11987.692753696116
1712819592508,-10592.749390308047
1712819592548,-10988.05848800065
1712819592589,-8963.443975206697
1712819592628,-6149.72009284934
1712819592668,-2536.820834170794
1712819592708,4607.891466641566
1712819592748,15006.810656176647
1712819592789,25145.426233637612
1712819592829,35865.381245443365
1712819592869,39475.01247788407
1712819592909,41526.280759694055
1712819592949,42031.79236870678
1712819592990,47983.68580056983
1712819593029,51683.75090382993
1712819593069,54936.45684771892
1712819593109,60774.95581922075
1712819593149,64839.2403090687
1712819593190,67891.4966927222
1712819593230,66738.37990684761
1712819593270,62598.64246632671
1712819593310,58916.874734199606
1712819593350,55383.067682509776
1712819593391,53703.405367605155
1712819593431,55224.74194478756
1712819593471,58398.909748798236
1712819593511,58139.98035586253
1712819593551,49455.03704482177
1712819593592,37173.532028828515
1712819593631,29739.4663436166
1712819593671,28711.267969501438
1712819593711,27040.56123989541
1712819593751,29011.06030194927
1712819593792,28278.293074512156
1712819593832,28729.87722400506
1712819593872,29983.25092116976
1712819593912,27302.590112649603
1712819593952,26382.38461916335
1712819593993,27147.422889126465
1712819594032,28830.376201518346
1712819594072,32247.820959643228
1712819594112,34005.68785309605
1712819594152,36678.55679192743
1712819594193,32754.743369457312
1712819594233,23594.700858075637
1712819594273,13589.317166458815
1712819594313,8829.143711078214
1712819594354,7572.643304002006
1712819594395,7564.779419264756
1712819594434,7668.320279025473
1712819594475,8144.402161183301
1712819594515,8399.808570541209
1712819594555,8648.698609464336
1712819594596,10239.044096283847
1712819594636,13529.645114841871
1712819594676,16319.590781750623
1712819594716,19225.074866824318
1712819594756,21667.369452123996
1712819594797,24058.227186969016
1712819594837,21989.11063972488
1712819594877,12613.09954094328
1712819594917,4240.369448493235
1712819594957,-137.05530411191285
1712819594999,-1136.2439904524945
1712819595038,-604.0289870449342
1712819595078,1316.3924166925717
1712819595119,1682.28364870511
1712819595159,1174.3570522312075
1712819595200,2720.8142929878086
1712819595239,5261.397028867621
1712819595280,8819.316194495652
1712819595320,12013.48816010356
1712819595360,14990.466154452879
1712819595401,18642.16464486951
1712819595441,22148.14051823551
1712819595481,18989.466724811587
1712819595521,9649.16543918848
1712819595561,619.5656143825036
1712819595602,-4529.586206329055
1712819595642,-5970.95389605267
1712819595682,-5293.996069771703
1712819595722,-4233.431819518097
1712819595762,-4422.087843989953
1712819595803,-4375.60361205833
1712819595843,-3563.340611577034
1712819595883,-1379.2608109791763
1712819595923,1340.2569669629447
1712819595964,4992.015786811244
1712819596004,8482.016000149306
1712819596044,12064.296144997701
1712819596084,14822.145270531531
1712819596124,17385.136084914207
1712819596164,12007.577263767365
1712819596205,1403.1181348627433
1712819596245,-7721.949456857517
1712819596285,-11912.96765596699
1712819596325,-13208.33058238565
1712819596365,-13308.943029375281
1712819596406,-12947.22797962185
1712819596446,-12688.49234900088
1712819596486,-13416.440458253492
1712819596526,-12398.899466852192
1712819596567,-9719.231229854748
1712819596608,-6303.271166502964
1712819596648,-2258.245186258573
1712819596688,1505.7217670739628
1712819596728,4740.6940121143125
1712819596768,7334.687576426193
1712819596809,10629.97851024568
1712819596849,13800.148715008516
1712819596889,8190.837177988607
1712819596929,-2449.444345812546
1712819596969,-10515.808189457748
1712819597010,-14506.012720380211
1712819597050,-15524.43744299421
1712819597091,-14193.684796704212
1712819597131,-14017.159774310421
1712819597171,-14875.574159962125
1712819597212,-15264.514810430352
1712819597251,-14385.496668435168
1712819597292,-12183.223438046407
1712819597332,-8799.836725552566
1712819597372,-4254.202185789589
1712819597413,-849.4178916311357
1712819597453,2232.5161340758204
1712819597493,4876.710526019335
1712819597533,9005.808378492482
1712819597573,11553.85289310338
1712819597615,4964.150291523896
1712819597654,-4867.416071809828
1712819597694,-10956.205025165109
1712819597734,-13208.449850684032
1712819597775,-12718.978890581522
1712819597816,-11219.349965832662
1712819597855,-10534.447409579298
1712819597896,-11150.990267469082
1712819597936,-10825.979014222044
1712819597976,-9588.058363197139
1712819598017,-6589.094963686774
1712819598056,-2633.0564326178282
1712819598097,1198.8047048454173
1712819598137,4640.381823430769
1712819598177,7814.901284942403
1712819598218,10988.195541935507
1712819598258,14902.602187519893
1712819598298,12312.043320800643
1712819598338,2457.883644546848
1712819598379,-7230.748760844115
1712819598419,-12099.532640253892
1712819598459,-14509.798065082403
1712819598499,-14047.50244454923
1712819598540,-12960.354926709086
1712819598580,-12657.20875028614
1712819598621,-13128.9758764219
1712819598660,-12473.171478134114
1712819598701,-10252.647916477174
1712819598741,-3724.1727143072058
1712819598781,235.16041150828823
1712819598822,3281.941417071037
1712819598862,7126.028197559994
1712819598902,10552.364673090167
1712819598942,14130.450080027105
1712819598982,17272.528503736947
1712819599023,17077.761353855487
1712819599062,7191.364511239342
1712819599103,-3167.5880181849934
1712819599143,-9936.420142661082
1712819599183,-12347.51017280831
1712819599224,-13690.877557111671
1712819599263,-12576.84137240937
1712819599303,-12546.918801522814
1712819599344,-13210.478103399742
1712819599384,-12925.174777383916
1712819599425,-11235.380726782372
1712819599465,-7970.670225882903
1712819599505,-4039.0768680865876
1712819599545,-716.5096115458291
1712819599585,2785.485172642395
1712819599626,6426.41905808216
1712819599665,9387.58232470695
1712819599706,12235.62826702604
1712819599746,15756.26013146853
1712819599786,19179.990584243555
1712819599827,23285.364378849743
1712819599866,16556.341385047184
1712819599906,6437.286729078507
1712819599948,236.79667510697618
1712819599988,-1802.5229104312602
1712819600029,-1951.6468345401809
1712819600068,106.80494782002643
1712819600108,750.2827205432113
1712819600149,-997.1459196726792
1712819600189,-2177.1469754851423
1712819600230,-826.8948031084146
1712819600269,2201.554884271696
1712819600310,4966.872032507556
1712819600350,8229.619932237547
1712819600390,11896.296878234949
1712819600431,15205.206183154834
1712819600471,18359.51977439667
1712819600511,21231.876965362113
1712819600552,23894.854602231644
1712819600592,27315.305891385768
1712819600633,24955.34820730891
1712819600672,15344.04476298159
1712819600712,5949.893523352919
1712819600753,1116.8224868043326
1712819600793,-761.6521421554498
1712819600834,-704.9678308344446
1712819600873,-78.59634679206647
1712819600914,-626.9381590106059
1712819600954,-1484.1799552519806
1712819600994,-1143.0719573791139
1712819601035,603.9075628290884
1712819601075,3727.8031534869224
1712819601115,5889.25418683188
1712819601155,9998.942523843143
1712819601195,12127.111393190222
1712819601236,14315.565682639135
1712819601276,16936.66013777838
1712819601316,19564.223879744764
1712819601356,21974.986971889623
1712819601397,24803.220168697648
1712819601438,26795.313068069983
1712819601477,19243.6832962872
1712819601517,7498.6784186852165
1712819601558,-1991.7832654488739
1712819601598,-6887.710537291598
1712819601639,-9512.77131089056
1712819601678,-10791.92264225427
1712819601718,-11769.112462687073
1712819601759,-13418.534301803447
1712819601799,-14625.808789043687
1712819601840,-14297.702104619704
1712819601880,-12435.179972280748
1712819601920,-10211.432195984758
1712819601960,-7132.402141126106
1712819602001,-3292.69167679362
1712819602041,-384.7035925271921
1712819602081,2035.2862970589194
1712819602121,5214.285777627258
1712819602161,8177.815051554702
1712819602201,10985.038144764025
1712819602242,14528.024151795078
1712819602282,17377.713124722475
1712819602322,16641.404013636522
1712819602362,6106.974628799129
1712819602402,-4922.829760452267
1712819602443,-11475.784667391796
1712819602483,-14439.299770029029
1712819602523,-16006.4906700016
1712819602563,-16259.264637622051
1712819602603,-17379.917446047766
1712819602644,-19180.257640536875
1712819602683,-18855.738829466747
1712819602724,-16715.300520739984
1712819602764,-13305.661509493366
1712819602804,-10357.84932853235
1712819602845,-7886.728893798543
1712819602884,-4204.076535130851
1712819602924,-727.197425320046
1712819602965,1834.0526738693006
1712819603005,4954.694793768926
1712819603046,8445.546627291478
1712819603085,12157.656494349707
1712819603125,15279.975815336686
1712819603166,9177.977362636477
1712819603206,-2409.9502168600447
1712819603247,-11816.723875420168
1712819603287,-16534.77381984098
1712819603328,-19424.52978791017
1712819603368,-19883.89396582567
1712819603408,-19938.45817391388
1712819603449,-21054.347472883295
1712819603489,-21700.333494199673
1712819603529,-20599.000044063665
1712819603569,-18179.382210686337
1712819603609,-15567.737397573888
1712819603651,-12321.218423480634
1712819603690,-8970.732183185406
1712819603730,-5614.955469171749
1712819603771,-2287.630781327607
1712819603811,926.3482124209404
1712819603852,4370.520463029621
1712819603891,7750.547893083887
1712819603932,12725.08545804536
1712819603972,13786.600182479713
1712819604012,4268.165520168142
1712819604053,-6664.917187906336
1712819604093,-12765.997952397214
1712819604133,-14001.104217451531
1712819604173,-14502.537457611412
1712819604213,-14521.804494886193
1712819604254,-14238.695476274472
1712819604294,-15339.655600225553
1712819604334,-15432.594065154903
1712819604374,-13505.201091579627
1712819604414,-11046.940469526686
1712819604455,-8130.1569184684195
1712819604495,-4535.16420694394
1712819604535,-850.0698378542438
1712819604575,1856.7721007480286
1712819604615,4518.794147450477
1712819604656,6754.826671864372
1712819604695,8842.437110341154
1712819604736,13009.360344973858
1712819604776,15809.198266412597
1712819604816,7948.842982345261
1712819604857,-3384.66843799036
1712819604896,-10625.107671066187
1712819604936,-13617.184614824364
1712819604976,-13999.664071853738
1712819605017,-12296.726639634464
1712819605058,-12537.709306419361
1712819605097,-14099.072003452573
1712819605137,-14923.886979198083
1712819605178,-13361.37421042868
1712819605218,-11168.330909833312
1712819605259,-7561.133553653257
1712819605298,-4070.456665629754
1712819605339,-1006.6725973612629
1712819605379,1953.6765385824256
1712819605419,9189.312807647046
1712819605460,12339.391454472207
1712819605500,8050.239335886668
1712819605540,-2583.8319720020518
1712819605580,-11458.54818655504
1712819605620,-16329.64312660601
1712819605661,-18367.63384283334
1712819605701,-18187.939701479627
1712819605741,-17686.22693344066
1712819605781,-17794.36910585477
1712819605821,-18195.69115923508
1712819605862,-17369.8177971954
1712819605901,-14648.030986829428
1712819605942,-10502.815698847873
1712819605982,-6169.977182832081
1712819606022,-2558.88804218499
1712819606063,493.67186360340565
1712819606102,4325.777347275289
1712819606142,8153.25284048263
1712819606183,11538.372581940144
1712819606223,15232.337069629924
1712819606264,14873.398844928015
1712819606303,4856.411461835727
1712819606343,-5927.917011027224
1712819606383,-11595.631362413522
1712819606424,-14578.933452741476
1712819606465,-16096.913370671915
1712819606504,-15574.239978191908
1712819606544,-15568.878111593891
1712819606585,-15961.612976294477
1712819606625,-14823.222648399416
1712819606666,-12835.90666821599
1712819606705,-9504.576486205682
1712819606745,-5657.467592585366
