dataReceived,timestamp,ppg,status
1711590077335,1711590065251,2097152,0
1711590077335,1711590065294,2317284,0
1711590077335,1711590065331,2317438,0
1711590077335,1711590065372,2317548,0
1711590077335,1711590065411,2317735,0
1711590077335,1711590065452,2317832,0
1711590077335,1711590065492,2317853,0
1711590077335,1711590065532,2317945,0
1711590077335,1711590065573,2317672,0
1711590077335,1711590065612,2317244,0
1711590077335,1711590065652,2191329,0
1711590077335,1711590065692,2191284,0
1711590077335,1711590065732,2191243,0
1711590077335,1711590065773,2191359,0
1711590077335,1711590065813,2191521,0
1711590077335,1711590065852,2131164,0
1711590077335,1711590065893,2131318,0
1711590077335,1711590065933,2131510,0
1711590077335,1711590065974,2131847,0
1711590077335,1711590066013,2132159,0
1711590077335,1711590066053,2105730,0
1711590077335,1711590066093,2106674,0
1711590077335,1711590066133,2107717,0
1711590077335,1711590066174,2108596,0
1711590077335,1711590066213,2109610,0
1711590077335,1711590066253,2110467,0
1711590077335,1711590066293,2110179,0
1711590077335,1711590066333,2107464,0
1711590077335,1711590066374,2104841,0
1711590077335,1711590066414,2103349,0
1711590077335,1711590066454,2103051,0
1711590077335,1711590066494,2104804,0
1711590077335,1711590066534,2104926,0
1711590077335,1711590066575,2106653,0
1711590077335,1711590066614,2107270,0
1711590077335,1711590066654,2108673,0
1711590077335,1711590066694,2109779,0
1711590077335,1711590066734,2111113,0
1711590077335,1711590066776,2111728,0
1711590077335,1711590066815,2112047,0
1711590077335,1711590066855,2112631,0
1711590077335,1711590066895,2113775,0
1711590077335,1711590066935,2115485,0
1711590077335,1711590066976,2116203,0
1711590077335,1711590067015,2118098,0
1711590077335,1711590067055,2119542,0
1711590077335,1711590067095,2119292,0
1711590077335,1711590067136,2119728,0
1711590077335,1711590067176,2120107,0
1711590077335,1711590067216,2120499,0
1711590077335,1711590067256,2121123,0
1711590077335,1711590067296,2121957,0
1711590077335,1711590067336,2122583,0
1711590077335,1711590067377,2123157,0
1711590077335,1711590067416,2123542,0
1711590077335,1711590067456,2123771,0
1711590077335,1711590067499,2124142,0
1711590077335,1711590067536,2124731,0
1711590077335,1711590067577,2125477,0
1711590077335,1711590067617,2125966,0
1711590077335,1711590067657,2126630,0
1711590077335,1711590067697,2127063,0
1711590077335,1711590067737,2127542,0
1711590077335,1711590067778,2127557,0
1711590077335,1711590067817,2127629,0
1711590077335,1711590067857,2128329,0
1711590077335,1711590067897,2128884,0
1711590077335,1711590067938,2128797,0
1711590077335,1711590067979,2129223,0
1711590077335,1711590068018,2129287,0
1711590077335,1711590068058,2129997,0
1711590077335,1711590068098,2130807,0
1711590077335,1711590068138,2131020,0
1711590077335,1711590068179,2131139,0
1711590077335,1711590068218,2131325,0
1711590077335,1711590068258,2131898,0
1711590077335,1711590068299,2132130,0
1711590077335,1711590068339,2132841,0
1711590077335,1711590068380,2133384,0
1711590077335,1711590068419,2133681,0
1711590077335,1711590068459,2133846,0
1711590077335,1711590068499,2134034,0
1711590077335,1711590068539,2134298,0
1711590077335,1711590068580,2134373,0
1711590077335,1711590068620,2134289,0
1711590077335,1711590068660,2134386,0
1711590077335,1711590068700,2134699,0
1711590077335,1711590068740,2134958,0
1711590077335,1711590068781,2135270,0
1711590077335,1711590068820,2135495,0
1711590077335,1711590068860,2135871,0
1711590077335,1711590068900,2136288,0
1711590077335,1711590068941,2136522,0
1711590077335,1711590068981,2137005,0
1711590077335,1711590069021,2137306,0
1711590077335,1711590069061,2137838,0
1711590077335,1711590069101,2138083,0
1711590077335,1711590069141,2138479,0
1711590077335,1711590069182,2138632,0
1711590077335,1711590069221,2138627,0
1711590077335,1711590069261,2138377,0
1711590077335,1711590069302,2138236,0
1711590077335,1711590069342,2138300,0
1711590077335,1711590069383,2138387,0
1711590077335,1711590069422,2138581,0
1711590077335,1711590069462,2138964,0
1711590077335,1711590069502,2139091,0
1711590077335,1711590069542,2139479,0
1711590077335,1711590069583,2139778,0
1711590077335,1711590069622,2140037,0
1711590077335,1711590069663,2140282,0
1711590077335,1711590069706,2140769,0
1711590077335,1711590069743,2141079,0
1711590077335,1711590069784,2141488,0
1711590077335,1711590069823,2141857,0
1711590077335,1711590069863,2142090,0
1711590077335,1711590069903,2142056,0
1711590077335,1711590069943,2141767,0
1711590077335,1711590069984,2141394,0
1711590077335,1711590070024,2141226,0
1711590077335,1711590070064,2141093,0
1711590077335,1711590070104,2140887,0
1711590077335,1711590070144,2140805,0
1711590077335,1711590070185,2140974,0
1711590077335,1711590070224,2141103,0
1711590077335,1711590070264,2141116,0
1711590077335,1711590070304,2141319,0
1711590077335,1711590070344,2141616,0
1711590077335,1711590070385,2141880,0
1711590077335,1711590070424,2142228,0
1711590077335,1711590070464,2142517,0
1711590077335,1711590070504,2142816,0
1711590077335,1711590070545,2143260,0
1711590077335,1711590070585,2143356,0
1711590077335,1711590070625,2142928,0
1711590077335,1711590070665,2142399,0
1711590077335,1711590070705,2141633,0
1711590077335,1711590070745,2140429,0
1711590077335,1711590070786,2139381,0
1711590077335,1711590070825,2138446,0
1711590077335,1711590070865,2137684,0
1711590077335,1711590070905,2136913,0
1711590077335,1711590070945,2136283,0
1711590077335,1711590070987,2136034,0
1711590077335,1711590071026,2135758,0
1711590077335,1711590071066,2136042,0
1711590077335,1711590071106,2136214,0
1711590077335,1711590071146,2136201,0
1711590077335,1711590071187,2136348,0
1711590077335,1711590071226,2136512,0
1711590077335,1711590071266,2136598,0
1711590077335,1711590071306,2136650,0
1711590077335,1711590071347,2135820,0
1711590077335,1711590071387,2133596,0
1711590077335,1711590071427,2131046,0
1711590077335,1711590071467,2128655,0
1711590077335,1711590071507,2126658,0
1711590077335,1711590071547,2124695,0
1711590077335,1711590071588,2122710,0
1711590077335,1711590071627,2120350,0
1711590077335,1711590071667,2118603,0
1711590077335,1711590071707,2116939,0
1711590077335,1711590071747,2115675,0
1711590077335,1711590071788,2114898,0
1711590077335,1711590071827,2114000,0
1711590077335,1711590071867,2113481,0
1711590077335,1711590071908,2113246,0
1711590077335,1711590071948,2112970,0
1711590077335,1711590071989,2112345,0
1711590077335,1711590072028,2110845,0
1711590077335,1711590072068,2109038,0
1711590077335,1711590072108,2107653,0
1711590077335,1711590072148,2106271,0
1711590077335,1711590072189,2105233,0
1711590077335,1711590072228,2104359,0
1711590077335,1711590072268,2103708,0
1711590077335,1711590072309,2102791,0
1711590077335,1711590072349,2102144,0
1711590077335,1711590072390,2101530,0
1711590077335,1711590072429,2100824,0
1711590077335,1711590072469,2100459,0
1711590077335,1711590072509,2100187,0
1711590077335,1711590072549,2099929,0
1711590077335,1711590072590,2099847,0
1711590077335,1711590072629,2099077,0
1711590077335,1711590072669,2096779,0
1711590077335,1711590072709,2093183,0
1711590077335,1711590072749,2089847,0
1711590077335,1711590072791,2087259,0
1711590077335,1711590072830,2085588,0
1711590077335,1711590072870,2084080,0
1711590077335,1711590072910,2082841,0
1711590077335,1711590072950,2081607,0
1711590077335,1711590072991,2080542,0
1711590077335,1711590073030,2079541,0
1711590077335,1711590073070,2078966,0
1711590077335,1711590073110,2078656,0
1711590077335,1711590073151,2078223,0
1711590077335,1711590073192,2078045,0
1711590077335,1711590073231,2077855,0
1711590077335,1711590073271,2075730,0
1711590077335,1711590073311,2068565,0
1711590077335,1711590073351,2062421,0
1711590077335,1711590073392,2058187,0
1711590077335,1711590073431,2055025,0
1711590077335,1711590073471,2052646,0
1711590077335,1711590073512,2050853,0
1711590077335,1711590073551,2049191,0
1711590077335,1711590073593,2047764,0
1711590077335,1711590073632,2046528,0
1711590077335,1711590073672,2045875,0
1711590077335,1711590073712,2045453,0
1711590077335,1711590073752,2045409,0
1711590077335,1711590073793,2045176,0
1711590077335,1711590073832,2044570,0
1711590077335,1711590073872,2044206,0
1711590077335,1711590073912,2043888,0
1711590077335,1711590073953,2039677,0
1711590077335,1711590073994,2031706,0
1711590077335,1711590074033,2026606,0
1711590077335,1711590074073,2023168,0
1711590077335,1711590074113,2020721,0
1711590077335,1711590074153,2019182,0
1711590077335,1711590074194,2017789,0
1711590077335,1711590074233,2016620,0
1711590077335,1711590074273,2015581,0
1711590077335,1711590074313,2015050,0
1711590077335,1711590074354,2014732,0
1711590077335,1711590074395,2015153,0
1711590077335,1711590074434,2015551,0
1711590077335,1711590074474,2016239,0
1711590077335,1711590074514,2016863,0
1711590077335,1711590074554,2017611,0
1711590077335,1711590074595,2018418,0
1711590077335,1711590074634,2018108,0
1711590077335,1711590074674,2011237,0
1711590077335,1711590074715,2005497,0
1711590077335,1711590074754,2002360,0
1711590077335,1711590074796,2000709,0
1711590077335,1711590074835,1999839,0
1711590077335,1711590074875,1999437,0
1711590077335,1711590074915,1999015,0
1711590077335,1711590074955,1998631,0
1711590077335,1711590074996,1998361,0
1711590077335,1711590075035,1998587,0
1711590077335,1711590075075,1999189,0
1711590077335,1711590075115,1999990,0
1711590077335,1711590075156,2000961,0
1711590077335,1711590075197,2002240,0
1711590077335,1711590075236,2003360,0
1711590077335,1711590075276,2004695,0
1711590077335,1711590075316,2005911,0
1711590077335,1711590075356,2006803,0
1711590077335,1711590075397,2002066,0
1711590077335,1711590075436,1996553,0
1711590077335,1711590075476,1993904,0
1711590077335,1711590075517,1992788,0
1711590077335,1711590075557,1992581,0
1711590077335,1711590075598,1992771,0
1711590077335,1711590075637,1992997,0
1711590077335,1711590075677,1993026,0
1711590077335,1711590075717,1993122,0
1711590077335,1711590075757,1993552,0
1711590077335,1711590075798,1994450,0
1711590077335,1711590075837,1995601,0
1711590077335,1711590075877,1996729,0
1711590077335,1711590075918,1998148,0
1711590077335,1711590075958,1999540,0
1711590077335,1711590075999,2001139,0
1711590077335,1711590076038,2002623,0
1711590077335,1711590076078,2004166,0
1711590077335,1711590076118,2005015,0
1711590077335,1711590076158,2001395,0
1711590077335,1711590076199,1997791,0
1711590077335,1711590076238,1996689,0
1711590077335,1711590076278,1996828,0
1711590077335,1711590076318,1997350,0
1711590077335,1711590076359,1998394,0
1711590077335,1711590076400,1999204,0
1711590077335,1711590076439,1999945,0
1711590077335,1711590076479,2000733,0
1711590077335,1711590076519,2001716,0
1711590077335,1711590076559,2002944,0
1711590077335,1711590076600,2004293,0
1711590077335,1711590076639,2005801,0
1711590077335,1711590076679,2007323,0
1711590077335,1711590076719,2008954,0
1711590077335,1711590076760,2010575,0
1711590077335,1711590076801,2012149,0
1711590077335,1711590076840,2013610,0
1711590077335,1711590076880,2013663,0
1711590077335,1711590076920,2011534,0
1711590077335,1711590076960,2010330,0
1711590077335,1711590077001,2010710,0
1711590077335,1711590077040,2012487,0
1711590077335,1711590077080,2016027,0
1711590077335,1711590077121,2020451,0
1711590077335,1711590077161,2025522,0
1711590077335,1711590077202,2029319,0
1711590077335,1711590077241,2032575,0
1711590089359,1711590077281,2035877,0
1711590089359,1711590077321,2039283,0
1711590089359,1711590077361,2041556,0
1711590089359,1711590077402,2042512,0
1711590089359,1711590077441,2044522,0
1711590089359,1711590077481,2045898,0
1711590089359,1711590077521,2046793,0
1711590089359,1711590077562,2044854,0
1711590089359,1711590077603,2036690,0
1711590089359,1711590077642,2030550,0
1711590089359,1711590077682,2027393,0
1711590089359,1711590077722,2025990,0
1711590089359,1711590077762,2025754,0
1711590089359,1711590077803,2025886,0
1711590089359,1711590077843,2025469,0
1711590089359,1711590077883,2024367,0
1711590089359,1711590077923,2023733,0
1711590089359,1711590077963,2023902,0
1711590089359,1711590078004,2024484,0
1711590089359,1711590078043,2025482,0
1711590089359,1711590078083,2026910,0
1711590089359,1711590078123,2028349,0
1711590089359,1711590078163,2029918,0
1711590089359,1711590078205,2031403,0
1711590089359,1711590078244,2032925,0
1711590089359,1711590078284,2028151,0
1711590089359,1711590078324,2020498,0
1711590089359,1711590078364,2015608,0
1711590089359,1711590078405,2013215,0
1711590089359,1711590078444,2012341,0
1711590089359,1711590078484,2012403,0
1711590089359,1711590078524,2012577,0
1711590089359,1711590078564,2012036,0
1711590089359,1711590078605,2011358,0
1711590089359,1711590078644,2010865,0
1711590089359,1711590078684,2011288,0
1711590089359,1711590078724,2012249,0
1711590089359,1711590078764,2013591,0
1711590089359,1711590078806,2015130,0
1711590089359,1711590078845,2016696,0
1711590089359,1711590078885,2018440,0
1711590089359,1711590078925,2019999,0
1711590089359,1711590078965,2014342,0
1711590089359,1711590079006,2006563,0
1711590089359,1711590079045,2001522,0
1711590089359,1711590079085,1999030,0
1711590089359,1711590079125,1998105,0
1711590089359,1711590079165,1998049,0
1711590089359,1711590079206,1998120,0
1711590089359,1711590079245,1997622,0
1711590089359,1711590079286,1996867,0
1711590089359,1711590079326,1996580,0
1711590089359,1711590079366,1996982,0
1711590089359,1711590079407,1998073,0
1711590089359,1711590079446,1999511,0
1711590089359,1711590079486,2001331,0
1711590089359,1711590079526,2003100,0
1711590089359,1711590079566,2005041,0
1711590089359,1711590079607,2005943,0
1711590089359,1711590079646,1998296,0
1711590089359,1711590079686,1989602,0
1711590089359,1711590079726,1983789,0
1711590089359,1711590079767,1980709,0
1711590089359,1711590079808,1978732,0
1711590089359,1711590079847,1977760,0
1711590089359,1711590079887,1977152,0
1711590089359,1711590079927,1975966,0
1711590089359,1711590079967,1974841,0
1711590089359,1711590080008,1974306,0
1711590089359,1711590080047,1974557,0
1711590089359,1711590080087,1975376,0
1711590089359,1711590080127,1976812,0
1711590089359,1711590080167,1978333,0
1711590089359,1711590080208,1980185,0
1711590089359,1711590080248,1981878,0
1711590089359,1711590080288,1982536,0
1711590089359,1711590080328,1974022,0
1711590089359,1711590080368,1963752,0
1711590089359,1711590080409,1956875,0
1711590089359,1711590080448,1952709,0
1711590089359,1711590080488,1949739,0
1711590089359,1711590080528,1947883,0
1711590089359,1711590080568,1946596,0
1711590089359,1711590080609,1945122,0
1711590089359,1711590080649,1943430,0
1711590089359,1711590080689,1942715,0
1711590089359,1711590080729,1942704,0
1711590089359,1711590080769,1943519,0
1711590089359,1711590080810,1944920,0
1711590089359,1711590080849,1946433,0
1711590089359,1711590080889,1948017,0
1711590089359,1711590080929,1949823,0
1711590089359,1711590080969,1951741,0
1711590089359,1711590081010,1948625,0
1711590089359,1711590081050,1937314,0
1711590089359,1711590081090,1927306,0
1711590089359,1711590081130,1921143,0
1711590089359,1711590081170,1916880,0
1711590089359,1711590081211,1913575,0
1711590089359,1711590081250,1911748,0
1711590089359,1711590081290,1909848,0
1711590089359,1711590081330,1907966,0
1711590089359,1711590081370,1906552,0
1711590089359,1711590081411,1906244,0
1711590089359,1711590081451,1906805,0
1711590089359,1711590081491,1908116,0
1711590089359,1711590081531,1909667,0
1711590089359,1711590081571,1911402,0
1711590089359,1711590081612,1913050,0
1711590089359,1711590081651,1914720,0
1711590089359,1711590081691,1916391,0
1711590089359,1711590081731,1918097,0
1711590089359,1711590081771,1910414,0
1711590089359,1711590081812,1897724,0
1711590089359,1711590081852,1888897,0
1711590089359,1711590081892,1883050,0
1711590089359,1711590081932,1878740,0
1711590089359,1711590081972,1875520,0
1711590089359,1711590082013,1874107,0
1711590089359,1711590082052,1872538,0
1711590089359,1711590082092,1870781,0
1711590089359,1711590082132,1869672,0
1711590089359,1711590082172,1869566,0
1711590089359,1711590082213,1870153,0
1711590089359,1711590082252,1871396,0
1711590089359,1711590082293,1872958,0
1711590089359,1711590082333,1874569,0
1711590089359,1711590082373,1876363,0
1711590089359,1711590082414,1878335,0
1711590089359,1711590082453,1880368,0
1711590089359,1711590082493,1880177,0
1711590089359,1711590082533,1869338,0
1711590089359,1711590082573,1857639,0
1711590089359,1711590082614,1850295,0
1711590089359,1711590082654,1845491,0
1711590089359,1711590082693,1841491,0
1711590089359,1711590082734,1839545,0
1711590089359,1711590082774,1837884,0
1711590089359,1711590082814,1835970,0
1711590089359,1711590082854,1834648,0
1711590089359,1711590082894,1834195,0
1711590089359,1711590082934,1834828,0
1711590089359,1711590082974,1835939,0
1711590089359,1711590083015,1837691,0
1711590089359,1711590083054,1839553,0
1711590089359,1711590083094,1841717,0
1711590089359,1711590083135,1843808,0
1711590089359,1711590083175,1846091,0
1711590089359,1711590083215,1848575,0
1711590089359,1711590083255,1847902,0
1711590089359,1711590083295,1836780,0
1711590089359,1711590083335,1826254,0
1711590089359,1711590083375,1820057,0
1711590089359,1711590083416,1816076,0
1711590089359,1711590083455,1812838,0
1711590089359,1711590083495,1811436,0
1711590089359,1711590083535,1810632,0
1711590089359,1711590083576,1809524,0
1711590089359,1711590083616,1808927,0
1711590089359,1711590083656,1809337,0
1711590089359,1711590083696,1810620,0
1711590089359,1711590083736,1812637,0
1711590089359,1711590083776,1814968,0
1711590089359,1711590083817,1817638,0
1711590089359,1711590083856,1820477,0
1711590089359,1711590083896,1823331,0
1711590089359,1711590083936,1826141,0
1711590089359,1711590083977,1829254,0
1711590089359,1711590084017,1832197,0
1711590089359,1711590084057,1826130,0
1711590089359,1711590084097,1814460,0
1711590089359,1711590084137,1806509,0
1711590089359,1711590084177,1801714,0
1711590089359,1711590084218,1798072,0
1711590089359,1711590084257,1795619,0
1711590089359,1711590084297,1795068,0
1711590089359,1711590084338,1794615,0
1711590089359,1711590084377,1794212,0
1711590089359,1711590084418,1794587,0
1711590089359,1711590084458,1795797,0
1711590089359,1711590084498,1797805,0
1711590089359,1711590084538,1800336,0
1711590089359,1711590084578,1803282,0
1711590089359,1711590084619,1806445,0
1711590089359,1711590084658,1809666,0
1711590089359,1711590084698,1812971,0
1711590089359,1711590084739,1816481,0
1711590089359,1711590084779,1819912,0
1711590089359,1711590084820,1823626,0
1711590089359,1711590084859,1827472,0
1711590089359,1711590084899,1830681,0
1711590089359,1711590084939,1823762,0
1711590089359,1711590084979,1813264,0
1711590089359,1711590085020,1806618,0
1711590089359,1711590085060,1802765,0
1711590089359,1711590085100,1800000,0
1711590089359,1711590085140,1798217,0
1711590089359,1711590085180,1797998,0
1711590089359,1711590085221,1797745,0
1711590089359,1711590085260,1797847,0
1711590089359,1711590085300,1798513,0
1711590089359,1711590085340,1800089,0
1711590089359,1711590085381,1802354,0
1711590089359,1711590085421,1805238,0
1711590089359,1711590085461,1808341,0
1711590089359,1711590085501,1811712,0
1711590089359,1711590085541,1815167,0
1711590089359,1711590085581,1818749,0
1711590089359,1711590085622,1822177,0
1711590089359,1711590085661,1826010,0
1711590089359,1711590085701,1829692,0
1711590089359,1711590085742,1833674,0
1711590089359,1711590085782,1837763,0
1711590089359,1711590085823,1842145,0
1711590089359,1711590085862,1846116,0
1711590089359,1711590085902,1841308,0
1711590089359,1711590085942,1831722,0
1711590089359,1711590085982,1824435,0
1711590089359,1711590086023,1820314,0
1711590089359,1711590086063,1817695,0
1711590089359,1711590086103,1815240,0
1711590089359,1711590086143,1813877,0
1711590089359,1711590086183,1812878,0
1711590089359,1711590086224,1813545,0
1711590089359,1711590086264,1815496,0
1711590089359,1711590086304,1821113,0
1711590089359,1711590086344,1828132,0
1711590089359,1711590086384,1834783,0
1711590089359,1711590086425,1839837,0
1711590089359,1711590086464,1843534,0
1711590089359,1711590086504,1845915,0
1711590089359,1711590086544,1847751,0
1711590089359,1711590086584,1848877,0
1711590089359,1711590086625,1849927,0
1711590089359,1711590086664,1850638,0
1711590089359,1711590086704,1852348,0
1711590089359,1711590086744,1854518,0
1711590089359,1711590086784,1857202,0
1711590089359,1711590086825,1859546,0
1711590089359,1711590086865,1861930,0
1711590089359,1711590086904,1863724,0
1711590089359,1711590086945,1866296,0
1711590089359,1711590086985,1868851,0
1711590089359,1711590087025,1870585,0
1711590089359,1711590087065,1872146,0
1711590089359,1711590087105,1873222,0
1711590089359,1711590087145,1873968,0
1711590089359,1711590087185,1874547,0
1711590089359,1711590087226,1874247,0
1711590089359,1711590087265,1873892,0
1711590089359,1711590087305,1873219,0
1711590089359,1711590087346,1872373,0
1711590089359,1711590087386,1871498,0
1711590089359,1711590087426,1871130,0
1711590089359,1711590087466,1871254,0
1711590089359,1711590087506,1871138,0
1711590089359,1711590087546,1870848,0
1711590089359,1711590087586,1871486,0
1711590089359,1711590087627,1872199,0
1711590089359,1711590087666,1872915,0
1711590089359,1711590087706,1873817,0
1711590089359,1711590087746,1874609,0
1711590089359,1711590087787,1875504,0
1711590089359,1711590087827,1876547,0
1711590089359,1711590087867,1878024,0
1711590089359,1711590087907,1883951,0
1711590089359,1711590087947,1892309,0
1711590089359,1711590087987,1898689,0
1711590089359,1711590088028,1903237,0
1711590089359,1711590088067,1908117,0
1711590089359,1711590088107,1912135,0
1711590089359,1711590088147,1916243,0
1711590089359,1711590088188,1919522,0
1711590089359,1711590088228,1923082,0
1711590089359,1711590088268,1926339,0
1711590089359,1711590088308,1929292,0
1711590089359,1711590088348,1932532,0
1711590089359,1711590088388,1935653,0
1711590089359,1711590088429,1938458,0
1711590089359,1711590088468,1941100,0
1711590089359,1711590088508,1943632,0
1711590089359,1711590088548,1946210,0
1711590089359,1711590088588,1948654,0
1711590089359,1711590088629,1951184,0
1711590089359,1711590088669,1953599,0
1711590089359,1711590088709,1955967,0
1711590089359,1711590088749,1958143,0
1711590089359,1711590088789,1960459,0
1711590089359,1711590088830,1962691,0
1711590089359,1711590088869,1964701,0
1711590089359,1711590088909,1966487,0
1711590089359,1711590088949,1967948,0
1711590089359,1711590088989,1969468,0
1711590089359,1711590089030,1971189,0
1711590089359,1711590089069,1972730,0
1711590089359,1711590089110,1974421,0
1711590089359,1711590089150,1975979,0
1711590089359,1711590089190,1977742,0
1711590089359,1711590089231,1979382,0
1711590089359,1711590089270,1981141,0
1711590101391,1711590089310,1982860,0
1711590101391,1711590089350,1984710,0
1711590101391,1711590089390,1986383,0
1711590101391,1711590089431,1988216,0
1711590101391,1711590089470,1989909,0
1711590101391,1711590089511,1991690,0
1711590101391,1711590089551,1993240,0
1711590101391,1711590089591,1994305,0
1711590101391,1711590089632,1995376,0
1711590101391,1711590089671,1996355,0
1711590101391,1711590089711,1997203,0
1711590101391,1711590089751,1998569,0
1711590101391,1711590089791,1999677,0
1711590101391,1711590089832,2000719,0
1711590101391,1711590089871,2001939,0
1711590101391,1711590089911,2002119,0
1711590101391,1711590089952,2003009,0
1711590101391,1711590089992,2004060,0
1711590101391,1711590090032,2004936,0
1711590101391,1711590090072,2005807,0
1711590101391,1711590090112,2007079,0
1711590101391,1711590090152,2009263,0
1711590101391,1711590090192,2011751,0
1711590101391,1711590090233,2015105,0
1711590101391,1711590090272,2017267,0
1711590101391,1711590090312,2019181,0
1711590101391,1711590090353,2020994,0
1711590101391,1711590090393,2021299,0
1711590101391,1711590090433,2017520,0
1711590101391,1711590090473,2016239,0
1711590101391,1711590090513,2013654,0
1711590101391,1711590090553,2010364,0
1711590101391,1711590090593,2008498,0
1711590101391,1711590090634,2006857,0
1711590101391,1711590090673,2005846,0
1711590101391,1711590090713,2005636,0
1711590101391,1711590090753,2005764,0
1711590101391,1711590090794,2006222,0
1711590101391,1711590090834,2006757,0
1711590101391,1711590090874,2006347,0
1711590101391,1711590090914,1998452,0
1711590101391,1711590090954,1988707,0
1711590101391,1711590090994,1980899,0
1711590101391,1711590091035,1975286,0
1711590101391,1711590091074,1971190,0
1711590101391,1711590091114,1968465,0
1711590101391,1711590091154,1966359,0
1711590101391,1711590091195,1963915,0
1711590101391,1711590091235,1961617,0
1711590101391,1711590091275,1960001,0
1711590101391,1711590091315,1959136,0
1711590101391,1711590091355,1959068,0
1711590101391,1711590091395,1959438,0
1711590101391,1711590091436,1960080,0
1711590101391,1711590091475,1961163,0
1711590101391,1711590091515,1960540,0
1711590101391,1711590091556,1951582,0
1711590101391,1711590091596,1941392,0
1711590101391,1711590091636,1934251,0
1711590101391,1711590091676,1929457,0
1711590101391,1711590091716,1925759,0
1711590101391,1711590091756,1923511,0
1711590101391,1711590091796,1921891,0
1711590101391,1711590091837,1919776,0
1711590101391,1711590091876,1917678,0
1711590101391,1711590091916,1916079,0
1711590101391,1711590091956,1915320,0
1711590101391,1711590091997,1915403,0
1711590101391,1711590092038,1915909,0
1711590101391,1711590092077,1916861,0
1711590101391,1711590092117,1918055,0
1711590101391,1711590092157,1913191,0
1711590101391,1711590092197,1901327,0
1711590101391,1711590092238,1891422,0
1711590101391,1711590092278,1885056,0
1711590101391,1711590092318,1880722,0
1711590101391,1711590092358,1877668,0
1711590101391,1711590092398,1876094,0
1711590101391,1711590092439,1874267,0
1711590101391,1711590092478,1872299,0
1711590101391,1711590092518,1870877,0
1711590101391,1711590092558,1870133,0
1711590101391,1711590092598,1870268,0
1711590101391,1711590092639,1871013,0
1711590101391,1711590092679,1872429,0
1711590101391,1711590092719,1874189,0
1711590101391,1711590092759,1876152,0
1711590101391,1711590092799,1872227,0
1711590101391,1711590092840,1860090,0
1711590101391,1711590092879,1849754,0
1711590101391,1711590092919,1842802,0
1711590101391,1711590092960,1838022,0
1711590101391,1711590093000,1834317,0
1711590101391,1711590093040,1832525,0
1711590101391,1711590093080,1831368,0
1711590101391,1711590093120,1829951,0
1711590101391,1711590093160,1828819,0
1711590101391,1711590093200,1828640,0
1711590101391,1711590093241,1829343,0
1711590101391,1711590093280,1830646,0
1711590101391,1711590093321,1832526,0
1711590101391,1711590093361,1834732,0
1711590101391,1711590093401,1837242,0
1711590101391,1711590093442,1839844,0
1711590101391,1711590093481,1840149,0
1711590101391,1711590093521,1829113,0
1711590101391,1711590093561,1817241,0
1711590101391,1711590093602,1809571,0
1711590101391,1711590093642,1804482,0
1711590101391,1711590093682,1800643,0
1711590101391,1711590093722,1798456,0
1711590101391,1711590093762,1797311,0
1711590101391,1711590093802,1796358,0
1711590101391,1711590093843,1795457,0
1711590101391,1711590093883,1795411,0
1711590101391,1711590093923,1796353,0
1711590101391,1711590093963,1798088,0
1711590101391,1711590094003,1800425,0
1711590101391,1711590094044,1802989,0
1711590101391,1711590094083,1805818,0
1711590101391,1711590094123,1808565,0
1711590101391,1711590094163,1811451,0
1711590101391,1711590094204,1814519,0
1711590101391,1711590094244,1816509,0
1711590101391,1711590094284,1806964,0
1711590101391,1711590094324,1795288,0
1711590101391,1711590094364,1787845,0
1711590101391,1711590094404,1783541,0
1711590101391,1711590094445,1780497,0
1711590101391,1711590094484,1778892,0
1711590101391,1711590094524,1778517,0
1711590101391,1711590094564,1778100,0
1711590101391,1711590094604,1777739,0
1711590101391,1711590094645,1777920,0
1711590101391,1711590094685,1778958,0
1711590101391,1711590094724,1781041,0
1711590101391,1711590094765,1783451,0
1711590101391,1711590094805,1786452,0
1711590101391,1711590094845,1789601,0
1711590101391,1711590094885,1792940,0
1711590101391,1711590094925,1796222,0
1711590101391,1711590094965,1799628,0
1711590101391,1711590095005,1803012,0
1711590101391,1711590095046,1806618,0
1711590101391,1711590095085,1810277,0
1711590101391,1711590095125,1807947,0
1711590101391,1711590095166,1797055,0
1711590101391,1711590095206,1787873,0
1711590101391,1711590095246,1783220,0
1711590101391,1711590095286,1780692,0
1711590101391,1711590095326,1778963,0
1711590101391,1711590095366,1778831,0
1711590101391,1711590095406,1778972,0
1711590101391,1711590095447,1779043,0
1711590101391,1711590095486,1779460,0
1711590101391,1711590095526,1780561,0
1711590101391,1711590095566,1782490,0
1711590101391,1711590095606,1785056,0
1711590101391,1711590095647,1788179,0
1711590101391,1711590095687,1791472,0
1711590101391,1711590095727,1795121,0
1711590101391,1711590095767,1798921,0
1711590101391,1711590095807,1802625,0
1711590101391,1711590095848,1806485,0
1711590101391,1711590095887,1810229,0
1711590101391,1711590095927,1814166,0
1711590101391,1711590095967,1816906,0
1711590101391,1711590096007,1810240,0
1711590101391,1711590096048,1801306,0
1711590101391,1711590096087,1795794,0
1711590101391,1711590096128,1793745,0
1711590101391,1711590096168,1793132,0
1711590101391,1711590096208,1793730,0
1711590101391,1711590096249,1794857,0
1711590101391,1711590096288,1795652,0
1711590101391,1711590096328,1796306,0
1711590101391,1711590096368,1797346,0
1711590101391,1711590096408,1799142,0
1711590101391,1711590096449,1801744,0
1711590101391,1711590096489,1804844,0
1711590101391,1711590096528,1808075,0
1711590101391,1711590096569,1811623,0
1711590101391,1711590096609,1815352,0
1711590101391,1711590096649,1818953,0
1711590101391,1711590096689,1822651,0
1711590101391,1711590096729,1826376,0
1711590101391,1711590096769,1830031,0
1711590101391,1711590096809,1827863,0
1711590101391,1711590096850,1820646,0
1711590101391,1711590096889,1815096,0
1711590101391,1711590096929,1813150,0
1711590101391,1711590096969,1813326,0
1711590101391,1711590097009,1814692,0
1711590101391,1711590097050,1816752,0
1711590101391,1711590097090,1818391,0
1711590101391,1711590097130,1819582,0
1711590101391,1711590097170,1820834,0
1711590101391,1711590097210,1822643,0
1711590101391,1711590097251,1825154,0
1711590101391,1711590097290,1828072,0
1711590101391,1711590097330,1831491,0
1711590101391,1711590097370,1834948,0
1711590101391,1711590097410,1838683,0
1711590101391,1711590097451,1842346,0
1711590101391,1711590097491,1845862,0
1711590101391,1711590097531,1849593,0
1711590101391,1711590097571,1849365,0
1711590101391,1711590097611,1843110,0
1711590101391,1711590097652,1837980,0
1711590101391,1711590097691,1836106,0
1711590101391,1711590097731,1836575,0
1711590101391,1711590097771,1838264,0
1711590101391,1711590097812,1840858,0
1711590101391,1711590097852,1843051,0
1711590101391,1711590097892,1844492,0
1711590101391,1711590097932,1845770,0
1711590101391,1711590097972,1847522,0
1711590101391,1711590098012,1849845,0
1711590101391,1711590098053,1852675,0
1711590101391,1711590098092,1855690,0
1711590101391,1711590098132,1859035,0
1711590101391,1711590098173,1862307,0
1711590101391,1711590098212,1865708,0
1711590101391,1711590098253,1868856,0
1711590101391,1711590098293,1865357,0
1711590101391,1711590098333,1859099,0
1711590101391,1711590098373,1855039,0
1711590101391,1711590098413,1853730,0
1711590101391,1711590098454,1854372,0
1711590101391,1711590098493,1855982,0
1711590101391,1711590098533,1857897,0
1711590101391,1711590098573,1859329,0
1711590101391,1711590098614,1860184,0
1711590101391,1711590098654,1861199,0
1711590101391,1711590098694,1862673,0
1711590101391,1711590098734,1864819,0
1711590101391,1711590098774,1867303,0
1711590101391,1711590098814,1870048,0
1711590101391,1711590098855,1872926,0
1711590101391,1711590098894,1875938,0
1711590101391,1711590098934,1878961,0
1711590101391,1711590098975,1875943,0
1711590101391,1711590099015,1868375,0
1711590101391,1711590099055,1862708,0
1711590101391,1711590099095,1860122,0
1711590101391,1711590099135,1859806,0
1711590101391,1711590099175,1860130,0
1711590101391,1711590099215,1861315,0
1711590101391,1711590099256,1862032,0
1711590101391,1711590099295,1862384,0
1711590101391,1711590099336,1862690,0
1711590101391,1711590099376,1863811,0
1711590101391,1711590099416,1865429,0
1711590101391,1711590099457,1867446,0
1711590101391,1711590099496,1869856,0
1711590101391,1711590099536,1872581,0
1711590101391,1711590099576,1875286,0
1711590101391,1711590099617,1878076,0
1711590101391,1711590099657,1879239,0
1711590101391,1711590099697,1871269,0
1711590101391,1711590099737,1862577,0
1711590101391,1711590099777,1857188,0
1711590101391,1711590099817,1854559,0
1711590101391,1711590099858,1853053,0
1711590101391,1711590099897,1852692,0
1711590101391,1711590099937,1852803,0
1711590101391,1711590099978,1852447,0
1711590101391,1711590100018,1852101,0
1711590101391,1711590100058,1851881,0
1711590101391,1711590100098,1852592,0
1711590101391,1711590100138,1853821,0
1711590101391,1711590100178,1855644,0
1711590101391,1711590100218,1857889,0
1711590101391,1711590100259,1860172,0
1711590101391,1711590100298,1862692,0
1711590101391,1711590100339,1865220,0
1711590101391,1711590100379,1861719,0
1711590101391,1711590100419,1851442,0
1711590101391,1711590100460,1843227,0
1711590101391,1711590100499,1838847,0
1711590101391,1711590100539,1836441,0
1711590101391,1711590100579,1834737,0
1711590101391,1711590100619,1834439,0
1711590101391,1711590100660,1833942,0
1711590101391,1711590100700,1833143,0
1711590101391,1711590100740,1832676,0
1711590101391,1711590100780,1832823,0
1711590101391,1711590100820,1833672,0
1711590101391,1711590100861,1835410,0
1711590101391,1711590100900,1837329,0
1711590101391,1711590100940,1839707,0
1711590101391,1711590100980,1842002,0
1711590101391,1711590101020,1844695,0
1711590101391,1711590101061,1847021,0
1711590101391,1711590101101,1841060,0
1711590101391,1711590101141,1830316,0
1711590101391,1711590101181,1822692,0
1711590101391,1711590101221,1818880,0
1711590101391,1711590101262,1816498,0
1711590101391,1711590101301,1815284,0
1711590113421,1711590101342,1815002,0
1711590113421,1711590101382,1814249,0
1711590113421,1711590101423,1813587,0
1711590113421,1711590101463,1813355,0
1711590113421,1711590101503,1814011,0
1711590113421,1711590101543,1815361,0
1711590113421,1711590101583,1816890,0
1711590113421,1711590101623,1818657,0
1711590113421,1711590101664,1820359,0
1711590113421,1711590101703,1822072,0
1711590113421,1711590101743,1824012,0
1711590113421,1711590101784,1824853,0
1711590113421,1711590101824,1815976,0
1711590113421,1711590101864,1804378,0
1711590113421,1711590101904,1796858,0
1711590113421,1711590101944,1792746,0
1711590113421,1711590101984,1790044,0
1711590113421,1711590102024,1788531,0
1711590113421,1711590102065,1787709,0
1711590113421,1711590102104,1786309,0
1711590113421,1711590102145,1784886,0
1711590113421,1711590102185,1784337,0
1711590113421,1711590102225,1785803,0
1711590113421,1711590102266,1787397,0
1711590113421,1711590102305,1789365,0
1711590113421,1711590102345,1791516,0
1711590113421,1711590102385,1793747,0
1711590113421,1711590102425,1796265,0
1711590113421,1711590102466,1792465,0
1711590113421,1711590102505,1780006,0
1711590113421,1711590102545,1769623,0
1711590113421,1711590102585,1763362,0
1711590113421,1711590102626,1759295,0
1711590113421,1711590102666,1756461,0
1711590113421,1711590102706,1755175,0
1711590113421,1711590102746,1754061,0
1711590113421,1711590102786,1752618,0
1711590113421,1711590102826,1751771,0
1711590113421,1711590102867,1751768,0
1711590113421,1711590102906,1752656,0
1711590113421,1711590102946,1754354,0
1711590113421,1711590102986,1756519,0
1711590113421,1711590103026,1758992,0
1711590113421,1711590103067,1761585,0
1711590113421,1711590103107,1764233,0
1711590113421,1711590103146,1767073,0
1711590113421,1711590103187,1769206,0
1711590113421,1711590103227,1760142,0
1711590113421,1711590103267,1748116,0
1711590113421,1711590103307,1740696,0
1711590113421,1711590103347,1736644,0
1711590113421,1711590103387,1734086,0
1711590113421,1711590103427,1732602,0
1711590113421,1711590103468,1732294,0
1711590113421,1711590103507,1731785,0
1711590113421,1711590103548,1731360,0
1711590113421,1711590103588,1731538,0
1711590113421,1711590103628,1732695,0
1711590113421,1711590103668,1734595,0
1711590113421,1711590103708,1737167,0
1711590113421,1711590103748,1740282,0
1711590113421,1711590103788,1743489,0
1711590113421,1711590103828,1746686,0
1711590113421,1711590103869,1749947,0
1711590113421,1711590103908,1753169,0
1711590113421,1711590103948,1756376,0
1711590113421,1711590103989,1759458,0
1711590113421,1711590104029,1757247,0
1711590113421,1711590104069,1745536,0
1711590113421,1711590104109,1735456,0
1711590113421,1711590104149,1729822,0
1711590113421,1711590104189,1726463,0
1711590113421,1711590104229,1723498,0
1711590113421,1711590104270,1722020,0
1711590113421,1711590104309,1720700,0
1711590113421,1711590104349,1719350,0
1711590113421,1711590104389,1718476,0
1711590113421,1711590104430,1718550,0
1711590113421,1711590104470,1719514,0
1711590113421,1711590104510,1721520,0
1711590113421,1711590104550,1723971,0
1711590113421,1711590104590,1726964,0
1711590113421,1711590104630,1729947,0
1711590113421,1711590104671,1733199,0
1711590113421,1711590104710,1736504,0
1711590113421,1711590104750,1739925,0
1711590113421,1711590104791,1743594,0
1711590113421,1711590104830,1743879,0
1711590113421,1711590104871,1733976,0
1711590113421,1711590104911,1724450,0
1711590113421,1711590104951,1719554,0
1711590113421,1711590104991,1717552,0
1711590113421,1711590105031,1716838,0
1711590113421,1711590105072,1717950,0
1711590113421,1711590105111,1719585,0
1711590113421,1711590105151,1720714,0
1711590113421,1711590105191,1721101,0
1711590113421,1711590105231,1721517,0
1711590113421,1711590105272,1722690,0
1711590113421,1711590105312,1724329,0
1711590113421,1711590105352,1726594,0
1711590113421,1711590105392,1729256,0
1711590113421,1711590105432,1732568,0
1711590113421,1711590105473,1736454,0
1711590113421,1711590105512,1740537,0
1711590113421,1711590105552,1744837,0
1711590113421,1711590105592,1748528,0
1711590113421,1711590105633,1742583,0
1711590113421,1711590105673,1733253,0
1711590113421,1711590105712,1727930,0
1711590113421,1711590105753,1726084,0
1711590113421,1711590105793,1725844,0
1711590113421,1711590105833,1726479,0
1711590113421,1711590105874,1727642,0
1711590113421,1711590105913,1728392,0
1711590113421,1711590105953,1728886,0
1711590113421,1711590105993,1729984,0
1711590113421,1711590106033,1731995,0
1711590113421,1711590106074,1734500,0
1711590113421,1711590106114,1737721,0
1711590113421,1711590106154,1741437,0
1711590113421,1711590106194,1745278,0
1711590113421,1711590106234,1749268,0
1711590113421,1711590106275,1753191,0
1711590113421,1711590106314,1757009,0
1711590113421,1711590106354,1759093,0
1711590113421,1711590106394,1750963,0
1711590113421,1711590106434,1742134,0
1711590113421,1711590106475,1737792,0
1711590113421,1711590106514,1736583,0
1711590113421,1711590106555,1736455,0
1711590113421,1711590106595,1737599,0
1711590113421,1711590106635,1739137,0
1711590113421,1711590106676,1740285,0
1711590113421,1711590106715,1741004,0
1711590113421,1711590106755,1742582,0
1711590113421,1711590106795,1744495,0
1711590113421,1711590106835,1746975,0
1711590113421,1711590106876,1750155,0
1711590113421,1711590106915,1753537,0
1711590113421,1711590106955,1757316,0
1711590113421,1711590106995,1761190,0
1711590113421,1711590107036,1765279,0
1711590113421,1711590107076,1769159,0
1711590113421,1711590107116,1771128,0
1711590113421,1711590107156,1763109,0
1711590113421,1711590107196,1754723,0
1711590113421,1711590107236,1750627,0
1711590113421,1711590107277,1749736,0
1711590113421,1711590107316,1749983,0
1711590113421,1711590107356,1751008,0
1711590113421,1711590107396,1752466,0
1711590113421,1711590107436,1753133,0
1711590113421,1711590107477,1753501,0
1711590113421,1711590107517,1754722,0
1711590113421,1711590107557,1756485,0
1711590113421,1711590107597,1759161,0
1711590113421,1711590107637,1762269,0
1711590113421,1711590107678,1765569,0
1711590113421,1711590107717,1769162,0
1711590113421,1711590107757,1772917,0
1711590113421,1711590107797,1776548,0
1711590113421,1711590107837,1777761,0
1711590113421,1711590107878,1769661,0
1711590113421,1711590107918,1761931,0
1711590113421,1711590107958,1758399,0
1711590113421,1711590107998,1757481,0
1711590113421,1711590108038,1757713,0
1711590113421,1711590108079,1758968,0
1711590113421,1711590108118,1760343,0
1711590113421,1711590108158,1761069,0
1711590113421,1711590108198,1761727,0
1711590113421,1711590108238,1763088,0
1711590113421,1711590108279,1765046,0
1711590113421,1711590108319,1767861,0
1711590113421,1711590108359,1771138,0
1711590113421,1711590108399,1774412,0
1711590113421,1711590108439,1778135,0
1711590113421,1711590108480,1781767,0
1711590113421,1711590108519,1785513,0
1711590113421,1711590108559,1787113,0
1711590113421,1711590108599,1778687,0
1711590113421,1711590108640,1770285,0
1711590113421,1711590108680,1766083,0
1711590113421,1711590108720,1764482,0
1711590113421,1711590108760,1764010,0
1711590113421,1711590108800,1764514,0
1711590113421,1711590108840,1765381,0
1711590113421,1711590108881,1766024,0
1711590113421,1711590108920,1766471,0
1711590113421,1711590108960,1767540,0
1711590113421,1711590109001,1769245,0
1711590113421,1711590109041,1771614,0
1711590113421,1711590109082,1774567,0
1711590113421,1711590109121,1777745,0
1711590113421,1711590109161,1781156,0
1711590113421,1711590109201,1784609,0
1711590113421,1711590109241,1788114,0
1711590113421,1711590109282,1790944,0
1711590113421,1711590109321,1784202,0
1711590113421,1711590109362,1774788,0
1711590113421,1711590109402,1769354,0
1711590113421,1711590109442,1766897,0
1711590113421,1711590109483,1765876,0
1711590113421,1711590109522,1765780,0
1711590113421,1711590109562,1766446,0
1711590113421,1711590109603,1766770,0
1711590113421,1711590109642,1766858,0
1711590113421,1711590109683,1767488,0
1711590113421,1711590109723,1768856,0
1711590113421,1711590109763,1771021,0
1711590113421,1711590109803,1773586,0
1711590113421,1711590109843,1776528,0
1711590113421,1711590109884,1779868,0
1711590113421,1711590109923,1783107,0
1711590113421,1711590109963,1786415,0
1711590113421,1711590110003,1789896,0
1711590113421,1711590110044,1790640,0
1711590113421,1711590110085,1781401,0
1711590113421,1711590110124,1772859,0
1711590113421,1711590110164,1768386,0
1711590113421,1711590110204,1766803,0
1711590113421,1711590110244,1765988,0
1711590113421,1711590110285,1766507,0
1711590113421,1711590110324,1767023,0
1711590113421,1711590110364,1767022,0
1711590113421,1711590110405,1767032,0
1711590113421,1711590110445,1767868,0
1711590113421,1711590110486,1769549,0
1711590113421,1711590110525,1771912,0
1711590113421,1711590110565,1774947,0
1711590113421,1711590110605,1778258,0
1711590113421,1711590110645,1781330,0
1711590113421,1711590110686,1784438,0
1711590113421,1711590110725,1787615,0
1711590113421,1711590110765,1788785,0
1711590113421,1711590110805,1780363,0
1711590113421,1711590110845,1772067,0
1711590113421,1711590110886,1768171,0
1711590113421,1711590110926,1766723,0
1711590113421,1711590110966,1766287,0
1711590113421,1711590111006,1766580,0
1711590113421,1711590111046,1767208,0
1711590113421,1711590111086,1767283,0
1711590113421,1711590111126,1767546,0
1711590113421,1711590111166,1768598,0
1711590113421,1711590111206,1770314,0
1711590113421,1711590111246,1772476,0
1711590113421,1711590111287,1774991,0
1711590113421,1711590111326,1777888,0
1711590113421,1711590111366,1781130,0
1711590113421,1711590111407,1784472,0
1711590113421,1711590111447,1787416,0
1711590113421,1711590111487,1780547,0
1711590113421,1711590111527,1770696,0
1711590113421,1711590111567,1764832,0
1711590113421,1711590111607,1762369,0
1711590113421,1711590111647,1761268,0
1711590113421,1711590111688,1761300,0
1711590113421,1711590111727,1762132,0
1711590113421,1711590111767,1762353,0
1711590113421,1711590111807,1762331,0
1711590113421,1711590111847,1762913,0
1711590113421,1711590111888,1764396,0
1711590113421,1711590111927,1766544,0
1711590113421,1711590111968,1769335,0
1711590113421,1711590112008,1772297,0
1711590113421,1711590112048,1775683,0
1711590113421,1711590112089,1778923,0
1711590113421,1711590112128,1782405,0
1711590113421,1711590112168,1782166,0
1711590113421,1711590112208,1771601,0
1711590113421,1711590112248,1762506,0
1711590113421,1711590112289,1757719,0
1711590113421,1711590112328,1755330,0
1711590113421,1711590112368,1754018,0
1711590113421,1711590112408,1753814,0
1711590113421,1711590112449,1754141,0
1711590113421,1711590112489,1754200,0
1711590113421,1711590112529,1754289,0
1711590113421,1711590112569,1755104,0
1711590113421,1711590112609,1756714,0
1711590113421,1711590112649,1759057,0
1711590113421,1711590112690,1761962,0
1711590113421,1711590112729,1765032,0
1711590113421,1711590112769,1768298,0
1711590113421,1711590112809,1771557,0
1711590113421,1711590112849,1774904,0
1711590113421,1711590112890,1778546,0
1711590113421,1711590112929,1777215,0
1711590113421,1711590112970,1766445,0
1711590113421,1711590113010,1757786,0
1711590113421,1711590113050,1753194,0
1711590113421,1711590113091,1750958,0
1711590113421,1711590113130,1749418,0
1711590113421,1711590113170,1749357,0
1711590113421,1711590113210,1749546,0
1711590113421,1711590113250,1749502,0
1711590113421,1711590113291,1749700,0
1711590113421,1711590113330,1750656,0
1711590125434,1711590113369,1752427,0
1711590125434,1711590113409,1754912,0
1711590125434,1711590113450,1757661,0
1711590125434,1711590113490,1760898,0
1711590125434,1711590113530,1764107,0
1711590125434,1711590113570,1767432,0
1711590125434,1711590113610,1770796,0
1711590125434,1711590113650,1774245,0
1711590125434,1711590113691,1777732,0
1711590125434,1711590113730,1781225,0
1711590125434,1711590113770,1778246,0
1711590125434,1711590113810,1767543,0
1711590125434,1711590113850,1760237,0
1711590125434,1711590113891,1756917,0
1711590125434,1711590113931,1755763,0
1711590125434,1711590113971,1754883,0
1711590125434,1711590114011,1755297,0
1711590125434,1711590114051,1755361,0
1711590125434,1711590114091,1755091,0
1711590125434,1711590114131,1755237,0
1711590125434,1711590114171,1756181,0
1711590125434,1711590114211,1757944,0
1711590125434,1711590114251,1760291,0
1711590125434,1711590114292,1763026,0
1711590125434,1711590114331,1765885,0
1711590125434,1711590114371,1769014,0
1711590125434,1711590114412,1772017,0
1711590125434,1711590114452,1775175,0
1711590125434,1711590114492,1778494,0
1711590125434,1711590114532,1775788,0
1711590125434,1711590114572,1765651,0
1711590125434,1711590114612,1758042,0
1711590125434,1711590114652,1754815,0
1711590125434,1711590114693,1753316,0
1711590125434,1711590114732,1752658,0
1711590125434,1711590114772,1753064,0
1711590125434,1711590114812,1753463,0
1711590125434,1711590114852,1753592,0
1711590125434,1711590114893,1753820,0
1711590125434,1711590114933,1754936,0
1711590125434,1711590114973,1756691,0
1711590125434,1711590115013,1759190,0
1711590125434,1711590115053,1762123,0
1711590125434,1711590115094,1765262,0
1711590125434,1711590115133,1768556,0
1711590125434,1711590115173,1771919,0
1711590125434,1711590115213,1775320,0
1711590125434,1711590115253,1778786,0
1711590125434,1711590115294,1782459,0
1711590125434,1711590115333,1778699,0
1711590125434,1711590115374,1768434,0
1711590125434,1711590115414,1761231,0
1711590125434,1711590115454,1757783,0
1711590125434,1711590115495,1756237,0
1711590125434,1711590115534,1755288,0
1711590125434,1711590115574,1755540,0
1711590125434,1711590115614,1755979,0
1711590125434,1711590115654,1756533,0
1711590125434,1711590115695,1757175,0
1711590125434,1711590115734,1758570,0
1711590125434,1711590115774,1760591,0
1711590125434,1711590115814,1763132,0
1711590125434,1711590115855,1766001,0
1711590125434,1711590115895,1769246,0
1711590125434,1711590115935,1772723,0
1711590125434,1711590115975,1776221,0
1711590125434,1711590116015,1779690,0
1711590125434,1711590116055,1783376,0
1711590125434,1711590116096,1782138,0
1711590125434,1711590116135,1772960,0
1711590125434,1711590116175,1765707,0
1711590125434,1711590116215,1762738,0
1711590125434,1711590116255,1761742,0
1711590125434,1711590116296,1761708,0
1711590125434,1711590116336,1762668,0
1711590125434,1711590116376,1763655,0
1711590125434,1711590116416,1764139,0
1711590125434,1711590116456,1764767,0
1711590125434,1711590116497,1766008,0
1711590125434,1711590116536,1767890,0
1711590125434,1711590116576,1770594,0
1711590125434,1711590116616,1773656,0
1711590125434,1711590116656,1777144,0
1711590125434,1711590116697,1780878,0
1711590125434,1711590116736,1784362,0
1711590125434,1711590116777,1788142,0
1711590125434,1711590116817,1791726,0
1711590125434,1711590116857,1789109,0
1711590125434,1711590116898,1780413,0
1711590125434,1711590116937,1774496,0
1711590125434,1711590116977,1772460,0
1711590125434,1711590117017,1772322,0
1711590125434,1711590117057,1772823,0
1711590125434,1711590117098,1774321,0
1711590125434,1711590117138,1775425,0
1711590125434,1711590117178,1775963,0
1711590125434,1711590117218,1776832,0
1711590125434,1711590117258,1778294,0
1711590125434,1711590117299,1780362,0
1711590125434,1711590117338,1783095,0
1711590125434,1711590117378,1786085,0
1711590125434,1711590117418,1789488,0
1711590125434,1711590117458,1792853,0
1711590125434,1711590117499,1796157,0
1711590125434,1711590117538,1799648,0
1711590125434,1711590117578,1798797,0
1711590125434,1711590117619,1790524,0
1711590125434,1711590117659,1784163,0
1711590125434,1711590117699,1781748,0
1711590125434,1711590117739,1781440,0
1711590125434,1711590117779,1782060,0
1711590125434,1711590117819,1783485,0
1711590125434,1711590117859,1784616,0
1711590125434,1711590117900,1785113,0
1711590125434,1711590117939,1785680,0
1711590125434,1711590117980,1787053,0
1711590125434,1711590118020,1789084,0
1711590125434,1711590118060,1791553,0
1711590125434,1711590118101,1794622,0
1711590125434,1711590118140,1797681,0
1711590125434,1711590118180,1800767,0
1711590125434,1711590118220,1804184,0
1711590125434,1711590118260,1806391,0
1711590125434,1711590118301,1799150,0
1711590125434,1711590118341,1791176,0
1711590125434,1711590118381,1786894,0
1711590125434,1711590118421,1785523,0
1711590125434,1711590118461,1785423,0
1711590125434,1711590118502,1786183,0
1711590125434,1711590118541,1787275,0
1711590125434,1711590118581,1788063,0
1711590125434,1711590118622,1788456,0
1711590125434,1711590118662,1789363,0
1711590125434,1711590118702,1791037,0
1711590125434,1711590118742,1793326,0
1711590125434,1711590118782,1796140,0
1711590125434,1711590118822,1799068,0
1711590125434,1711590118862,1802284,0
1711590125434,1711590118903,1805487,0
1711590125434,1711590118942,1808951,0
1711590125434,1711590118982,1807668,0
1711590125434,1711590119022,1798404,0
1711590125434,1711590119063,1791040,0
1711590125434,1711590119103,1787487,0
1711590125434,1711590119143,1786212,0
1711590125434,1711590119183,1785518,0
1711590125434,1711590119223,1786094,0
1711590125434,1711590119263,1786743,0
1711590125434,1711590119304,1787188,0
1711590125434,1711590119343,1787492,0
1711590125434,1711590119383,1790222,0
1711590125434,1711590119423,1792502,0
1711590125434,1711590119464,1795175,0
1711590125434,1711590119504,1798200,0
1711590125434,1711590119544,1801338,0
1711590125434,1711590119584,1804365,0
1711590125434,1711590119624,1807720,0
1711590125434,1711590119664,1806506,0
1711590125434,1711590119705,1796838,0
1711590125434,1711590119744,1789242,0
1711590125434,1711590119784,1785271,0
1711590125434,1711590119824,1783733,0
1711590125434,1711590119864,1782779,0
1711590125434,1711590119905,1783014,0
1711590125434,1711590119945,1783550,0
1711590125434,1711590119985,1783707,0
1711590125434,1711590120025,1783931,0
1711590125434,1711590120065,1784797,0
1711590125434,1711590120106,1786445,0
1711590125434,1711590120145,1788582,0
1711590125434,1711590120185,1791278,0
1711590125434,1711590120225,1794188,0
1711590125434,1711590120265,1797378,0
1711590125434,1711590120306,1800341,0
1711590125434,1711590120345,1803521,0
1711590125434,1711590120385,1806622,0
1711590125434,1711590120428,1804157,0
1711590125434,1711590120466,1794470,0
1711590125434,1711590120507,1787199,0
1711590125434,1711590120546,1783900,0
1711590125434,1711590120586,1782618,0
1711590125434,1711590120626,1781957,0
1711590125434,1711590120666,1782354,0
1711590125434,1711590120707,1782704,0
1711590125434,1711590120746,1782518,0
1711590125434,1711590120787,1782786,0
1711590125434,1711590120827,1783761,0
1711590125434,1711590120867,1785467,0
1711590125434,1711590120908,1787756,0
1711590125434,1711590120947,1790331,0
1711590125434,1711590120987,1793254,0
1711590125434,1711590121027,1796207,0
1711590125434,1711590121067,1799136,0
1711590125434,1711590121108,1802335,0
1711590125434,1711590121147,1803347,0
1711590125434,1711590121187,1794917,0
1711590125434,1711590121228,1786796,0
1711590125434,1711590121268,1782922,0
1711590125434,1711590121308,1781792,0
1711590125434,1711590121348,1781374,0
1711590125434,1711590121388,1781938,0
1711590125434,1711590121428,1782604,0
1711590125434,1711590121468,1782735,0
1711590125434,1711590121509,1782729,0
1711590125434,1711590121548,1783505,0
1711590125434,1711590121588,1785078,0
1711590125434,1711590121629,1787109,0
1711590125434,1711590121669,1789595,0
1711590125434,1711590121709,1792428,0
1711590125434,1711590121749,1795700,0
1711590125434,1711590121789,1798807,0
1711590125434,1711590121829,1802084,0
1711590125434,1711590121869,1802893,0
1711590125434,1711590121910,1793773,0
1711590125434,1711590121949,1784792,0
1711590125434,1711590121990,1779886,0
1711590125434,1711590122030,1778420,0
1711590125434,1711590122070,1778328,0
1711590125434,1711590122110,1779271,0
1711590125434,1711590122150,1780237,0
1711590125434,1711590122190,1780146,0
1711590125434,1711590122230,1780004,0
1711590125434,1711590122270,1780083,0
1711590125434,1711590122311,1781468,0
1711590125434,1711590122350,1783721,0
1711590125434,1711590122390,1786737,0
1711590125434,1711590122430,1789808,0
1711590125434,1711590122470,1793108,0
1711590125434,1711590122511,1796116,0
1711590125434,1711590122550,1798883,0
1711590125434,1711590122591,1799129,0
1711590125434,1711590122633,1789518,0
1711590125434,1711590122671,1780911,0
1711590125434,1711590122712,1776473,0
1711590125434,1711590122751,1774390,0
1711590125434,1711590122791,1772881,0
1711590125434,1711590122831,1772273,0
1711590125434,1711590122871,1772326,0
1711590125434,1711590122912,1772312,0
1711590125434,1711590122952,1772639,0
1711590125434,1711590122992,1773692,0
1711590125434,1711590123032,1775510,0
1711590125434,1711590123072,1777883,0
1711590125434,1711590123113,1780490,0
1711590125434,1711590123152,1783530,0
1711590125434,1711590123192,1786574,0
1711590125434,1711590123232,1789981,0
1711590125434,1711590123272,1793498,0
1711590125434,1711590123313,1795160,0
1711590125434,1711590123352,1786807,0
1711590125434,1711590123393,1778640,0
1711590125434,1711590123433,1774349,0
1711590125434,1711590123473,1772780,0
1711590125434,1711590123514,1772068,0
1711590125434,1711590123553,1772456,0
1711590125434,1711590123593,1773218,0
1711590125434,1711590123633,1773461,0
1711590125434,1711590123673,1773667,0
1711590125434,1711590123714,1774554,0
1711590125434,1711590123754,1776096,0
1711590125434,1711590123794,1780684,0
1711590125434,1711590123834,1787076,0
1711590125434,1711590123874,1790612,0
1711590125434,1711590123915,1794789,0
1711590125434,1711590123954,1800446,0
1711590125434,1711590123994,1805778,0
1711590125434,1711590124034,1808308,0
1711590125434,1711590124074,1805158,0
1711590125434,1711590124115,1805076,0
1711590125434,1711590124155,1807713,0
1711590125434,1711590124194,1809269,0
1711590125434,1711590124235,1808713,0
1711590125434,1711590124275,1808185,0
1711590125434,1711590124316,1807058,0
1711590125434,1711590124355,1805670,0
1711590125434,1711590124395,1805386,0
1711590125434,1711590124435,1806369,0
1711590125434,1711590124475,1807908,0
1711590125434,1711590124516,1809826,0
1711590125434,1711590124555,1812002,0
1711590125434,1711590124595,1814300,0
1711590125434,1711590124636,1816611,0
1711590125434,1711590124676,1819079,0
1711590125434,1711590124716,1821658,0
1711590125434,1711590124756,1819242,0
1711590125434,1711590124796,1810058,0
1711590125434,1711590124839,1802867,0
1711590125434,1711590124876,1799856,0
1711590125434,1711590124917,1798363,0
1711590125434,1711590124956,1797669,0
1711590125434,1711590124997,1797936,0
1711590125434,1711590125037,1798099,0
1711590125434,1711590125077,1797997,0
1711590125434,1711590125118,1798156,0
1711590125434,1711590125157,1799113,0
1711590125434,1711590125197,1800799,0
1711590125434,1711590125237,1802857,0
1711590125434,1711590125277,1805418,0
1711590125434,1711590125318,1808009,0
1711590125434,1711590125358,1810708,0
1711590137511,1711590125398,1813337,0
1711590137511,1711590125439,1816094,0
1711590137511,1711590125479,1816231,0
1711590137511,1711590125519,1808068,0
1711590137511,1711590125559,1801020,0
1711590137511,1711590125599,1797859,0
1711590137511,1711590125639,1796768,0
1711590137511,1711590125679,1796614,0
1711590137511,1711590125720,1797171,0
1711590137511,1711590125759,1797613,0
1711590137511,1711590125799,1797507,0
1711590137511,1711590125840,1797722,0
1711590137511,1711590125880,1798478,0
1711590137511,1711590125920,1799829,0
1711590137511,1711590125960,1801848,0
1711590137511,1711590126000,1804297,0
1711590137511,1711590126040,1806872,0
1711590137511,1711590126080,1809614,0
1711590137511,1711590126121,1812422,0
1711590137511,1711590126160,1815316,0
1711590137511,1711590126201,1818191,0
1711590137511,1711590126241,1816986,0
1711590137511,1711590126281,1808844,0
1711590137511,1711590126322,1802760,0
1711590137511,1711590126361,1800553,0
1711590137511,1711590126401,1800284,0
1711590137511,1711590126441,1800761,0
1711590137511,1711590126481,1801820,0
1711590137511,1711590126522,1802572,0
1711590137511,1711590126562,1802890,0
1711590137511,1711590126602,1803591,0
1711590137511,1711590126642,1804724,0
1711590137511,1711590126682,1806585,0
1711590137511,1711590126723,1808833,0
1711590137511,1711590126762,1811567,0
1711590137511,1711590126802,1814403,0
1711590137511,1711590126842,1817165,0
1711590137511,1711590126882,1820119,0
1711590137511,1711590126923,1823224,0
1711590137511,1711590126962,1825669,0
1711590137511,1711590127002,1820930,0
1711590137511,1711590127043,1813818,0
1711590137511,1711590127083,1810288,0
1711590137511,1711590127123,1809873,0
1711590137511,1711590127163,1810504,0
1711590137511,1711590127203,1811955,0
1711590137511,1711590127243,1813608,0
1711590137511,1711590127283,1814684,0
1711590137511,1711590127324,1815559,0
1711590137511,1711590127363,1816730,0
1711590137511,1711590127404,1818408,0
1711590137511,1711590127444,1820790,0
1711590137511,1711590127484,1823403,0
1711590137511,1711590127525,1826316,0
1711590137511,1711590127564,1829301,0
1711590137511,1711590127604,1832487,0
1711590137511,1711590127644,1835494,0
1711590137511,1711590127684,1838302,0
1711590137511,1711590127725,1834633,0
1711590137511,1711590127765,1827854,0
1711590137511,1711590127804,1824634,0
1711590137511,1711590127845,1824548,0
1711590137511,1711590127885,1825709,0
1711590137511,1711590127925,1827541,0
1711590137511,1711590127965,1829329,0
1711590137511,1711590128005,1830570,0
1711590137511,1711590128045,1831308,0
1711590137511,1711590128085,1832310,0
1711590137511,1711590128126,1833930,0
1711590137511,1711590128165,1835978,0
1711590137511,1711590128205,1838628,0
1711590137511,1711590128245,1841498,0
1711590137511,1711590128285,1844443,0
1711590137511,1711590128326,1847423,0
1711590137511,1711590128366,1849946,0
1711590137511,1711590128406,1846057,0
1711590137511,1711590128446,1839288,0
1711590137511,1711590128486,1836125,0
1711590137511,1711590128526,1835774,0
1711590137511,1711590128566,1836905,0
1711590137511,1711590128606,1838788,0
1711590137511,1711590128646,1840882,0
1711590137511,1711590128686,1842019,0
1711590137511,1711590128727,1842319,0
1711590137511,1711590128766,1842774,0
1711590137511,1711590128806,1843745,0
1711590137511,1711590128847,1845415,0
1711590137511,1711590128886,1847601,0
1711590137511,1711590128927,1850237,0
1711590137511,1711590128967,1852802,0
1711590137511,1711590129007,1855276,0
1711590137511,1711590129047,1853196,0
1711590137511,1711590129087,1845112,0
1711590137511,1711590129128,1839193,0
1711590137511,1711590129167,1836875,0
1711590137511,1711590129207,1836077,0
1711590137511,1711590129247,1836008,0
1711590137511,1711590129287,1836538,0
1711590137511,1711590129328,1836393,0
1711590137511,1711590129367,1835669,0
1711590137511,1711590129408,1835271,0
1711590137511,1711590129448,1835241,0
1711590137511,1711590129488,1835891,0
1711590137511,1711590129529,1836971,0
1711590137511,1711590129568,1838677,0
1711590137511,1711590129608,1840635,0
1711590137511,1711590129648,1842628,0
1711590137511,1711590129689,1838591,0
1711590137511,1711590129729,1827676,0
1711590137511,1711590129768,1819686,0
1711590137511,1711590129809,1814763,0
1711590137511,1711590129849,1810716,0
1711590137511,1711590129889,1807278,0
1711590137511,1711590129930,1805743,0
1711590137511,1711590129969,1805362,0
1711590137511,1711590130009,1807797,0
1711590137511,1711590130049,1811916,0
1711590137511,1711590130089,1816301,0
1711590137511,1711590130130,1821814,0
1711590137511,1711590130170,1828554,0
1711590137511,1711590130209,1835305,0
1711590137511,1711590130250,1842534,0
1711590137511,1711590130290,1849528,0
1711590137511,1711590130330,1854077,0
1711590137511,1711590130370,1854103,0
1711590137511,1711590130410,1853304,0
1711590137511,1711590130450,1853678,0
1711590137511,1711590130490,1853799,0
1711590137511,1711590130531,1854121,0
1711590137511,1711590130570,1855250,0
1711590137511,1711590130610,1856829,0
1711590137511,1711590130650,1858318,0
1711590137511,1711590130690,1860787,0
1711590137511,1711590130731,1864775,0
1711590137511,1711590130771,1869773,0
1711590137511,1711590130811,1877918,0
1711590137511,1711590130851,1884122,0
1711590137511,1711590130891,1889585,0
1711590137511,1711590130932,1893948,0
1711590137511,1711590130971,1898149,0
1711590137511,1711590131011,1899327,0
1711590137511,1711590131051,1893317,0
1711590137511,1711590131091,1885494,0
1711590137511,1711590131132,1879316,0
1711590137511,1711590131172,1875087,0
1711590137511,1711590131212,1873202,0
1711590137511,1711590131252,1871793,0
1711590137511,1711590131292,1870098,0
1711590137511,1711590131333,1868789,0
1711590137511,1711590131372,1868411,0
1711590137511,1711590131412,1868897,0
1711590137511,1711590131452,1869682,0
1711590137511,1711590131493,1870738,0
1711590137511,1711590131533,1872224,0
1711590137511,1711590131573,1873324,0
1711590137511,1711590131613,1874803,0
1711590137511,1711590131653,1874698,0
1711590137511,1711590131693,1864704,0
1711590137511,1711590131734,1852798,0
1711590137511,1711590131773,1845512,0
1711590137511,1711590131813,1841287,0
1711590137511,1711590131854,1838392,0
1711590137511,1711590131893,1836686,0
1711590137511,1711590131934,1834337,0
1711590137511,1711590131974,1831218,0
1711590137511,1711590132014,1828674,0
1711590137511,1711590132054,1827290,0
1711590137511,1711590132094,1826968,0
1711590137511,1711590132135,1827345,0
1711590137511,1711590132174,1828465,0
1711590137511,1711590132214,1829996,0
1711590137511,1711590132254,1832327,0
1711590137511,1711590132294,1834156,0
1711590137511,1711590132335,1835536,0
1711590137511,1711590132375,1827327,0
1711590137511,1711590132415,1817137,0
1711590137511,1711590132455,1812276,0
1711590137511,1711590132495,1810900,0
1711590137511,1711590132536,1811473,0
1711590137511,1711590132575,1812983,0
1711590137511,1711590132615,1814408,0
1711590137511,1711590132655,1815407,0
1711590137511,1711590132696,1815976,0
1711590137511,1711590132736,1817084,0
1711590137511,1711590132776,1818525,0
1711590137511,1711590132816,1820539,0
1711590137511,1711590132856,1823056,0
1711590137511,1711590132896,1825412,0
1711590137511,1711590132937,1827985,0
1711590137511,1711590132976,1830723,0
1711590137511,1711590133016,1825802,0
1711590137511,1711590133057,1815386,0
1711590137511,1711590133097,1808634,0
1711590137511,1711590133137,1806442,0
1711590137511,1711590133177,1806040,0
1711590137511,1711590133217,1806718,0
1711590137511,1711590133257,1808010,0
1711590137511,1711590133297,1808629,0
1711590137511,1711590133338,1808900,0
1711590137511,1711590133377,1809758,0
1711590137511,1711590133418,1811362,0
1711590137511,1711590133458,1813786,0
1711590137511,1711590133498,1816425,0
1711590137511,1711590133539,1819675,0
1711590137511,1711590133578,1822942,0
1711590137511,1711590133618,1826240,0
1711590137511,1711590133658,1826229,0
1711590137511,1711590133698,1816229,0
1711590137511,1711590133739,1807621,0
1711590137511,1711590133778,1804094,0
1711590137511,1711590133818,1803441,0
1711590137511,1711590133858,1803570,0
1711590137511,1711590133899,1804759,0
1711590137511,1711590133939,1806102,0
1711590137511,1711590133979,1807137,0
1711590137511,1711590134019,1808224,0
1711590137511,1711590134059,1809957,0
1711590137511,1711590134099,1812457,0
1711590137511,1711590134140,1815358,0
1711590137511,1711590134180,1818746,0
1711590137511,1711590134220,1822268,0
1711590137511,1711590134260,1825977,0
1711590137511,1711590134300,1829238,0
1711590137511,1711590134341,1822313,0
1711590137511,1711590134380,1813155,0
1711590137511,1711590134420,1808933,0
1711590137511,1711590134460,1808128,0
1711590137511,1711590134501,1809067,0
1711590137511,1711590134541,1810639,0
1711590137511,1711590134581,1812709,0
1711590137511,1711590134621,1814147,0
1711590137511,1711590134661,1815417,0
1711590137511,1711590134701,1817095,0
1711590137511,1711590134742,1819495,0
1711590137511,1711590134781,1822406,0
1711590137511,1711590134821,1825833,0
1711590137511,1711590134861,1829391,0
1711590137511,1711590134902,1833064,0
1711590137511,1711590134942,1836849,0
1711590137511,1711590134982,1834112,0
1711590137511,1711590135022,1824730,0
1711590137511,1711590135062,1819097,0
1711590137511,1711590135102,1817779,0
1711590137511,1711590135143,1818633,0
1711590137511,1711590135182,1820437,0
1711590137511,1711590135223,1822892,0
1711590137511,1711590135263,1824742,0
1711590137511,1711590135303,1826145,0
1711590137511,1711590135344,1827776,0
1711590137511,1711590135383,1829920,0
1711590137511,1711590135423,1832763,0
1711590137511,1711590135463,1836100,0
1711590137511,1711590135503,1839515,0
1711590137511,1711590135544,1843133,0
1711590137511,1711590135584,1846858,0
1711590137511,1711590135624,1849286,0
1711590137511,1711590135664,1841255,0
1711590137511,1711590135704,1832802,0
1711590137511,1711590135745,1829476,0
1711590137511,1711590135784,1830482,0
1711590137511,1711590135824,1832536,0
1711590137511,1711590135864,1834479,0
1711590137511,1711590135904,1835900,0
1711590137511,1711590135945,1837035,0
1711590137511,1711590135984,1838697,0
1711590137511,1711590136024,1841032,0
1711590137511,1711590136065,1843874,0
1711590137511,1711590136105,1847198,0
1711590137511,1711590136145,1850507,0
1711590137511,1711590136185,1853982,0
1711590137511,1711590136225,1857448,0
1711590137511,1711590136265,1859928,0
1711590137511,1711590136305,1851995,0
1711590137511,1711590136346,1843620,0
1711590137511,1711590136385,1840254,0
1711590137511,1711590136425,1840271,0
1711590137511,1711590136465,1841610,0
1711590137511,1711590136505,1843562,0
1711590137511,1711590136546,1845402,0
1711590137511,1711590136585,1846490,0
1711590137511,1711590136625,1847333,0
1711590137511,1711590136666,1848657,0
1711590137511,1711590136706,1850713,0
1711590137511,1711590136746,1853388,0
1711590137511,1711590136786,1856198,0
1711590137511,1711590136826,1859385,0
1711590137511,1711590136866,1862576,0
1711590137511,1711590136906,1865614,0
1711590137511,1711590136947,1866868,0
1711590137511,1711590136986,1857941,0
1711590137511,1711590137027,1850224,0
1711590137511,1711590137067,1847507,0
1711590137511,1711590137107,1847783,0
1711590137511,1711590137147,1849280,0
1711590137511,1711590137187,1851358,0
1711590137511,1711590137227,1852679,0
1711590137511,1711590137267,1853190,0
1711590137511,1711590137307,1853768,0
1711590137511,1711590137348,1855017,0
1711590137511,1711590137387,1857030,0
1711590149519,1711590137427,1859734,0
1711590149519,1711590137467,1862522,0
1711590149519,1711590137507,1865568,0
1711590149519,1711590137548,1868507,0
1711590149519,1711590137588,1871554,0
1711590149519,1711590137628,1868443,0
1711590149519,1711590137668,1858530,0
1711590149519,1711590137708,1851485,0
1711590149519,1711590137749,1849164,0
1711590149519,1711590137788,1849034,0
1711590149519,1711590137828,1849722,0
1711590149519,1711590137868,1850862,0
1711590149519,1711590137908,1851405,0
1711590149519,1711590137949,1851387,0
1711590149519,1711590137989,1851724,0
1711590149519,1711590138028,1852908,0
1711590149519,1711590138069,1854983,0
1711590149519,1711590138109,1857338,0
1711590149519,1711590138149,1860107,0
1711590149519,1711590138189,1863022,0
1711590149519,1711590138229,1866011,0
1711590149519,1711590138269,1868365,0
1711590149519,1711590138309,1861030,0
1711590149519,1711590138350,1851131,0
1711590149519,1711590138389,1846079,0
1711590149519,1711590138429,1844612,0
1711590149519,1711590138470,1844674,0
1711590149519,1711590138509,1845770,0
1711590149519,1711590138550,1846688,0
1711590149519,1711590138590,1846215,0
1711590149519,1711590138630,1845934,0
1711590149519,1711590138670,1846499,0
1711590149519,1711590138710,1847926,0
1711590149519,1711590138751,1849801,0
1711590149519,1711590138790,1852027,0
1711590149519,1711590138830,1854525,0
1711590149519,1711590138870,1857179,0
1711590149519,1711590138910,1859887,0
1711590149519,1711590138951,1856428,0
1711590149519,1711590138991,1846149,0
1711590149519,1711590139031,1838978,0
1711590149519,1711590139071,1836689,0
1711590149519,1711590139111,1836449,0
1711590149519,1711590139152,1836857,0
1711590149519,1711590139191,1837635,0
1711590149519,1711590139231,1837417,0
1711590149519,1711590139271,1836673,0
1711590149519,1711590139311,1836650,0
1711590149519,1711590139352,1837000,0
1711590149519,1711590139392,1837928,0
1711590149519,1711590139432,1839142,0
1711590149519,1711590139472,1840478,0
1711590149519,1711590139512,1841629,0
1711590149519,1711590139553,1842800,0
1711590149519,1711590139592,1842430,0
1711590149519,1711590139632,1830021,0
1711590149519,1711590139672,1816041,0
1711590149519,1711590139712,1807067,0
1711590149519,1711590139753,1801858,0
1711590149519,1711590139793,1798326,0
1711590149519,1711590139833,1796172,0
1711590149519,1711590139873,1794204,0
1711590149519,1711590139913,1791943,0
1711590149519,1711590139954,1790761,0
1711590149519,1711590139993,1790724,0
1711590149519,1711590140033,1792110,0
1711590149519,1711590140073,1794391,0
1711590149519,1711590140113,1796741,0
1711590149519,1711590140154,1799388,0
1711590149519,1711590140194,1802255,0
1711590149519,1711590140234,1805304,0
1711590149519,1711590140274,1804345,0
1711590149519,1711590140314,1794000,0
1711590149519,1711590140355,1785308,0
1711590149519,1711590140394,1781321,0
1711590149519,1711590140434,1779953,0
1711590149519,1711590140474,1779607,0
1711590149519,1711590140515,1780588,0
1711590149519,1711590140555,1780961,0
1711590149519,1711590140595,1781292,0
1711590149519,1711590140635,1781856,0
1711590149519,1711590140675,1783474,0
1711590149519,1711590140715,1785401,0
1711590149519,1711590140756,1787988,0
1711590149519,1711590140795,1790966,0
1711590149519,1711590140836,1793699,0
1711590149519,1711590140876,1796615,0
1711590149519,1711590140916,1799683,0
1711590149519,1711590140957,1796650,0
1711590149519,1711590140996,1785712,0
1711590149519,1711590141036,1778125,0
1711590149519,1711590141076,1775300,0
1711590149519,1711590141117,1774372,0
1711590149519,1711590141157,1774517,0
1711590149519,1711590141197,1775575,0
1711590149519,1711590141237,1776365,0
1711590149519,1711590141277,1776663,0
1711590149519,1711590141317,1777648,0
1711590149519,1711590141358,1779440,0
1711590149519,1711590141397,1781664,0
1711590149519,1711590141438,1784033,0
1711590149519,1711590141478,1786878,0
1711590149519,1711590141518,1789724,0
1711590149519,1711590141559,1793980,0
1711590149519,1711590141598,1792402,0
1711590149519,1711590141638,1786969,0
1711590149519,1711590141678,1785824,0
1711590149519,1711590141719,1787810,0
1711590149519,1711590141759,1794938,0
1711590149519,1711590141799,1801925,0
1711590149519,1711590141839,1807390,0
1711590149519,1711590141879,1812381,0
1711590149519,1711590141919,1814703,0
1711590149519,1711590141960,1815099,0
1711590149519,1711590141999,1817462,0
1711590149519,1711590142040,1820197,0
1711590149519,1711590142080,1822940,0
1711590149519,1711590142120,1824932,0
1711590149519,1711590142161,1825703,0
1711590149519,1711590142200,1826555,0
1711590149519,1711590142240,1824795,0
1711590149519,1711590142280,1814867,0
1711590149519,1711590142321,1806104,0
1711590149519,1711590142361,1801470,0
1711590149519,1711590142401,1798879,0
1711590149519,1711590142441,1797467,0
1711590149519,1711590142481,1797540,0
1711590149519,1711590142521,1797655,0
1711590149519,1711590142562,1797692,0
1711590149519,1711590142601,1798070,0
1711590149519,1711590142641,1799451,0
1711590149519,1711590142682,1801270,0
1711590149519,1711590142722,1803492,0
1711590149519,1711590142762,1805980,0
1711590149519,1711590142802,1808674,0
1711590149519,1711590142842,1811557,0
1711590149519,1711590142882,1814247,0
1711590149519,1711590142922,1809158,0
1711590149519,1711590142963,1801224,0
1711590149519,1711590143003,1796992,0
1711590149519,1711590143043,1795713,0
1711590149519,1711590143083,1795058,0
1711590149519,1711590143123,1795564,0
1711590149519,1711590143164,1796331,0
1711590149519,1711590143203,1797050,0
1711590149519,1711590143243,1797712,0
1711590149519,1711590143283,1798860,0
1711590149519,1711590143323,1800962,0
1711590149519,1711590143364,1803362,0
1711590149519,1711590143404,1806118,0
1711590149519,1711590143444,1808970,0
1711590149519,1711590143484,1811881,0
1711590149519,1711590143524,1815170,0
1711590149519,1711590143565,1816736,0
1711590149519,1711590143604,1809640,0
1711590149519,1711590143644,1803136,0
1711590149519,1711590143684,1800482,0
1711590149519,1711590143724,1799623,0
1711590149519,1711590143765,1799259,0
1711590149519,1711590143804,1800192,0
1711590149519,1711590143845,1801263,0
1711590149519,1711590143885,1802166,0
1711590149519,1711590143925,1803297,0
1711590149519,1711590143965,1804957,0
1711590149519,1711590144005,1807291,0
1711590149519,1711590144045,1810024,0
1711590149519,1711590144085,1812976,0
1711590149519,1711590144125,1816154,0
1711590149519,1711590144166,1819271,0
1711590149519,1711590144205,1822363,0
1711590149519,1711590144245,1825542,0
1711590149519,1711590144285,1828762,0
1711590149519,1711590144326,1824362,0
1711590149519,1711590144366,1816869,0
1711590149519,1711590144406,1813194,0
1711590149519,1711590144446,1812248,0
1711590149519,1711590144486,1812116,0
1711590149519,1711590144526,1812426,0
1711590149519,1711590144567,1813530,0
1711590149519,1711590144606,1814615,0
1711590149519,1711590144646,1815660,0
1711590149519,1711590144686,1817044,0
1711590149519,1711590144727,1819175,0
1711590149519,1711590144767,1821777,0
1711590149519,1711590144807,1824526,0
1711590149519,1711590144847,1827613,0
1711590149519,1711590144887,1830622,0
1711590149519,1711590144927,1833777,0
1711590149519,1711590144968,1836777,0
1711590149519,1711590145007,1839836,0
1711590149519,1711590145047,1843073,0
1711590149519,1711590145087,1844209,0
1711590149519,1711590145127,1836914,0
1711590149519,1711590145168,1831243,0
1711590149519,1711590145208,1829679,0
1711590149519,1711590145248,1829952,0
1711590149519,1711590145288,1830511,0
1711590149519,1711590145328,1831757,0
1711590149519,1711590145369,1832800,0
1711590149519,1711590145408,1833778,0
1711590149519,1711590145448,1834550,0
1711590149519,1711590145488,1836067,0
1711590149519,1711590145528,1838061,0
1711590149519,1711590145569,1840472,0
1711590149519,1711590145608,1843050,0
1711590149519,1711590145648,1845745,0
1711590149519,1711590145689,1848464,0
1711590149519,1711590145729,1851047,0
1711590149519,1711590145769,1853695,0
1711590149519,1711590145809,1856423,0
1711590149519,1711590145849,1858911,0
1711590149519,1711590145889,1853439,0
1711590149519,1711590145929,1845769,0
1711590149519,1711590145970,1841708,0
1711590149519,1711590146009,1840608,0
1711590149519,1711590146050,1840547,0
1711590149519,1711590146090,1840944,0
1711590149519,1711590146130,1842058,0
1711590149519,1711590146171,1842938,0
1711590149519,1711590146210,1843543,0
1711590149519,1711590146250,1844744,0
1711590149519,1711590146290,1846626,0
1711590149519,1711590146330,1849030,0
1711590149519,1711590146371,1851744,0
1711590149519,1711590146410,1854674,0
1711590149519,1711590146450,1857613,0
1711590149519,1711590146490,1860516,0
1711590149519,1711590146531,1863429,0
1711590149519,1711590146571,1866502,0
1711590149519,1711590146611,1869242,0
1711590149519,1711590146651,1864754,0
1711590149519,1711590146691,1857408,0
1711590149519,1711590146731,1854018,0
1711590149519,1711590146772,1853567,0
1711590149519,1711590146811,1854237,0
1711590149519,1711590146851,1855288,0
1711590149519,1711590146891,1856730,0
1711590149519,1711590146931,1857842,0
1711590149519,1711590146972,1858805,0
1711590149519,1711590147012,1860037,0
1711590149519,1711590147052,1861944,0
1711590149519,1711590147092,1864456,0
1711590149519,1711590147132,1867337,0
1711590149519,1711590147173,1870261,0
1711590149519,1711590147212,1873297,0
1711590149519,1711590147252,1876302,0
1711590149519,1711590147292,1879156,0
1711590149519,1711590147333,1882174,0
1711590149519,1711590147373,1885093,0
1711590149519,1711590147413,1882018,0
1711590149519,1711590147453,1874738,0
1711590149519,1711590147493,1870622,0
1711590149519,1711590147533,1870199,0
1711590149519,1711590147574,1871455,0
1711590149519,1711590147613,1872853,0
1711590149519,1711590147653,1874807,0
1711590149519,1711590147693,1876178,0
1711590149519,1711590147734,1877172,0
1711590149519,1711590147774,1878277,0
1711590149519,1711590147814,1880183,0
1711590149519,1711590147854,1882654,0
1711590149519,1711590147894,1885337,0
1711590149519,1711590147934,1888387,0
1711590149519,1711590147975,1891396,0
1711590149519,1711590148014,1894196,0
1711590149519,1711590148054,1897072,0
1711590149519,1711590148095,1900091,0
1711590149519,1711590148135,1899566,0
1711590149519,1711590148175,1892645,0
1711590149519,1711590148215,1887784,0
1711590149519,1711590148255,1886863,0
1711590149519,1711590148295,1888052,0
1711590149519,1711590148335,1889928,0
1711590149519,1711590148376,1891913,0
1711590149519,1711590148415,1893096,0
1711590149519,1711590148456,1893875,0
1711590149519,1711590148496,1894737,0
1711590149519,1711590148536,1896187,0
1711590149519,1711590148577,1898314,0
1711590149519,1711590148616,1901026,0
1711590149519,1711590148656,1903490,0
1711590149519,1711590148696,1906213,0
1711590149519,1711590148736,1908705,0
1711590149519,1711590148777,1911225,0
1711590149519,1711590148817,1913582,0
1711590149519,1711590148857,1908409,0
1711590149519,1711590148897,1900959,0
1711590149519,1711590148937,1897416,0
1711590149519,1711590148978,1897204,0
1711590149519,1711590149017,1898051,0
1711590149519,1711590149057,1899508,0
1711590149519,1711590149097,1900692,0
1711590149519,1711590149137,1901236,0
1711590149519,1711590149178,1901353,0
1711590149519,1711590149218,1901888,0
1711590149519,1711590149258,1903529,0
1711590149519,1711590149298,1905689,0
1711590149519,1711590149338,1907967,0
1711590149519,1711590149379,1910420,0
1711590149519,1711590149418,1913045,0
1711590161559,1711590149457,1915328,0
1711590161559,1711590149497,1917622,0
1711590161559,1711590149538,1912302,0
1711590161559,1711590149578,1904310,0
1711590161559,1711590149618,1899930,0
1711590161559,1711590149658,1899200,0
1711590161559,1711590149698,1899648,0
1711590161559,1711590149738,1900770,0
1711590161559,1711590149779,1901853,0
1711590161559,1711590149818,1902327,0
1711590161559,1711590149859,1902408,0
1711590161559,1711590149899,1903182,0
1711590161559,1711590149939,1904687,0
1711590161559,1711590149980,1906614,0
1711590161559,1711590150019,1908887,0
1711590161559,1711590150059,1911206,0
1711590161559,1711590150099,1913549,0
1711590161559,1711590150139,1915804,0
1711590161559,1711590150180,1918224,0
1711590161559,1711590150219,1914610,0
1711590161559,1711590150260,1905539,0
1711590161559,1711590150300,1899700,0
1711590161559,1711590150340,1897941,0
1711590161559,1711590150381,1898081,0
1711590161559,1711590150420,1898635,0
1711590161559,1711590150460,1899416,0
1711590161559,1711590150501,1899597,0
1711590161559,1711590150540,1899364,0
1711590161559,1711590150581,1899708,0
1711590161559,1711590150621,1900825,0
1711590161559,1711590150661,1902443,0
1711590161559,1711590150701,1904573,0
1711590161559,1711590150741,1906876,0
1711590161559,1711590150782,1909038,0
1711590161559,1711590150821,1911309,0
1711590161559,1711590150861,1913687,0
1711590161559,1711590150901,1912394,0
1711590161559,1711590150942,1903210,0
1711590161559,1711590150982,1895753,0
1711590161559,1711590151022,1893111,0
1711590161559,1711590151062,1892767,0
1711590161559,1711590151102,1893312,0
1711590161559,1711590151142,1894176,0
1711590161559,1711590151183,1894353,0
1711590161559,1711590151222,1893960,0
1711590161559,1711590151262,1894880,0
1711590161559,1711590151302,1896376,0
1711590161559,1711590151343,1898416,0
1711590161559,1711590151383,1900534,0
1711590161559,1711590151423,1902839,0
1711590161559,1711590151463,1905093,0
1711590161559,1711590151503,1907403,0
1711590161559,1711590151543,1909566,0
1711590161559,1711590151584,1904645,0
1711590161559,1711590151623,1894807,0
1711590161559,1711590151663,1889102,0
1711590161559,1711590151703,1887633,0
1711590161559,1711590151743,1887703,0
1711590161559,1711590151784,1888424,0
1711590161559,1711590151824,1888983,0
1711590161559,1711590151864,1888568,0
1711590161559,1711590151904,1888151,0
1711590161559,1711590151944,1888406,0
1711590161559,1711590151984,1889437,0
1711590161559,1711590152024,1891258,0
1711590161559,1711590152064,1893234,0
1711590161559,1711590152104,1895501,0
1711590161559,1711590152144,1897615,0
1711590161559,1711590152185,1899910,0
1711590161559,1711590152224,1902159,0
1711590161559,1711590152264,1902878,0
1711590161559,1711590152305,1894203,0
1711590161559,1711590152344,1885524,0
1711590161559,1711590152385,1882166,0
1711590161559,1711590152425,1881618,0
1711590161559,1711590152465,1882193,0
1711590161559,1711590152505,1883011,0
1711590161559,1711590152545,1882833,0
1711590161559,1711590152586,1882225,0
1711590161559,1711590152625,1881939,0
1711590161559,1711590152665,1882541,0
1711590161559,1711590152705,1883905,0
1711590161559,1711590152745,1885737,0
1711590161559,1711590152786,1887772,0
1711590161559,1711590152826,1889895,0
1711590161559,1711590152866,1892026,0
1711590161559,1711590152906,1894109,0
1711590161559,1711590152946,1895968,0
1711590161559,1711590152987,1889062,0
1711590161559,1711590153026,1879925,0
1711590161559,1711590153066,1875625,0
1711590161559,1711590153106,1874727,0
1711590161559,1711590153147,1875167,0
1711590161559,1711590153187,1876164,0
1711590161559,1711590153227,1876175,0
1711590161559,1711590153267,1875376,0
1711590161559,1711590153307,1875018,0
1711590161559,1711590153347,1875349,0
1711590161559,1711590153388,1876602,0
1711590161559,1711590153427,1878361,0
1711590161559,1711590153467,1880452,0
1711590161559,1711590153507,1882535,0
1711590161559,1711590153547,1884708,0
1711590161559,1711590153588,1886837,0
1711590161559,1711590153628,1888959,0
1711590161559,1711590153668,1884326,0
1711590161559,1711590153708,1874285,0
1711590161559,1711590153748,1868420,0
1711590161559,1711590153789,1866595,0
1711590161559,1711590153828,1866293,0
1711590161559,1711590153868,1866675,0
1711590161559,1711590153908,1866971,0
1711590161559,1711590153948,1866408,0
1711590161559,1711590153989,1865752,0
1711590161559,1711590154028,1866029,0
1711590161559,1711590154069,1866898,0
1711590161559,1711590154109,1868668,0
1711590161559,1711590154149,1870585,0
1711590161559,1711590154190,1872791,0
1711590161559,1711590154229,1874921,0
1711590161559,1711590154269,1877092,0
1711590161559,1711590154309,1879316,0
1711590161559,1711590154349,1875039,0
1711590161559,1711590154390,1864745,0
1711590161559,1711590154429,1858317,0
1711590161559,1711590154470,1855893,0
1711590161559,1711590154510,1855120,0
1711590161559,1711590154550,1854958,0
1711590161559,1711590154591,1854716,0
1711590161559,1711590154630,1854087,0
1711590161559,1711590154670,1853412,0
1711590161559,1711590154710,1853413,0
1711590161559,1711590154750,1854198,0
1711590161559,1711590154791,1855752,0
1711590161559,1711590154830,1857706,0
1711590161559,1711590154870,1859722,0
1711590161559,1711590154910,1861834,0
1711590161559,1711590154951,1863984,0
1711590161559,1711590154991,1866237,0
1711590161559,1711590155031,1865904,0
1711590161559,1711590155071,1856145,0
1711590161559,1711590155111,1847677,0
1711590161559,1711590155151,1844196,0
1711590161559,1711590155192,1843012,0
1711590161559,1711590155231,1842307,0
1711590161559,1711590155271,1842305,0
1711590161559,1711590155312,1841719,0
1711590161559,1711590155352,1840877,0
1711590161559,1711590155392,1840632,0
1711590161559,1711590155432,1841438,0
1711590161559,1711590155472,1842813,0
1711590161559,1711590155512,1844700,0
1711590161559,1711590155552,1846769,0
1711590161559,1711590155593,1848921,0
1711590161559,1711590155632,1851236,0
1711590161559,1711590155672,1853583,0
1711590161559,1711590155712,1856122,0
1711590161559,1711590155753,1854092,0
1711590161559,1711590155793,1844163,0
1711590161559,1711590155833,1837161,0
1711590161559,1711590155873,1834778,0
1711590161559,1711590155913,1833891,0
1711590161559,1711590155953,1833777,0
1711590161559,1711590155994,1833854,0
1711590161559,1711590156033,1833316,0
1711590161559,1711590156073,1832625,0
1711590161559,1711590156114,1832774,0
1711590161559,1711590156154,1833817,0
1711590161559,1711590156194,1835505,0
1711590161559,1711590156234,1837634,0
1711590161559,1711590156274,1839912,0
1711590161559,1711590156314,1842126,0
1711590161559,1711590156354,1844459,0
1711590161559,1711590156395,1846823,0
1711590161559,1711590156434,1849483,0
1711590161559,1711590156475,1849699,0
1711590161559,1711590156515,1840663,0
1711590161559,1711590156555,1833020,0
1711590161559,1711590156596,1830399,0
1711590161559,1711590156635,1829936,0
1711590161559,1711590156675,1830180,0
1711590161559,1711590156715,1830593,0
1711590161559,1711590156755,1830211,0
1711590161559,1711590156796,1829510,0
1711590161559,1711590156835,1829720,0
1711590161559,1711590156876,1830598,0
1711590161559,1711590156916,1832286,0
1711590161559,1711590156956,1834423,0
1711590161559,1711590156997,1836615,0
1711590161559,1711590157036,1838965,0
1711590161559,1711590157076,1841383,0
1711590161559,1711590157116,1843822,0
1711590161559,1711590157156,1846181,0
1711590161559,1711590157197,1845559,0
1711590161559,1711590157237,1836231,0
1711590161559,1711590157277,1829187,0
1711590161559,1711590157317,1826645,0
1711590161559,1711590157357,1826059,0
1711590161559,1711590157398,1826157,0
1711590161559,1711590157437,1826666,0
1711590161559,1711590157477,1826584,0
1711590161559,1711590157517,1826294,0
1711590161559,1711590157558,1826636,0
1711590161559,1711590157598,1827817,0
1711590161559,1711590157638,1829508,0
1711590161559,1711590157678,1831509,0
1711590161559,1711590157718,1833770,0
1711590161559,1711590157758,1836043,0
1711590161559,1711590157799,1838382,0
1711590161559,1711590157838,1840479,0
1711590161559,1711590157878,1842774,0
1711590161559,1711590157919,1843401,0
1711590161559,1711590157959,1833786,0
1711590161559,1711590157999,1823915,0
1711590161559,1711590158039,1818796,0
1711590161559,1711590158079,1816280,0
1711590161559,1711590158119,1814703,0
1711590161559,1711590158159,1814009,0
1711590161559,1711590158200,1813146,0
1711590161559,1711590158239,1811843,0
1711590161559,1711590158280,1811119,0
1711590161559,1711590158320,1811193,0
1711590161559,1711590158360,1812301,0
1711590161559,1711590158401,1813973,0
1711590161559,1711590158440,1816105,0
1711590161559,1711590158480,1818570,0
1711590161559,1711590158520,1821241,0
1711590161559,1711590158560,1823971,0
1711590161559,1711590158601,1826920,0
1711590161559,1711590158641,1830144,0
1711590161559,1711590158681,1828355,0
1711590161559,1711590158721,1820107,0
1711590161559,1711590158761,1814842,0
1711590161559,1711590158802,1813846,0
1711590161559,1711590158841,1814477,0
1711590161559,1711590158881,1815687,0
1711590161559,1711590158922,1817245,0
1711590161559,1711590158962,1818372,0
1711590161559,1711590159002,1819226,0
1711590161559,1711590159042,1820653,0
1711590161559,1711590159082,1822641,0
1711590161559,1711590159122,1825389,0
1711590161559,1711590159162,1828240,0
1711590161559,1711590159203,1831338,0
1711590161559,1711590159242,1834369,0
1711590161559,1711590159282,1837216,0
1711590161559,1711590159322,1840155,0
1711590161559,1711590159362,1843088,0
1711590161559,1711590159403,1846036,0
1711590161559,1711590159443,1842581,0
1711590161559,1711590159483,1834402,0
1711590161559,1711590159523,1829590,0
1711590161559,1711590159563,1828974,0
1711590161559,1711590159604,1829607,0
1711590161559,1711590159643,1830708,0
1711590161559,1711590159683,1831775,0
1711590161559,1711590159723,1832243,0
1711590161559,1711590159763,1832505,0
1711590161559,1711590159804,1833460,0
1711590161559,1711590159843,1835144,0
1711590161559,1711590159884,1837476,0
1711590161559,1711590159924,1840077,0
1711590161559,1711590159964,1842823,0
1711590161559,1711590160005,1845607,0
1711590161559,1711590160044,1848316,0
1711590161559,1711590160084,1851045,0
1711590161559,1711590160124,1853985,0
1711590161559,1711590160164,1851893,0
1711590161559,1711590160205,1844051,0
1711590161559,1711590160245,1839167,0
1711590161559,1711590160284,1838292,0
1711590161559,1711590160325,1839239,0
1711590161559,1711590160365,1840728,0
1711590161559,1711590160405,1842233,0
1711590161559,1711590160445,1842836,0
1711590161559,1711590160485,1843165,0
1711590161559,1711590160525,1843947,0
1711590161559,1711590160565,1845550,0
1711590161559,1711590160606,1847802,0
1711590161559,1711590160645,1850407,0
1711590161559,1711590160685,1853199,0
1711590161559,1711590160725,1855878,0
1711590161559,1711590160765,1858560,0
1711590161559,1711590160806,1861165,0
1711590161559,1711590160846,1863285,0
1711590161559,1711590160886,1857336,0
1711590161559,1711590160926,1850072,0
1711590161559,1711590160966,1846878,0
1711590161559,1711590161006,1846957,0
1711590161559,1711590161046,1848049,0
1711590161559,1711590161086,1849739,0
1711590161559,1711590161126,1850907,0
1711590161559,1711590161166,1851666,0
1711590161559,1711590161207,1852203,0
1711590161559,1711590161246,1853389,0
1711590161559,1711590161286,1855422,0
1711590161559,1711590161327,1857964,0
1711590161559,1711590161366,1860844,0
1711590161559,1711590161407,1863809,0
1711590161559,1711590161447,1866794,0
1711590173563,1711590161487,1869668,0
1711590173563,1711590161527,1872607,0
1711590173563,1711590161567,1872155,0
1711590173563,1711590161608,1864047,0
1711590173563,1711590161647,1858055,0
1711590173563,1711590161687,1856433,0
1711590173563,1711590161727,1856826,0
1711590173563,1711590161767,1857615,0
1711590173563,1711590161808,1859029,0
1711590173563,1711590161847,1859711,0
1711590173563,1711590161887,1859699,0
1711590173563,1711590161928,1860050,0
1711590173563,1711590161968,1861099,0
1711590173563,1711590162008,1862779,0
1711590173563,1711590162048,1864749,0
1711590173563,1711590162088,1867007,0
1711590173563,1711590162128,1869310,0
1711590173563,1711590162168,1871664,0
1711590173563,1711590162209,1873965,0
1711590173563,1711590162248,1876047,0
1711590173563,1711590162288,1873188,0
1711590173563,1711590162328,1863177,0
1711590173563,1711590162368,1856125,0
1711590173563,1711590162409,1853414,0
1711590173563,1711590162448,1853094,0
1711590173563,1711590162489,1853028,0
1711590173563,1711590162529,1853296,0
1711590173563,1711590162569,1852751,0
1711590173563,1711590162610,1851668,0
1711590173563,1711590162649,1851163,0
1711590173563,1711590162689,1851549,0
1711590173563,1711590162729,1852655,0
1711590173563,1711590162769,1854270,0
1711590173563,1711590162810,1856207,0
1711590173563,1711590162849,1858319,0
1711590173563,1711590162890,1860479,0
1711590173563,1711590162929,1862645,0
1711590173563,1711590162970,1863811,0
1711590173563,1711590163010,1855888,0
1711590173563,1711590163050,1847771,0
1711590173563,1711590163090,1844057,0
1711590173563,1711590163130,1843736,0
1711590173563,1711590163170,1844593,0
1711590173563,1711590163211,1845954,0
1711590173563,1711590163250,1846677,0
1711590173563,1711590163290,1846491,0
1711590173563,1711590163330,1846469,0
1711590173563,1711590163371,1847157,0
1711590173563,1711590163411,1848602,0
1711590173563,1711590163451,1850662,0
1711590173563,1711590163491,1853157,0
1711590173563,1711590163531,1855548,0
1711590173563,1711590163571,1858188,0
1711590173563,1711590163612,1860687,0
1711590173563,1711590163651,1858410,0
1711590173563,1711590163691,1849926,0
1711590173563,1711590163732,1843791,0
1711590173563,1711590163772,1841611,0
1711590173563,1711590163812,1841440,0
1711590173563,1711590163852,1842442,0
1711590173563,1711590163892,1843361,0
1711590173563,1711590163932,1843111,0
1711590173563,1711590163972,1842248,0
1711590173563,1711590164013,1842057,0
1711590173563,1711590164052,1842555,0
1711590173563,1711590164092,1844129,0
1711590173563,1711590164132,1846213,0
1711590173563,1711590164173,1848446,0
1711590173563,1711590164213,1850769,0
1711590173563,1711590164253,1853309,0
1711590173563,1711590164293,1850874,0
1711590173563,1711590164333,1842194,0
1711590173563,1711590164373,1836485,0
1711590173563,1711590164414,1835115,0
1711590173563,1711590164453,1835838,0
1711590173563,1711590164493,1837356,0
1711590173563,1711590164533,1838837,0
1711590173563,1711590164574,1839448,0
1711590173563,1711590164614,1839680,0
1711590173563,1711590164654,1840340,0
1711590173563,1711590164694,1841988,0
1711590173563,1711590164734,1844277,0
1711590173563,1711590164774,1846930,0
1711590173563,1711590164815,1849575,0
1711590173563,1711590164854,1852355,0
1711590173563,1711590164894,1855158,0
1711590173563,1711590164934,1853770,0
1711590173563,1711590164974,1844887,0
1711590173563,1711590165015,1838581,0
1711590173563,1711590165055,1837192,0
1711590173563,1711590165095,1837628,0
1711590173563,1711590165135,1838763,0
1711590173563,1711590165175,1839985,0
1711590173563,1711590165216,1840201,0
1711590173563,1711590165255,1840257,0
1711590173563,1711590165295,1841009,0
1711590173563,1711590165335,1842525,0
1711590173563,1711590165375,1844678,0
1711590173563,1711590165416,1847296,0
1711590173563,1711590165456,1850087,0
1711590173563,1711590165496,1852818,0
1711590173563,1711590165536,1855479,0
1711590173563,1711590165576,1858308,0
1711590173563,1711590165617,1855504,0
1711590173563,1711590165656,1846228,0
1711590173563,1711590165696,1840313,0
1711590173563,1711590165736,1838850,0
1711590173563,1711590165776,1838818,0
1711590173563,1711590165817,1839463,0
1711590173563,1711590165857,1839947,0
1711590173563,1711590165897,1840042,0
1711590173563,1711590165937,1839797,0
1711590173563,1711590165977,1840436,0
1711590173563,1711590166018,1841857,0
1711590173563,1711590166057,1843911,0
1711590173563,1711590166097,1846162,0
1711590173563,1711590166138,1848529,0
1711590173563,1711590166177,1850999,0
1711590173563,1711590166218,1853470,0
1711590173563,1711590166258,1855834,0
1711590173563,1711590166298,1858094,0
1711590173563,1711590166338,1860543,0
1711590173563,1711590166378,1856151,0
1711590173563,1711590166419,1847764,0
1711590173563,1711590166458,1843178,0
1711590173563,1711590166499,1841963,0
1711590173563,1711590166539,1841760,0
1711590173563,1711590166579,1841801,0
1711590173563,1711590166620,1841293,0
1711590173563,1711590166659,1840064,0
1711590173563,1711590166699,1838523,0
1711590173563,1711590166739,1837606,0
1711590173563,1711590166779,1837432,0
1711590173563,1711590166820,1837919,0
1711590173563,1711590166860,1839049,0
1711590173563,1711590166900,1840261,0
1711590173563,1711590166940,1841737,0
1711590173563,1711590166980,1843053,0
1711590173563,1711590167021,1844479,0
1711590173563,1711590167060,1845956,0
1711590173563,1711590167100,1847857,0
1711590173563,1711590167140,1848907,0
1711590173563,1711590167180,1843097,0
1711590173563,1711590167221,1837717,0
1711590173563,1711590167261,1835407,0
1711590173563,1711590167301,1835377,0
1711590173563,1711590167341,1836186,0
1711590173563,1711590167381,1836946,0
1711590173563,1711590167422,1837407,0
1711590173563,1711590167461,1837424,0
1711590173563,1711590167501,1837913,0
1711590173563,1711590167541,1839034,0
1711590173563,1711590167582,1842426,0
1711590173563,1711590167622,1844512,0
1711590173563,1711590167662,1846560,0
1711590173563,1711590167702,1848723,0
1711590173563,1711590167742,1850811,0
1711590173563,1711590167782,1853124,0
1711590173563,1711590167823,1855281,0
1711590173563,1711590167862,1853187,0
1711590173563,1711590167902,1850080,0
1711590173563,1711590167942,1848986,0
1711590173563,1711590167982,1849866,0
1711590173563,1711590168023,1851558,0
1711590173563,1711590168063,1853485,0
1711590173563,1711590168103,1855011,0
1711590173563,1711590168143,1856267,0
1711590173563,1711590168183,1857686,0
1711590173563,1711590168224,1859504,0
1711590173563,1711590168263,1861838,0
1711590173563,1711590168303,1864470,0
1711590173563,1711590168343,1867096,0
1711590173563,1711590168383,1869816,0
1711590173563,1711590168424,1872451,0
1711590173563,1711590168463,1875159,0
1711590173563,1711590168503,1877760,0
1711590173563,1711590168544,1879707,0
1711590173563,1711590168584,1877870,0
1711590173563,1711590168624,1876886,0
1711590173563,1711590168664,1877737,0
1711590173563,1711590168704,1879730,0
1711590173563,1711590168744,1881804,0
1711590173563,1711590168784,1883910,0
1711590173563,1711590168825,1885623,0
1711590173563,1711590168864,1887102,0
1711590173563,1711590168904,1888752,0
1711590173563,1711590168944,1890584,0
1711590173563,1711590168984,1892739,0
1711590173563,1711590169025,1894883,0
1711590173563,1711590169065,1897178,0
1711590173563,1711590169105,1899327,0
1711590173563,1711590169145,1901531,0
1711590173563,1711590169185,1903734,0
1711590173563,1711590169226,1905910,0
1711590173563,1711590169265,1905059,0
1711590173563,1711590169305,1903486,0
1711590173563,1711590169345,1903386,0
1711590173563,1711590169385,1904784,0
1711590173563,1711590169426,1906425,0
1711590173563,1711590169465,1908245,0
1711590173563,1711590169506,1909738,0
1711590173563,1711590169546,1910971,0
1711590173563,1711590169586,1912028,0
1711590173563,1711590169627,1913728,0
1711590173563,1711590169666,1915447,0
1711590173563,1711590169706,1917357,0
1711590173563,1711590169746,1919495,0
1711590173563,1711590169786,1921588,0
1711590173563,1711590169827,1923495,0
1711590173563,1711590169867,1925577,0
1711590173563,1711590169907,1927782,0
1711590173563,1711590169947,1927364,0
1711590173563,1711590169987,1925671,0
1711590173563,1711590170028,1925517,0
1711590173563,1711590170067,1926813,0
1711590173563,1711590170107,1928732,0
1711590173563,1711590170147,1930486,0
1711590173563,1711590170187,1932085,0
1711590173563,1711590170228,1933472,0
1711590173563,1711590170267,1934841,0
1711590173563,1711590170308,1936220,0
1711590173563,1711590170348,1938355,0
1711590173563,1711590170388,1940190,0
1711590173563,1711590170429,1942412,0
1711590173563,1711590170468,1944290,0
1711590173563,1711590170508,1946356,0
1711590173563,1711590170548,1948329,0
1711590173563,1711590170588,1950276,0
1711590173563,1711590170629,1950150,0
1711590173563,1711590170668,1947734,0
1711590173563,1711590170709,1947146,0
1711590173563,1711590170749,1948106,0
1711590173563,1711590170789,1949504,0
1711590173563,1711590170830,1950835,0
1711590173563,1711590170869,1952275,0
1711590173563,1711590170909,1953494,0
1711590173563,1711590170949,1954450,0
1711590173563,1711590170989,1955721,0
1711590173563,1711590171030,1957247,0
1711590173563,1711590171069,1958950,0
1711590173563,1711590171109,1960762,0
1711590173563,1711590171149,1962538,0
1711590173563,1711590171190,1964228,0
1711590173563,1711590171230,1965821,0
1711590173563,1711590171270,1967550,0
1711590173563,1711590171310,1968177,0
1711590173563,1711590171350,1965000,0
1711590173563,1711590171390,1962864,0
1711590173563,1711590171431,1962842,0
1711590173563,1711590171470,1963707,0
1711590173563,1711590171510,1964585,0
1711590173563,1711590171550,1965508,0
1711590173563,1711590171590,1966180,0
1711590173563,1711590171631,1966809,0
1711590173563,1711590171671,1967499,0
1711590173563,1711590171711,1968455,0
1711590173563,1711590171751,1969750,0
1711590173563,1711590171791,1971136,0
1711590173563,1711590171832,1972550,0
1711590173563,1711590171871,1974059,0
1711590173563,1711590171911,1975487,0
1711590173563,1711590171951,1976799,0
1711590173563,1711590171991,1978301,0
1711590173563,1711590172032,1977158,0
1711590173563,1711590172072,1972853,0
1711590173563,1711590172112,1970085,0
1711590173563,1711590172152,1969462,0
1711590173563,1711590172192,1969682,0
1711590173563,1711590172233,1970011,0
1711590173563,1711590172272,1970320,0
1711590173563,1711590172312,1970266,0
1711590173563,1711590172352,1970169,0
1711590173563,1711590172392,1970445,0
1711590173563,1711590172433,1970934,0
1711590173563,1711590172473,1972051,0
1711590173563,1711590172513,1973160,0
1711590173563,1711590172553,1974272,0
1711590173563,1711590172593,1975532,0
1711590173563,1711590172634,1976744,0
1711590173563,1711590172673,1977743,0
1711590173563,1711590172713,1979115,0
1711590173563,1711590172753,1977825,0
1711590173563,1711590172793,1971772,0
1711590173563,1711590172834,1967254,0
1711590173563,1711590172873,1965462,0
1711590173563,1711590172913,1964731,0
1711590173563,1711590172953,1964252,0
1711590173563,1711590172994,1963994,0
1711590173563,1711590173034,1963368,0
1711590173563,1711590173074,1962532,0
1711590173563,1711590173114,1962220,0
1711590173563,1711590173154,1962350,0
1711590173563,1711590173194,1963035,0
1711590173563,1711590173235,1964016,0
1711590173563,1711590173274,1965018,0
1711590173563,1711590173314,1966115,0
1711590173563,1711590173355,1967181,0
1711590173563,1711590173395,1968343,0
1711590173563,1711590173435,1969636,0
1711590173563,1711590173475,1970219,0
1711590185607,1711590173515,1963957,0
1711590185607,1711590173555,1956583,0
1711590185607,1711590173595,1952717,0
1711590185607,1711590173636,1951282,0
1711590185607,1711590173675,1950435,0
1711590185607,1711590173716,1950015,0
1711590185607,1711590173756,1949400,0
1711590185607,1711590173796,1948144,0
1711590185607,1711590173837,1947256,0
1711590185607,1711590173876,1947038,0
1711590185607,1711590173916,1947532,0
1711590185607,1711590173956,1948463,0
1711590185607,1711590173996,1949617,0
1711590185607,1711590174037,1950819,0
1711590185607,1711590174077,1951960,0
1711590185607,1711590174117,1953028,0
1711590185607,1711590174157,1954094,0
1711590185607,1711590174197,1955119,0
1711590185607,1711590174238,1953711,0
1711590185607,1711590174277,1944018,0
1711590185607,1711590174317,1934245,0
1711590185607,1711590174357,1928695,0
1711590185607,1711590174397,1925700,0
1711590185607,1711590174438,1923206,0
1711590185607,1711590174478,1921217,0
1711590185607,1711590174518,1918604,0
1711590185607,1711590174558,1915737,0
1711590185607,1711590174598,1913249,0
1711590185607,1711590174639,1911948,0
1711590185607,1711590174678,1911475,0
1711590185607,1711590174718,1911576,0
1711590185607,1711590174758,1912130,0
1711590185607,1711590174799,1912662,0
1711590185607,1711590174839,1913507,0
1711590185607,1711590174879,1914332,0
1711590185607,1711590174919,1915248,0
1711590185607,1711590174959,1916422,0
1711590185607,1711590174999,1912340,0
1711590185607,1711590175040,1901609,0
1711590185607,1711590175079,1893352,0
1711590185607,1711590175119,1889970,0
1711590185607,1711590175160,1888364,0
1711590185607,1711590175200,1887326,0
1711590185607,1711590175241,1886216,0
1711590185607,1711590175280,1884310,0
1711590185607,1711590175320,1882166,0
1711590185607,1711590175360,1881331,0
1711590185607,1711590175401,1881718,0
1711590185607,1711590175441,1882978,0
1711590185607,1711590175481,1884737,0
1711590185607,1711590175521,1886765,0
1711590185607,1711590175561,1888775,0
1711590185607,1711590175601,1890886,0
1711590185607,1711590175642,1893101,0
1711590185607,1711590175681,1895375,0
1711590185607,1711590175721,1893145,0
1711590185607,1711590175761,1883636,0
1711590185607,1711590175801,1876536,0
1711590185607,1711590175842,1873966,0
1711590185607,1711590175882,1873297,0
1711590185607,1711590175922,1873109,0
1711590185607,1711590175962,1872963,0
1711590185607,1711590176002,1872067,0
1711590185607,1711590176043,1870737,0
1711590185607,1711590176082,1869971,0
1711590185607,1711590176122,1870161,0
1711590185607,1711590176162,1871126,0
1711590185607,1711590176202,1872285,0
1711590185607,1711590176243,1873624,0
1711590185607,1711590176282,1874743,0
1711590185607,1711590176322,1875928,0
1711590185607,1711590176363,1877156,0
1711590185607,1711590176403,1878449,0
1711590185607,1711590176443,1871954,0
1711590185607,1711590176483,1861686,0
1711590185607,1711590176523,1854989,0
1711590185607,1711590176563,1852114,0
1711590185607,1711590176603,1850527,0
1711590185607,1711590176644,1849500,0
1711590185607,1711590176683,1848023,0
1711590185607,1711590176724,1845943,0
1711590185607,1711590176763,1843718,0
1711590185607,1711590176804,1842514,0
1711590185607,1711590176844,1842183,0
1711590185607,1711590176884,1842606,0
1711590185607,1711590176924,1843343,0
1711590185607,1711590176964,1844316,0
1711590185607,1711590177004,1845323,0
1711590185607,1711590177045,1846505,0
1711590185607,1711590177084,1847856,0
1711590185607,1711590177124,1848525,0
1711590185607,1711590177164,1840829,0
1711590185607,1711590177205,1831826,0
1711590185607,1711590177245,1826690,0
1711590185607,1711590177285,1824730,0
1711590185607,1711590177325,1823840,0
1711590185607,1711590177365,1823410,0
1711590185607,1711590177405,1822509,0
1711590185607,1711590177446,1821103,0
1711590185607,1711590177485,1819951,0
1711590185607,1711590177525,1819753,0
1711590185607,1711590177565,1820455,0
1711590185607,1711590177605,1821673,0
1711590185607,1711590177646,1823299,0
1711590185607,1711590177686,1825312,0
1711590185607,1711590177726,1827194,0
1711590185607,1711590177766,1829445,0
1711590185607,1711590177806,1831790,0
1711590185607,1711590177847,1829596,0
1711590185607,1711590177886,1821994,0
1711590185607,1711590177926,1816704,0
1711590185607,1711590177966,1815239,0
1711590185607,1711590178006,1815687,0
1711590185607,1711590178047,1816415,0
1711590185607,1711590178086,1817235,0
1711590185607,1711590178126,1817251,0
1711590185607,1711590178167,1817137,0
1711590185607,1711590178207,1817664,0
1711590185607,1711590178247,1818962,0
1711590185607,1711590178287,1820898,0
1711590185607,1711590178327,1823266,0
1711590185607,1711590178367,1825916,0
1711590185607,1711590178407,1828539,0
1711590185607,1711590178448,1831448,0
1711590185607,1711590178487,1834222,0
1711590185607,1711590178527,1836078,0
1711590185607,1711590178567,1830633,0
1711590185607,1711590178607,1825629,0
1711590185607,1711590178648,1824322,0
1711590185607,1711590178688,1825335,0
1711590185607,1711590178728,1827008,0
1711590185607,1711590178768,1828936,0
1711590185607,1711590178808,1830319,0
1711590185607,1711590178849,1831329,0
1711590185607,1711590178888,1832464,0
1711590185607,1711590178928,1834413,0
1711590185607,1711590178968,1836976,0
1711590185607,1711590179008,1839829,0
1711590185607,1711590179049,1842837,0
1711590185607,1711590179088,1845976,0
1711590185607,1711590179129,1848800,0
1711590185607,1711590179169,1851864,0
1711590185607,1711590179209,1854834,0
1711590185607,1711590179250,1851921,0
1711590185607,1711590179289,1846348,0
1711590185607,1711590179329,1843824,0
1711590185607,1711590179369,1844347,0
1711590185607,1711590179409,1845594,0
1711590185607,1711590179450,1847302,0
1711590185607,1711590179489,1848353,0
1711590185607,1711590179529,1848960,0
1711590185607,1711590179570,1849501,0
1711590185607,1711590179610,1850589,0
1711590185607,1711590179650,1852568,0
1711590185607,1711590179690,1854772,0
1711590185607,1711590179730,1857351,0
1711590185607,1711590179770,1859837,0
1711590185607,1711590179810,1862290,0
1711590185607,1711590179851,1864777,0
1711590185607,1711590179890,1867138,0
1711590185607,1711590179930,1863527,0
1711590185607,1711590179971,1857962,0
1711590185607,1711590180010,1855674,0
1711590185607,1711590180051,1855951,0
1711590185607,1711590180091,1857136,0
1711590185607,1711590180131,1858507,0
1711590185607,1711590180171,1859133,0
1711590185607,1711590180211,1859248,0
1711590185607,1711590180252,1859444,0
1711590185607,1711590180291,1860364,0
1711590185607,1711590180331,1862071,0
1711590185607,1711590180371,1864152,0
1711590185607,1711590180411,1866516,0
1711590185607,1711590180452,1868680,0
1711590185607,1711590180492,1870934,0
1711590185607,1711590180532,1873260,0
1711590185607,1711590180575,1875369,0
1711590185607,1711590180612,1871083,0
1711590185607,1711590180653,1864496,0
1711590185607,1711590180692,1861578,0
1711590185607,1711590180732,1861197,0
1711590185607,1711590180772,1861497,0
1711590185607,1711590180813,1862209,0
1711590185607,1711590180853,1862534,0
1711590185607,1711590180893,1862317,0
1711590185607,1711590180933,1862394,0
1711590185607,1711590180973,1863117,0
1711590185607,1711590181013,1864463,0
1711590185607,1711590181054,1866225,0
1711590185607,1711590181093,1868163,0
1711590185607,1711590181133,1870242,0
1711590185607,1711590181173,1872223,0
1711590185607,1711590181213,1874412,0
1711590185607,1711590181254,1876543,0
1711590185607,1711590181294,1873304,0
1711590185607,1711590181334,1865756,0
1711590185607,1711590181374,1861038,0
1711590185607,1711590181414,1859693,0
1711590185607,1711590181454,1859127,0
1711590185607,1711590181494,1858622,0
1711590185607,1711590181534,1858465,0
1711590185607,1711590181574,1858002,0
1711590185607,1711590181614,1857455,0
1711590185607,1711590181655,1857757,0
1711590185607,1711590181694,1858609,0
1711590185607,1711590181734,1860120,0
1711590185607,1711590181775,1861733,0
1711590185607,1711590181815,1863654,0
1711590185607,1711590181856,1865493,0
1711590185607,1711590181895,1867314,0
1711590185607,1711590181935,1869259,0
1711590185607,1711590181975,1871014,0
1711590185607,1711590182015,1864847,0
1711590185607,1711590182056,1856780,0
1711590185607,1711590182095,1852682,0
1711590185607,1711590182136,1850884,0
1711590185607,1711590182176,1849661,0
1711590185607,1711590182216,1849041,0
1711590185607,1711590182257,1848442,0
1711590185607,1711590182296,1847595,0
1711590185607,1711590182336,1847146,0
1711590185607,1711590182376,1847267,0
1711590185607,1711590182416,1848292,0
1711590185607,1711590182457,1849636,0
1711590185607,1711590182497,1851296,0
1711590185607,1711590182536,1853236,0
1711590185607,1711590182577,1854880,0
1711590185607,1711590182617,1856849,0
1711590185607,1711590182657,1858883,0
1711590185607,1711590182697,1861031,0
1711590185607,1711590182737,1858517,0
1711590185607,1711590182780,1849751,0
1711590185607,1711590182817,1844035,0
1711590185607,1711590182858,1841860,0
1711590185607,1711590182897,1840813,0
1711590185607,1711590182937,1840115,0
1711590185607,1711590182978,1839621,0
1711590185607,1711590183018,1838832,0
1711590185607,1711590183059,1838091,0
1711590185607,1711590183098,1838132,0
1711590185607,1711590183138,1839091,0
1711590185607,1711590183178,1840406,0
1711590185607,1711590183218,1842212,0
1711590185607,1711590183259,1844074,0
1711590185607,1711590183299,1846208,0
1711590185607,1711590183339,1848181,0
1711590185607,1711590183379,1850311,0
1711590185607,1711590183419,1852642,0
1711590185607,1711590183460,1854971,0
1711590185607,1711590183499,1850353,0
1711590185607,1711590183539,1842120,0
1711590185607,1711590183580,1837571,0
1711590185607,1711590183620,1836243,0
1711590185607,1711590183660,1835478,0
1711590185607,1711590183700,1835355,0
1711590185607,1711590183740,1835070,0
1711590185607,1711590183780,1834490,0
1711590185607,1711590183820,1834218,0
1711590185607,1711590183861,1834514,0
1711590185607,1711590183900,1835872,0
1711590185607,1711590183941,1839461,0
1711590185607,1711590183981,1841688,0
1711590185607,1711590184021,1844015,0
1711590185607,1711590184062,1846121,0
1711590185607,1711590184101,1848483,0
1711590185607,1711590184141,1850944,0
1711590185607,1711590184181,1853313,0
1711590185607,1711590184221,1847813,0
1711590185607,1711590184262,1840205,0
1711590185607,1711590184301,1836732,0
1711590185607,1711590184341,1836161,0
1711590185607,1711590184381,1836144,0
1711590185607,1711590184422,1836497,0
1711590185607,1711590184462,1836655,0
1711590185607,1711590184502,1836307,0
1711590185607,1711590184542,1836223,0
1711590185607,1711590184582,1837033,0
1711590185607,1711590184622,1838499,0
1711590185607,1711590184663,1840418,0
1711590185607,1711590184702,1842573,0
1711590185607,1711590184742,1844817,0
1711590185607,1711590184782,1847060,0
1711590185607,1711590184822,1849434,0
1711590185607,1711590184863,1851849,0
1711590185607,1711590184903,1854340,0
1711590185607,1711590184943,1851419,0
1711590185607,1711590184985,1844089,0
1711590185607,1711590185023,1840084,0
1711590185607,1711590185064,1839546,0
1711590185607,1711590185103,1840109,0
1711590185607,1711590185143,1840990,0
1711590185607,1711590185183,1841756,0
1711590185607,1711590185223,1841900,0
1711590185607,1711590185264,1841952,0
1711590185607,1711590185303,1842845,0
1711590185607,1711590185343,1844411,0
1711590185607,1711590185384,1846605,0
1711590185607,1711590185424,1849025,0
1711590185607,1711590185464,1851546,0
1711590185607,1711590185504,1854003,0
1711590197658,1711590185545,1856595,0
1711590197658,1711590185585,1859119,0
1711590197658,1711590185625,1861728,0
1711590197658,1711590185666,1858882,0
1711590197658,1711590185705,1851610,0
1711590197658,1711590185745,1847679,0
1711590197658,1711590185785,1847260,0
1711590197658,1711590185826,1847841,0
1711590197658,1711590185867,1848737,0
1711590197658,1711590185906,1849675,0
1711590197658,1711590185946,1849991,0
1711590197658,1711590185986,1850174,0
1711590197658,1711590186026,1851001,0
1711590197658,1711590186067,1852638,0
1711590197658,1711590186106,1854821,0
1711590197658,1711590186146,1857272,0
1711590197658,1711590186186,1859879,0
1711590197658,1711590186227,1862438,0
1711590197658,1711590186267,1865003,0
1711590197658,1711590186307,1867615,0
1711590197658,1711590186347,1870090,0
1711590197658,1711590186387,1866154,0
1711590197658,1711590186427,1859068,0
1711590197658,1711590186468,1855692,0
1711590197658,1711590186507,1855354,0
1711590197658,1711590186547,1856179,0
1711590197658,1711590186588,1857221,0
1711590197658,1711590186628,1858183,0
1711590197658,1711590186668,1858509,0
1711590197658,1711590186708,1859039,0
1711590197658,1711590186748,1859976,0
1711590197658,1711590186788,1861556,0
1711590197658,1711590186828,1863816,0
1711590197658,1711590186869,1866254,0
1711590197658,1711590186908,1868778,0
1711590197658,1711590186949,1871206,0
1711590197658,1711590186989,1873902,0
1711590197658,1711590187029,1876467,0
1711590197658,1711590187070,1878271,0
1711590197658,1711590187109,1872334,0
1711590197658,1711590187149,1866002,0
1711590197658,1711590187189,1863741,0
1711590197658,1711590187229,1864079,0
1711590197658,1711590187270,1865118,0
1711590197658,1711590187309,1866428,0
1711590197658,1711590187349,1867219,0
1711590197658,1711590187390,1867473,0
1711590197658,1711590187430,1867845,0
1711590197658,1711590187471,1868906,0
1711590197658,1711590187510,1870590,0
1711590197658,1711590187550,1872843,0
1711590197658,1711590187590,1875268,0
1711590197658,1711590187630,1877674,0
1711590197658,1711590187671,1880100,0
1711590197658,1711590187711,1882406,0
1711590197658,1711590187751,1884673,0
1711590197658,1711590187791,1881006,0
1711590197658,1711590187831,1873991,0
1711590197658,1711590187872,1870489,0
1711590197658,1711590187911,1870180,0
1711590197658,1711590187951,1871231,0
1711590197658,1711590187991,1872561,0
1711590197658,1711590188032,1873444,0
1711590197658,1711590188072,1873451,0
1711590197658,1711590188112,1873394,0
1711590197658,1711590188152,1873911,0
1711590197658,1711590188192,1875414,0
1711590197658,1711590188232,1877431,0
1711590197658,1711590188273,1879641,0
1711590197658,1711590188312,1881815,0
1711590197658,1711590188353,1884038,0
1711590197658,1711590188393,1886357,0
1711590197658,1711590188433,1887765,0
1711590197658,1711590188474,1881285,0
1711590197658,1711590188513,1874168,0
1711590197658,1711590188553,1871544,0
1711590197658,1711590188593,1871472,0
1711590197658,1711590188633,1872245,0
1711590197658,1711590188674,1873180,0
1711590197658,1711590188714,1873556,0
1711590197658,1711590188754,1873226,0
1711590197658,1711590188794,1873164,0
1711590197658,1711590188834,1873965,0
1711590197658,1711590188875,1875453,0
1711590197658,1711590188914,1877578,0
1711590197658,1711590188954,1879643,0
1711590197658,1711590188995,1881880,0
1711590197658,1711590189035,1883951,0
1711590197658,1711590189075,1886121,0
1711590197658,1711590189115,1884770,0
1711590197658,1711590189155,1876115,0
1711590197658,1711590189195,1869877,0
1711590197658,1711590189235,1868074,0
1711590197658,1711590189276,1868096,0
1711590197658,1711590189315,1868249,0
1711590197658,1711590189356,1868646,0
1711590197658,1711590189396,1868402,0
1711590197658,1711590189436,1867872,0
1711590197658,1711590189477,1867940,0
1711590197658,1711590189516,1868907,0
1711590197658,1711590189556,1870505,0
1711590197658,1711590189596,1872326,0
1711590197658,1711590189636,1874418,0
1711590197658,1711590189677,1876464,0
1711590197658,1711590189717,1878468,0
1711590197658,1711590189757,1880244,0
1711590197658,1711590189797,1874144,0
1711590197658,1711590189837,1865438,0
1711590197658,1711590189878,1861240,0
1711590197658,1711590189917,1860187,0
1711590197658,1711590189958,1859916,0
1711590197658,1711590189998,1859986,0
1711590197658,1711590190038,1859885,0
1711590197658,1711590190079,1859258,0
1711590197658,1711590190118,1858823,0
1711590197658,1711590190158,1859178,0
1711590197658,1711590190198,1860194,0
1711590197658,1711590190238,1861853,0
1711590197658,1711590190279,1863627,0
1711590197658,1711590190319,1865618,0
1711590197658,1711590190359,1867515,0
1711590197658,1711590190399,1869632,0
1711590197658,1711590190439,1868564,0
1711590197658,1711590190480,1859697,0
1711590197658,1711590190519,1853009,0
1711590197658,1711590190560,1850688,0
1711590197658,1711590190600,1850098,0
1711590197658,1711590190640,1849811,0
1711590197658,1711590190681,1849832,0
1711590197658,1711590190720,1849419,0
1711590197658,1711590190760,1848823,0
1711590197658,1711590190800,1849352,0
1711590197658,1711590190840,1850938,0
1711590197658,1711590190881,1853179,0
1711590197658,1711590190920,1855910,0
1711590197658,1711590190960,1858760,0
1711590197658,1711590191001,1861557,0
1711590197658,1711590191041,1864484,0
1711590197658,1711590191081,1867171,0
1711590197658,1711590191121,1863189,0
1711590197658,1711590191161,1854624,0
1711590197658,1711590191201,1849549,0
1711590197658,1711590191241,1847938,0
1711590197658,1711590191282,1847179,0
1711590197658,1711590191321,1846754,0
1711590197658,1711590191361,1845917,0
1711590197658,1711590191402,1844245,0
1711590197658,1711590191442,1842477,0
1711590197658,1711590191482,1841798,0
1711590197658,1711590191522,1841778,0
1711590197658,1711590191562,1842261,0
1711590197658,1711590191602,1842981,0
1711590197658,1711590191642,1843847,0
1711590197658,1711590191683,1844781,0
1711590197658,1711590191722,1845863,0
1711590197658,1711590191762,1846361,0
1711590197658,1711590191802,1837912,0
