Timestamp,Cleaned_PPG
1711604681579,0.0
1711604681621,0.0
1711604681662,0.0
1711604681700,0.0
1711604681740,0.0
1711604681780,0.0
1711604681821,0.0
1711604681860,0.0
1711604681901,0.0
1711604681941,0.0
1711604681981,0.0
1711604682022,0.0
1711604682061,0.0
1711604682101,0.0
1711604682141,0.0
1711604682181,0.0
1711604682223,0.0
1711604682262,0.0
1711604682302,0.0
1711604682342,0.0
1711604682382,0.0
1711604682423,0.0
1711604682462,0.0
1711604682502,0.0
1711604682542,0.0
1711604682582,0.0
1711604682623,0.0
1711604682662,0.0
1711604682703,0.0
1711604682743,0.0
1711604682783,0.0
1711604682824,0.0
1711604682863,2122387.0
1711604682903,1990094.6815958954
1711604682943,1866749.6576908021
1711604682983,1750944.306272052
1711604683024,1642523.257633738
1711604683064,1540850.4132354427
1711604683104,1445437.842308301
1711604683144,1355776.4831130935
1711604683184,1270661.1538633476
1711604683225,1190509.4292847533
1711604683264,1115593.132294438
1711604683304,1045920.817715568
1711604683344,980955.6051995642
1711604683385,920097.7896824887
1711604683426,863129.7261680292
1711604683465,809926.5030712634
1711604683505,759934.894844362
1711604683545,712118.082339827
1711604683585,667300.8441338367
1711604683626,626411.4581312486
1711604683665,588411.5840645214
1711604683705,551739.5674784149
1711604683746,515186.7453662297
1711604683786,476636.538815442
1711604683827,439189.0481088632
1711604683869,402457.48138310434
1711604683906,367257.34853932075
1711604683946,333256.33063583565
1711604683986,310728.8272445947
1711604684027,294665.8444530396
1711604684066,276957.4718326605
1711604684107,267100.16067758854
1711604684147,266350.39053779375
1711604684187,261136.352210148
1711604684228,248736.8337683305
1711604684267,229495.18264111714
1711604684307,219306.64028824563
1711604684347,226332.8659073105
1711604684387,152041.53350180434
1711604684428,124754.29560189042
1711604684468,127525.17201449815
1711604684508,94345.52758897189
1711604684548,92501.77993380977
1711604684588,59348.60855395184
1711604684629,55853.476142246276
1711604684668,51006.68468782352
1711604684708,44868.24790440127
1711604684749,12583.087459613103
1711604684789,-18001.32728829328
1711604684830,-36341.43911940092
1711604684869,-50212.30176845705
1711604684909,-54631.9898711564
1711604684949,-54610.31047087442
1711604684989,-42599.01028062776
1711604685030,-31533.157162930816
1711604685069,-11510.927320154384
1711604685110,9055.657486389391
1711604685150,32050.30983145791
1711604685190,49791.980312053114
1711604685231,68929.28354645078
1711604685270,77718.47559076501
1711604685310,80910.41254205233
1711604685350,86338.71716348967
1711604685390,85008.85894786264
1711604685432,69286.71535679372
1711604685471,56465.55875980668
1711604685511,50338.98027287866
1711604685551,56271.57297454076
1711604685591,39940.135017351015
1711604685632,9500.151774027385
1711604685671,84804.3298252928
1711604685712,108118.48754013563
1711604685752,83949.34853665344
1711604685792,85060.05929542403
1711604685833,57218.32789961272
1711604685872,78080.64744285075
1711604685912,64458.82776399166
1711604685952,53124.33795798407
1711604685992,49670.13874387788
1711604686033,81591.38656918658
1711604686075,94373.98220775276
1711604686113,103392.8709173
1711604686153,119168.8729251686
1711604686193,108789.70369669958
1711604686234,103387.28530092863
1711604686273,91691.47774064378
1711604686313,84456.94901338732
1711604686354,53775.24394224724
1711604686394,32943.121447988786
1711604686435,15630.07250631554
1711604686474,1527.5714210129809
1711604686514,-11842.340822881088
1711604686554,-24203.080881336704
1711604686594,-30196.382401322015
1711604686635,-42605.21966634877
1711604686675,-56373.12150790822
1711604686715,-53397.69364116527
1711604686755,-49146.36342251301
1711604686795,-46269.52527361782
1711604686836,-48256.485550093465
1711604686875,-41288.85987616982
1711604686915,-38302.22940726485
1711604686955,-48826.56557055749
1711604686996,-56189.781719187275
1711604687037,-53670.53137720004
1711604687076,-47819.62018765835
1711604687116,-49157.29941548221
1711604687156,-55081.43226839928
1711604687196,-53772.03962712083
1711604687237,-48129.09841176681
1711604687277,-36616.90627734084
1711604687317,-40593.24109180877
1711604687357,-25463.613674094435
1711604687397,-10283.376524611376
1711604687438,-592.3375433832407
1711604687477,19466.169731027912
1711604687517,19386.594125288073
1711604687558,13253.206476961263
1711604687598,9629.91892747255
1711604687639,30952.136807367206
1711604687678,47704.74186210055
1711604687718,45160.09880803805
1711604687758,40659.67252209922
1711604687798,32031.834033095278
1711604687839,35221.82747746864
1711604687879,18075.474092935678
1711604687919,12301.720837778877
1711604687959,8454.083912441973
1711604687999,14998.248496843036
1711604688040,10642.45701508061
1711604688079,5813.51122856047
1711604688120,355.23151146573946
1711604688160,-1102.3823074307293
1711604688200,-17928.17478644941
1711604688241,-33626.01113363728
1711604688280,-34267.326426841784
1711604688320,-22806.65565688396
1711604688361,-6382.464718936011
1711604688401,1045.7111937478185
1711604688442,12244.917748567415
1711604688481,26676.5501899051
1711604688521,32057.56426912127
1711604688561,19211.020629619015
1711604688602,16900.658954977524
1711604688642,12557.161831190344
1711604688682,4712.649199131178
1711604688722,-14265.229976060335
1711604688762,-26246.28965057945
1711604688802,-20430.40956635587
1711604688843,-15789.554122125264
1711604688882,-14143.436036923435
1711604688922,-23350.004091441166
1711604688963,-33767.39525543945
1711604689003,-30462.146337892395
1711604689043,-26961.40637063887
1711604689083,-11856.791454961523
1711604689123,-19913.44038938731
1711604689163,-10699.702761345077
1711604689203,-8999.113566284068
1711604689244,2733.4608389679343
1711604689283,-1349.4999014274217
1711604689323,-1843.2674378771335
1711604689364,-4866.184173322283
1711604689404,-25563.098342730664
1711604689445,-44276.769173765555
1711604689484,-23883.79373373976
1711604689524,2103.796258735005
1711604689564,18462.63483833894
1711604689604,35594.1979899914
1711604689645,35299.11246548407
1711604689684,40310.16820360767
1711604689724,29975.072196056135
1711604689765,13606.108437826857
1711604689805,21307.9388400577
1711604689845,19951.332144076005
1711604689885,29088.02487251023
1711604689925,39618.6513276794
1711604689965,27013.907621498685
1711604690005,35703.24230201822
1711604690046,30918.813997704536
1711604690085,34752.089611810865
1711604690126,36133.69639824121
1711604690166,37313.24750915775
1711604690206,24441.077461529523
1711604690247,30961.914683726616
1711604690286,38446.470859255176
1711604690326,38514.49211370479
1711604690366,18232.061620636377
1711604690407,18401.717353120912
1711604690447,15494.008085877169
1711604690487,17855.40247098077
1711604690527,12578.671819061972
1711604690567,6937.039995471016
1711604690607,7445.990129943471
1711604690648,14515.942360203713
1711604690687,31791.90410007001
1711604690727,50215.20190061559
1711604690768,42848.38082566857
1711604690808,30140.96932982467
1711604690848,23743.176195602864
1711604690888,17851.46675354801
1711604690928,17710.196758680046
1711604690968,14941.50384500157
1711604691009,23910.899566502776
1711604691049,31563.02487323992
1711604691089,14784.834309682716
1711604691129,13704.814998576418
1711604691169,848.0197264738381
1711604691209,-12225.651715652086
1711604691250,-952.5166408093646
1711604691289,-445.24353493517265
1711604691329,7501.848101597279
1711604691370,-1004.0173624204472
1711604691410,-4233.810609268025
1711604691450,-3022.5347975413315
1711604691490,16590.02877969481
1711604691530,12610.665114203468
1711604691570,5942.764185376931
1711604691610,1732.7426686682738
1711604691651,11852.947958230972
1711604691690,10086.12417083513
1711604691731,8850.119086947292
1711604691771,6428.264885928482
1711604691811,8369.824461650569
1711604691852,8431.083457444794
1711604691891,10839.821198252495
1711604691931,9989.183733664919
1711604691972,15312.096786234993
1711604692012,15444.921786532737
1711604692053,16009.485667170025
1711604692092,18665.944996441714
1711604692133,12950.96532157762
1711604692175,11439.818992463872
1711604692215,10566.350116318092
1711604692256,8294.47822826868
1711604692295,6320.054002692923
1711604692336,7713.0601623822
1711604692376,6344.144881409593
1711604692416,5047.022297014482
1711604692457,5589.827179534361
1711604692497,6784.634587809909
1711604692537,5948.255824735388
1711604692577,3090.3827784238383
1711604692617,4272.9536800626665
1711604692658,1804.6560147413984
1711604692698,2740.4609783953056
1711604692738,4667.794189866632
1711604692778,5016.300338604022
1711604692819,6689.806185051799
1711604692860,6578.997057508212
1711604692899,4260.803487933241
1711604692943,1589.519592971541
1711604692983,890.6833428312093
1711604693023,1324.6720767780207
1711604693064,2033.3516451781616
1711604693103,2800.502753134817
1711604693144,3405.665155862458
1711604693184,-374.92454050295055
1711604693224,-1531.7363681299612
1711604693265,-674.175560226664
1711604693304,207.51256488636136
1711604693344,1916.1245304346085
1711604693384,1360.8700594697148
1711604693425,2405.454717253335
1711604693466,679.1379985855892
1711604693505,-1394.27546737995
1711604693545,-1138.8638996272348
1711604693585,-205.94635973870754
1711604693624,4278.49080972746
1711604693663,4666.829463929869
1711604693702,4295.8773385845125
1711604693741,665.3858120259829
1711604693780,79.08931582188234
1711604693819,405.7446804018691
1711604693858,3128.8206025199033
1711604693897,1203.5527277477086
1711604693936,2413.000039692037
1711604693975,1559.293210014701
1711604694014,4826.401003189385
1711604694054,3875.132062428631
1711604694094,-782.4442072371021
1711604694134,1695.4665734907612
1711604694174,6407.791941540316
1711604694214,8981.771230384707
1711604694254,8676.214639207348
1711604694294,4833.735135777853
1711604694334,3162.913581534289
1711604694374,3392.777875865344
1711604694414,21749.867255277
1711604694454,23711.847081915475
1711604694494,23204.41999801807
1711604694534,15917.924176724628
1711604694574,6290.934923930559
1711604694614,401.4634428387508
1711604694654,-10702.0377586768
1711604694694,-6897.759208437521
1711604694734,-2390.8034384385683
1711604694774,2212.8961336854845
1711604694814,7837.152923104353
1711604694854,18781.10379248578
1711604694894,38429.116577069275
1711604694934,43813.74123041704
1711604694974,32185.33646932291
1711604695014,22210.202925368212
1711604695054,-4124.009629231878
1711604695094,-13467.809718773235
1711604695134,-26722.347013620194
1711604695174,-52677.22994608246
1711604695214,-87008.17724166717
1711604695254,-103523.87952184258
1711604695294,-109869.24920393061
1711604695334,-106038.25620022789
1711604695374,-97394.28621196467
1711604695414,-91968.33566670492
1711604695454,-86954.7993785413
1711604695494,-84746.78062977828
1711604695534,-81366.6024736329
1711604695574,-91068.08981635794
1711604695614,-82214.2236896418
1711604695654,-76102.58191532968
1711604695694,-85795.82631179597
1711604695734,-76570.49427581625
1711604695774,-70377.0118358573
1711604695814,-57871.47857122403
1711604695854,-42522.212188926525
1711604695894,-34090.873375309166
1711604695934,-17502.78369777929
1711604695974,-14566.520235410891
1711604696014,-12482.78861834528
1711604696054,-10602.764547302853
1711604696094,-10667.845961671788
1711604696134,-20009.20417309599
1711604696174,-40426.16813763697
1711604696214,-48673.92828948423
1711604696254,-38056.035799740814
1711604696294,-28932.63743764814
1711604696334,-4742.970401443541
1711604696374,5956.410105179064
1711604696414,13886.318743835203
1711604696454,40535.27953036595
1711604696494,70570.2657788936
1711604696534,86473.96725369454
1711604696574,91018.56422024732
1711604696614,90365.21778100822
1711604696654,86887.3730737695
1711604696694,80782.50642417301
1711604696734,74861.72954473575
1711604696774,72186.09646403696
1711604696814,71176.6562837218
1711604696854,87140.3206489461
1711604696894,81769.08222451294
1711604696934,75559.37261112034
1711604696974,70717.92544845212
1711604697014,60246.17808559537
1711604697054,49435.230042373296
1711604697094,37382.2805501204
1711604697134,28499.974607380107
1711604697174,25102.220682210755
1711604697214,26146.875538662076
1711604697254,26730.139053056017
1711604697294,32552.768109269906
1711604697334,33623.943649914116
1711604697374,26669.19061766658
1711604697414,13924.41699963715
1711604697454,9850.397375191562
1711604697494,10043.665615956765
1711604697534,6958.931163571309
1711604697574,8800.749302849174
1711604697614,11845.30803038599
1711604697654,17095.698234422598
1711604697694,13291.193805684336
1711604697734,2491.604040053673
1711604697774,9726.80298213521
1711604697814,25224.91426288616
1711604697854,22450.304451463744
1711604697894,12192.930332158692
1711604697934,14945.245156695135
1711604697974,5135.5507990391925
1711604698014,-5484.2825371176
1711604698054,-9933.63239665702
1711604698094,-14802.349717253353
1711604698134,-11015.534230533987
1711604698174,-12207.385832823347
1711604698214,-10592.842240743805
1711604698254,-18279.95726289274
1711604698294,-28716.823917558417
1711604698334,-18172.38929486554
1711604698374,-14868.62903899746
1711604698414,-25967.260450218804
1711604698454,-36162.67879426619
1711604698494,-48871.86419516243
1711604698534,-55676.02956277132
1711604698574,-51493.2252717861
1711604698614,-48273.379175641574
1711604698654,-24966.962309813127
1711604698694,-342.45775343477726
1711604698734,18200.608152235858
1711604698774,36341.897889430635
1711604698814,44168.745275404304
1711604698854,41766.94269730942
1711604698894,42693.96557583939
1711604698934,35715.634173681494
1711604698974,35006.28865578771
1711604699014,42391.461912417784
1711604699054,30271.14257849194
1711604699094,9263.245470131747
1711604699134,7937.864544555545
1711604699174,14438.124487066641
1711604699214,6987.587371248752
1711604699254,7014.6703658388
1711604699294,10953.39393388573
1711604699334,10481.804292962886
1711604699374,10213.665758327581
1711604699414,2579.8186000604182
1711604699454,375.7216970976442
1711604699494,-4480.496873178054
1711604699534,5723.423922729678
1711604699574,19488.497715205885
1711604699614,18064.19802754
1711604699654,17644.8306412464
1711604699694,20296.032476104097
1711604699734,21058.29733802448
1711604699774,22632.3488889765
1711604699814,24316.663167550927
1711604699854,14428.618172120769
1711604699894,12370.352758803638
1711604699934,-5179.518515911885
1711604699974,-18090.670546952635
1711604700014,-29581.79326163046
1711604700054,-38427.340597205795
1711604700094,-41889.597913342994
1711604700134,-39881.071333498694
1711604700174,-45200.06967483554
1711604700214,-47228.87138296664
1711604700254,-49919.259965226986
1711604700294,-51860.70315021183
1711604700334,-52378.27040716633
1711604700374,-51108.20574492123
1711604700414,-49068.40086332429
1711604700454,-49446.647336126305
1711604700494,-52093.4267772357
1711604700534,-51973.39332369622
1711604700574,-53687.96019931976
1711604700614,-53347.00920116156
1711604700654,-50250.77970150323
1711604700694,-49501.614575223764
1711604700734,-47064.50940044341
1711604700774,-47448.181766357506
1711604700814,-49183.98000470642
1711604700854,-50426.16431469913
1711604700894,-50956.86552193877
1711604700934,-48232.53333241679
1711604700974,-44444.92120959959
1711604701014,-41717.080622877926
1711604701054,-40469.47232976137
1711604701094,-40121.2635864811
1711604701134,-39046.59274549503
1711604701174,-39343.72246810328
1711604701214,-37994.17214959394
1711604701254,-38155.01833168091
1711604701294,-36939.88737358642
1711604701334,-35898.78535373509
1711604701374,-34614.34374487121
1711604701414,-33236.409080582205
1711604701454,-33038.678717112634
1711604701494,-31089.86835250887
1711604701534,-28063.42581439833
1711604701574,-25529.536639041267
1711604701614,-23623.168563658837
1711604701654,-24312.59555749502
1711604701694,-25835.100792131852
1711604701734,-26380.487346114824
1711604701774,-26128.074545262847
1711604701814,-25687.26385710528
1711604701854,-25705.282780202804
1711604701894,-25070.53951419983
1711604701934,-26793.168576229364
1711604701974,-26900.568722329568
1711604702014,-26911.36591142323
1711604702054,-24281.32765714242
1711604702094,-23127.82320936164
1711604702134,-20676.72274981672
1711604702174,-19344.868272945983
1711604702214,-18768.80609983555
1711604702254,-18888.800285269506
1711604702294,-19684.70782932965
1711604702334,-20157.777380888117
1711604702374,-20784.01988585526
1711604702414,-20150.09939622879
1711604702454,-19536.30980265187
1711604702494,-19913.957501411205
1711604702534,-18813.996648564935
1711604702574,-18243.140329243615
1711604702614,-17466.531446058303
1711604702654,-16634.298562902026
1711604702694,-15878.710097763687
1711604702734,-14121.532143306453
1711604702774,-12206.276665681973
1711604702814,-12303.245466334745
1711604702854,-13107.408124980517
1711604702894,-14501.372291994747
1711604702934,-14457.331409478094
1711604702974,-13733.703482521
1711604703014,-13140.352642104495
1711604703054,-13387.713797996053
1711604703094,-11792.14162641624
1711604703134,-9942.488723076181
1711604703174,-11374.363478160929
1711604703214,-11917.073310970794
1711604703254,-12394.720737701515
1711604703294,-11733.998777531553
1711604703334,-12219.989465457387
1711604703374,-11758.670557940844
1711604703414,-13102.164344009012
1711604703454,-13331.18214782793
1711604703494,-14436.232981043868
1711604703534,-15182.989648445975
1711604703574,-15187.55258565303
1711604703614,-14597.825875795446
1711604703654,-13812.10059729917
1711604703694,-14021.954894583905
1711604703734,-13823.408204473555
1711604703774,-13486.291712341597
1711604703814,-13387.893444528338
1711604703854,-13375.615375265712
1711604703894,-12671.628796831239
1711604703934,-12648.348068658728
1711604703974,-13514.173636660445
1711604704014,-14617.317222463666
1711604704054,-17163.558457516134
1711604704094,-18472.037261599442
1711604704134,-19249.33078701608
1711604704174,-16105.202075100038
1711604704214,-16923.99304434564
1711604704254,-16448.684215802234
1711604704294,-16049.606460316572
1711604704334,-14820.453452656046
1711604704374,-16792.21469348832
1711604704414,-17743.584787139436
1711604704454,-16030.80051143188
1711604704494,-15459.484060939867
1711604704534,-15409.614085740875
1711604704574,-16584.03395123314
1711604704614,-17587.13997634803
1711604704654,-18947.81999608944
1711604704694,-19890.061698245583
1711604704734,-19942.934706909582
1711604704774,-19173.865813365206
1711604704814,-20006.94221461471
1711604704854,-21121.689215480117
1711604704894,-21546.69134445465
1711604704934,-22693.707048111595
1711604704974,-22164.98072204087
1711604705014,-21939.372362127062
1711604705054,-20944.891840092605
1711604705094,-20551.05006302474
1711604705134,-21752.43686922919
1711604705174,-25355.299528220203
1711604705214,-32754.32704375265
1711604705254,-34818.16743916925
1711604705294,-36631.96432499122
1711604705334,-37662.626831708476
1711604705374,-38645.53445719136
1711604705414,-38814.58427768992
1711604705454,-41605.38021511119
1711604705494,-40246.18710875325
1711604705534,-39474.604250929784
1711604705574,-39178.86396150477
1711604705672,-40297.45657942258
1711604705713,-43594.56722415285
1711604705752,-47807.88671170082
1711604705792,-49703.87559402827
1711604705832,-51049.30994675821
1711604705872,-51187.3027927822
1711604705913,-50929.4212537664
1711604705952,-50408.15548864938
1711604705992,-50581.27208957262
1711604706033,-50036.90875074896
1711604706073,-50453.71736408351
1711604706113,-50690.66365084471
1711604706153,-49551.404070131015
1711604706193,-48218.542705843225
1711604706233,-49991.29965658765
1711604706273,-52660.85111617227
1711604706314,-55998.15592529392
1711604706353,-58035.59632883174
1711604706393,-56000.19943822129
1711604706434,-55344.73010275373
1711604706474,-55366.33691795403
1711604706514,-54062.68767312169
1711604706554,-53695.79965852294
1711604706594,-52463.310179211665
1711604706634,-50916.24093750445
1711604706674,-49266.636184972245
1711604706715,-47199.84663801873
1711604706755,-45326.19088438945
1711604706795,-45511.84526983299
1711604706835,-49010.37635394349
1711604706875,-52720.30166917853
1711604706916,-54866.085072931135
1711604706955,-55562.62463623332
1711604706995,-54706.36341182329
1711604707035,-53864.68479459826
1711604707075,-52660.36904921685
1711604707116,-50441.02886096388
1711604707156,-47699.26058207685
1711604707196,-45248.15450188052
1711604707236,-42402.1015450689
1711604707276,-40444.71571888868
1711604707317,-37989.59712336655
1711604707356,-35508.06896561198
1711604707396,-34396.10268594674
1711604707436,-35935.98424160527
1711604707476,-38453.123958199285
1711604707517,-40397.58162414236
1711604707557,-40849.488946156576
1711604707597,-40003.26983720949
1711604707637,-38561.223830529954
1711604707677,-40257.54742078483
1711604707718,-39395.78242656076
1711604707757,-38009.38589263242
1711604707797,-36880.10828572977
1711604707838,-33649.94166428037
1711604707878,-31286.99571714038
1711604707918,-28272.090671808925
1711604707958,-25268.152639497304
1711604707998,-23561.916086131707
1711604708038,-25334.11705737794
1711604708078,-28006.754385069944
1711604708119,-29614.709159408463
1711604708158,-30482.180628983304
1711604708198,-30036.566430790816
1711604708239,-29365.73887929693
1711604708279,-28364.689610988833
1711604708320,-26703.90816281666
1711604708359,-25233.379742785357
1711604708399,-23288.212372509763
1711604708439,-22332.862956692465
1711604708480,-21013.951632454526
1711604708520,-19675.641612514388
1711604708559,-15861.29498654441
1711604708600,-15784.657104881713
1711604708640,-18631.977479066234
1711604708680,-20348.482391247293
1711604708721,-21219.1950051398
1711604708760,-21038.363547610585
1711604708800,-19508.967930404237
1711604708841,-18782.359554678667
1711604708880,-17830.885245431447
1711604708921,-16205.314216597471
1711604708961,-14725.653393769637
1711604709001,-13188.85665061418
1711604709041,-11311.702812795527
1711604709081,-10462.876773221884
1711604709122,-7614.688186217565
1711604709161,-8684.912806370994
1711604709201,-10628.923717434984
1711604709242,-12220.672184912488
1711604709282,-13973.521310837008
1711604709323,-13148.552734263707
1711604709362,-12326.244701347314
1711604709402,-11555.999336176086
1711604709442,-10326.124205951346
1711604709482,-9226.001276331954
1711604709523,-7227.913349764654
1711604709563,-4056.9170830224175
1711604709603,-3162.0420402055606
1711604709643,-1908.5278571518138
1711604709684,-804.699363518972
1711604709725,-430.618973163655
1711604709764,-1225.2873179365415
1711604709805,-3493.6426506105345
1711604709845,-6115.426237368723
1711604709885,-6507.77779094642
1711604709926,-4846.9256768224295
1711604709965,-4203.888983648969
1711604710006,-3274.3489484800957
1711604710046,-2119.7784001957625
1711604710086,-737.6451181992888
1711604710131,260.36733975214884
1711604710171,1426.5735529400408
1711604710211,2491.01502402639
1711604710251,3755.026391595369
1711604710292,3476.3821442984045
1711604710332,2006.2577205321286
1711604710372,355.46254327264614
1711604710412,-2857.897774803452
1711604710452,-1360.2121436835732
1711604710492,-1148.4497872379143
1711604710533,-1130.7500287531875
1711604710573,-616.6280388967134
1711604710613,288.2344726771116
1711604710653,1146.5292340153828
1711604710693,2295.4811103602406
1711604710734,3952.0703646908514
1711604710773,5087.99282057723
1711604710813,6116.033080689842
1711604710854,4890.01455196389
1711604710894,1847.3785142740235
1711604710935,57.041593928355724
1711604710974,-1335.1187676731497
1711604711014,-4618.133831049781
1711604711055,-2605.0977803096175
1711604711095,-0.5793518023565412
1711604711136,-567.5925363488495
1711604711175,-376.60539316479117
1711604711215,-20.973002321552485
1711604711256,205.50772761111148
1711604711296,-2421.9398011034355
1711604711336,-2840.590198963415
1711604711376,6016.545738251647
1711604711416,14054.917914983816
1711604711456,17826.92507270025
1711604711497,17274.22525720927
1711604711538,17060.98420493817
1711604711577,24213.323678655317
1711604711617,35148.50166573771
1711604711657,39191.38918168191
1711604711698,42066.78143618419
1711604711739,44708.734484188724
1711604711778,47617.273267393466
1711604711818,45052.953642984154
1711604711859,43194.99506004853
1711604711899,42740.56279433123
1711604711940,39615.5679708512
1711604711980,39211.05905522732
1711604712020,38738.29081097199
1711604712060,37342.56112749502
1711604712100,34683.616254860535
1711604712141,32921.05750713544
1711604712181,34109.491096980404
1711604712221,31840.66343265446
1711604712261,29247.82173040975
1711604712301,30785.43027604581
1711604712343,22898.981685614213
1711604712382,18799.644487344194
1711604712422,19108.217558193486
1711604712463,17669.23093760619
1711604712503,15423.013710436411
1711604712544,15931.777236064197
1711604712583,21941.32382159005
1711604712623,28479.730828394182
1711604712664,26390.352818375686
1711604712704,22607.949843144044
1711604712745,20731.388749892823
1711604712784,23241.35918382951
1711604712825,27180.88637032546
1711604712865,26996.865512759425
1711604712905,22667.697017291095
1711604712947,23774.69148944039
1711604712986,22851.165047664195
1711604713026,25394.617464290932
1711604713067,27728.695206899196
1711604713107,32196.613650843035
1711604713148,31721.834438348887
1711604713188,30407.487586436328
1711604713228,34100.64053677209
1711604713268,35779.162928630365
1711604713308,35109.61464410997
1711604713349,33688.484237496275
1711604713389,34569.58190471586
1711604713429,33761.89302812889
1711604713469,31143.287216397002
1711604713509,30842.421258723363
1711604713550,31382.92231197981
1711604713590,28727.744150483515
1711604713630,29194.086155196186
1711604713671,28655.078383491375
1711604713711,28991.576950933784
1711604713752,28477.450669910293
1711604713791,30614.624354274478
1711604713831,28587.5087003035
1711604713872,27640.202431685524
1711604713912,27149.031299429946
1711604713953,26457.258874366526
1711604713992,25519.16571580991
1711604714032,24907.100769706536
1711604714072,24290.474480144912
1711604714113,24071.4561848687
1711604714154,21763.0314308824
1711604714193,21271.658913410036
1711604714234,20478.57631861465
1711604714274,21371.628610693384
1711604714314,20096.57546443958
1711604714355,18017.80927619245
1711604714394,17376.41508873203
1711604714434,19937.989591351245
1711604714475,20270.00840945891
1711604714515,20110.2201427985
1711604714556,20460.93366453168
1711604714595,19842.67835872015
1711604714635,20633.73456622404
1711604714675,20057.040866262745
1711604714716,20327.719991220627
1711604714757,21537.115040039178
1711604714796,21676.350456649903
1711604714836,20719.50116451038
1711604714877,20080.822433646536
1711604714917,19872.74961557379
1711604714958,19922.7517771665
1711604714997,18044.39055249025
1711604715037,18100.52505681431
1711604715078,16962.93154843431
1711604715118,15903.291033789515
1711604715159,16613.848323886516
1711604715198,17439.093874107115
1711604715239,18736.567263564095
1711604715279,18159.04054289451
1711604715319,17630.682298685424
1711604715360,17082.11080019176
1711604715400,16450.24269720912
1711604715440,16075.80481293844
1711604715480,14781.030360709876
1711604715520,14566.467720811488
1711604715561,14330.905280840583
1711604715601,13444.59404789214
1711604715641,13510.109015287133
1711604715681,12586.170001868624
1711604715722,11724.223799786065
1711604715762,13318.283732358832
1711604715802,15004.722572132014
1711604715842,17014.338484433945
1711604715882,20085.039975410327
1711604715923,21760.079118492315
1711604715964,19946.522609986132
1711604716003,13476.7430802444
1711604716044,10930.2237359914
1711604716084,10301.500301236752
1711604716124,11568.762706929818
1711604716165,12263.262746694032
1711604716205,12963.655961671378
1711604716245,13692.336378061678
1711604716285,13285.17130535096
1711604716326,12581.426893185358
1711604716366,13247.674261562759
1711604716406,14118.923763321713
1711604716446,13115.950076783076
1711604716486,11324.575950705446
1711604716527,10645.686868524645
1711604716568,11569.747393716592
1711604716607,11482.964131913148
1711604716647,10605.253339977004
1711604716688,8424.018440830987
1711604716728,9271.014015115332
1711604716769,6631.951954569435
1711604716808,7766.040461554425
1711604716849,5236.675921525806
1711604716889,6410.714860528242
1711604716929,8439.674451352796
1711604716970,9758.652149345726
1711604717010,11575.95378743019
1711604717050,9965.012424510438
1711604717090,8130.4353259513155
1711604717131,3088.135669159703
1711604717172,319.85118445334956
1711604717212,-594.1721541900188
1711604717252,2472.92548703379
1711604717292,9449.957164024934
1711604717332,12235.9557831618
1711604717373,12493.6103780251
1711604717413,12741.09597830032
1711604717453,12758.423736259341
1711604717493,9139.704703755677
1711604717533,6999.432124468731
1711604717574,10009.75445803674
1711604717613,9215.893823105609
1711604717654,7360.94743273058
1711604717694,7233.654625578318
1711604717733,10089.947726474144
1711604717772,8121.213281493168
1711604717811,8837.774416645523
1711604717850,6148.353955212515
1711604717889,10011.70550369937
1711604717928,8499.053524273913
1711604717967,11661.946691210847
1711604718006,9661.407533694524
1711604718045,14691.943260711618
1711604718084,11481.629035263788
1711604718123,13627.007457398111
1711604718162,10389.192317124456
1711604718201,7186.059289754368
1711604718240,6227.163276055595
1711604718279,10279.104387886822
1711604718318,9351.01611523144
1711604718357,9092.517398863332
1711604718396,11724.823782314314
1711604718435,15980.118027709424
1711604718475,15848.318077044096
1711604718515,15205.60510528856
1711604718555,12861.99162438768
1711604718595,13914.960933952592
1711604718635,12629.11207720195
1711604718675,11056.712303758832
1711604718715,10437.108166020364
1711604718755,15543.296812766697
1711604718795,17557.119306266308
1711604718835,14443.140868252143
1711604718875,13489.389774865005
1711604718915,13165.246995507274
1711604718955,14052.597123936284
1711604718995,9869.854624305386
1711604719035,12450.9751764643
1711604719075,11417.70202436694
1711604719115,13599.664713953622
1711604719155,11802.250820532208
1711604719195,11613.765576723497
1711604719235,10795.525168393739
1711604719275,11618.067484937841
1711604719315,11763.232245441992
1711604719355,9521.058520521503
1711604719395,8472.63916672999
1711604719435,9242.918361484539
1711604719475,13298.216809526319
1711604719515,12579.903954833746
1711604719555,9481.26207246352
1711604719595,10776.281824686565
1711604719635,13565.05491804704
1711604719675,13917.583219690016
1711604719715,10323.17036314914
1711604719755,8980.028060986428
1711604719795,10884.313568871235
1711604719835,12815.414998672903
1711604719875,10377.070647318847
1711604719915,11191.548296736088
1711604719955,10304.3396392602
1711604719995,9637.174938763492
1711604720035,7669.73549499549
1711604720075,7185.625784246251
1711604720115,7928.90645333007
1711604720155,12345.7520416365
1711604720195,11750.28922975692
1711604720235,10997.036752536427
1711604720275,11837.623808972538
1711604720315,12340.570223372895
1711604720355,15391.96859865589
1711604720395,14793.296926687937
1711604720435,11452.278922807658
1711604720475,16084.291364176665
1711604720515,14423.861567210639
1711604720555,14193.328799584648
1711604720595,8267.528030042537
1711604720635,12887.82640718529
1711604720675,11896.868030463578
1711604720715,10366.38359515299
1711604720755,10635.139030981343
1711604720795,11160.353346841643
1711604720835,10384.527567991521
1711604720875,11342.105922027491
1711604720915,8646.339064142201
1711604720955,8274.564536800142
1711604720995,8519.19180072588
1711604721035,8150.598095784662
1711604721075,4710.080063774716
1711604721115,4599.755924239289
1711604721155,6313.3643151009455
1711604721195,6608.858508553356
1711604721235,7801.266389075434
1711604721275,7194.53062202828
1711604721315,7482.609490723116
1711604721355,3746.825665890239
1711604721395,2301.780284046661
1711604721435,-256.04044857108966
1711604721475,-453.17989561660215
1711604721515,-387.87198699987493
1711604721555,3981.8651491298806
1711604721595,-240.12479108665138
1711604721635,-7784.894766399404
1711604721675,-4704.852092602523
1711604721715,-2979.1586940437555
1711604721755,-6529.864642781438
1711604721795,-6728.549604308093
1711604721835,-8774.87887768494
1711604721875,-2172.7244012411684
1711604721915,-1241.9547068881802
1711604721955,1055.1062855822966
1711604721995,1544.6985346772708
1711604722035,1899.8379836431704
1711604722075,166.36046515963972
1711604722115,3985.3897037892602
1711604722155,7246.21325215674
1711604722195,9521.081230062759
1711604722235,4890.703885921277
1711604722275,9450.92543708533
1711604722315,13051.817798120435
1711604722355,17664.091812354513
1711604722395,16932.583721061004
1711604722435,14848.548764191102
1711604722475,13205.19314473169
1711604722515,11829.059863010421
1711604722555,8762.164831513306
1711604722595,13047.510110230418
1711604722635,15019.098762302194
1711604722675,15644.683041069657
1711604722715,13373.17180831451
1711604722755,17341.35680933483
1711604722795,21880.790430427063
1711604722835,14940.428219368216
1711604722875,15626.451183745638
1711604722915,18631.067680621985
1711604722955,12940.303663392784
1711604722995,13142.035051794723
1711604723035,19237.491776252165
1711604723075,17968.02075106604
1711604723115,19737.30710054282
1711604723155,18991.870247873012
1711604723195,15253.681644830387
1711604723235,9127.21475001541
1711604723275,3660.6833322749007
1711604723315,-4344.4844564986415
1711604723355,4700.971617003437
1711604723395,998.0283414288424
1711604723435,7989.294109947747
1711604723475,31809.38161072042
1711604723515,40957.24989207182
1711604723555,35950.418045357335
1711604723595,26174.206679060822
1711604723635,6103.152154875919
1711604723675,-6119.660919320071
1711604723715,-11417.657676857896
1711604723755,-12126.720893200487
1711604723795,-14668.603668034775
1711604723835,-18213.606072029797
1711604723875,-18035.781437588856
1711604723915,-17420.718554047402
1711604723955,-21394.373777767643
1711604723995,-19912.39751048945
1711604724035,-30126.85518646799
1711604724075,-36499.34695939766
1711604724115,-26864.221767664887
1711604724155,-14422.951276230626
1711604724195,7280.784951981623
1711604724235,19582.975860514445
1711604724275,28405.620049882215
1711604724315,33687.84744404303
1711604724355,24988.832299341913
1711604724395,4652.966667389497
1711604724435,-7546.1502081914805
1711604724475,-4920.463286336511
1711604724515,3936.070742610842
1711604724555,16619.182456359034
1711604724595,25528.382717845496
1711604724635,22642.642699490534
1711604724675,19113.728048826102
1711604724715,5049.327425017022
1711604724755,-23126.820427859202
1711604724795,-31171.65449648956
1711604724835,-35954.005170364166
1711604724875,-29806.261993775144
1711604724915,-14513.820290254429
1711604724955,-859.5430839189794
1711604724995,6064.983436930925
1711604725035,9013.80270155496
1711604725075,12816.864799847826
1711604725115,21677.91099931998
1711604725155,20507.16261144192
1711604725195,22407.170427966164
1711604725235,28275.711722224252
1711604725275,30656.353407916613
1711604725315,36303.85646717064
1711604725355,35782.93250750401
1711604725395,30531.869264813606
1711604725435,25730.391746922163
1711604725475,12045.298967066454
1711604725515,7615.8126244046725
1711604725555,786.4154792551417
1711604725595,-8790.686959061073
1711604725635,-350.8946071441751
1711604725675,19417.18407829292
1711604725715,32080.71070766053
1711604725755,35011.65273748012
1711604725795,32413.582303347997
1711604725835,32588.29451252683
1711604725875,31814.54085248243
1711604725915,30439.869996383786
1711604725955,30833.240259275073
1711604725995,31051.271333070705
1711604726035,30138.195481382543
1711604726075,29124.847881712485
1711604726115,29211.16753178416
1711604726155,28882.83883544104
1711604726195,27442.100860330043
1711604726235,25414.641646733973
1711604726275,24164.76424237946
1711604726315,24396.489971026313
1711604726355,23022.048172564246
1711604726395,23395.97440696857
1711604726435,22274.20487777097
1711604726475,21170.08243147866
1711604726515,21225.38199388841
1711604726555,13924.532080530189
1711604726595,7934.658834819449
1711604726635,-2629.4454248752445
1711604726675,-8711.616930854507
1711604726715,-12315.220234250883
1711604726755,-16174.88964948291
1711604726795,-16297.015235369327
1711604726835,-16012.93039478641
1711604726875,-10155.647963541793
1711604726915,-5080.131733024493
1711604726955,-1876.8055446811486
1711604726995,5317.470058078878
1711604727035,15822.433308913605
1711604727075,10476.396282078233
1711604727115,11447.675836414099
1711604727155,10088.62504575029
1711604727195,9261.495468219277
1711604727235,1622.7990438390989
1711604727275,-20531.13309674454
1711604727315,-25576.890097166644
1711604727355,-21659.525707045337
1711604727395,-22338.481286385097
1711604727435,-19232.503824552987
1711604727475,-15416.81823886116
1711604727515,-10550.023069007555
1711604727555,-8947.409120257478
1711604727595,-9162.417406531982
1711604727635,-9151.302367639728
1711604727675,-9603.681611391949
1711604727715,-9052.573406292126
1711604727755,-7285.014070983976
1711604727795,-7424.180543456925
1711604727835,229.97137148631737
1711604727875,6223.290238665184
1711604727915,16334.466675025411
1711604727955,21061.097362425877
1711604727995,20950.190924529685
1711604728035,21315.81087566493
1711604728075,20386.91273390036
1711604728115,18379.119401784148
1711604728155,13422.295735572465
1711604728195,7308.598378434777
1711604728235,3549.9333834121935
1711604728275,-3533.5050988239236
1711604728315,-14304.128451530822
1711604728355,-8766.584754087497
1711604728395,-8740.545658621471
1711604728435,-7221.437828185968
1711604728475,-10432.704978475347
1711604728515,-11220.322702425532
1711604728555,6677.784004066372
1711604728595,13962.50075098034
1711604728635,13118.531688503921
1711604728675,17389.722254594788
1711604728715,15084.991932491073
1711604728755,13727.067159630591
1711604728795,12015.932729773689
1711604728835,13416.175007796148
1711604728875,16040.544335168786
1711604728915,16085.860771762673
1711604728955,16221.801900819177
1711604728995,15550.41520142788
1711604729035,14958.857792972587
1711604729075,13945.23584254831
1711604729115,14073.111373837804
1711604729155,14867.152229343308
1711604729195,13844.865031444933
1711604729235,13119.350955937989
1711604729275,13571.074539314024
1711604729315,13516.96608844283
1711604729355,12500.229721745942
1711604729395,10637.321887806058
1711604729435,5940.93654855527
1711604729475,-769.6363968024962
1711604729515,-5167.350050563924
1711604729555,-9916.845856675878
1711604729595,-10283.532883987762
1711604729635,-5393.02536515519
1711604729675,5135.467636836693
1711604729771,9739.355773735791
1711604729812,13130.450538765173
1711604729851,18009.029179807287
1711604729891,12624.757187686395
1711604729931,-11470.059300810564
1711604729971,-27786.0406880707
1711604730012,-34707.926798635395
1711604730052,-25237.246125040576
1711604730091,-18983.599507635925
1711604730132,-22531.96839352115
1711604730172,-19367.355270092143
1711604730212,-24504.278128684964
1711604730252,-28143.345336477505
1711604730292,-37357.68411028711
1711604730332,-38766.056930273306
1711604730372,-47990.26815087441
1711604730413,-61440.18087560404
1711604730452,-75023.11436369969
1711604730492,-82882.0297418735
1711604730533,-86913.68893407378
1711604730573,-81759.0649249996
1711604730614,-73212.95895167161
1711604730653,-61317.18756886944
1711604730693,-49269.88940889994
1711604730733,-37436.786229107995
1711604730773,-25924.7925699912
1711604730814,-12018.027909759432
1711604730853,-6774.271371102892
1711604730894,2080.5197882666253
1711604730934,4934.376509308349
1711604730974,5850.314532222226
1711604731015,1104.62283734628
1711604731054,1307.168914372567
1711604731094,2339.579304879997
1711604731134,1215.3692508772947
1711604731174,6001.438560673501
1711604731215,28742.592137661763
1711604731255,39954.56390856998
1711604731295,40909.160873314366
1711604731335,35353.79709754232
1711604731375,35511.82879775064
1711604731416,43183.78550462471
1711604731455,47487.0034233504
1711604731495,57072.228841345524
1711604731535,61128.940143757965
1711604731576,71354.09802692104
1711604731617,67173.87734744279
1711604731656,69543.70339344721
1711604731696,78498.74888796988
1711604731736,89451.34837878216
1711604731776,90926.99209030112
1711604731817,94011.35184920533
1711604731856,91334.0292851387
1711604731897,86705.36653480027
1711604731937,77764.98385104444
1711604731977,72574.50627492159
1711604732018,63104.21180018177
1711604732057,56718.00712690037
1711604732097,50417.400950798765
1711604732137,45316.58973532962
1711604732177,31669.816782226786
1711604732218,17271.459648333024
1711604732257,-525.1588640329428
1711604732298,-18724.92279929528
1711604732338,-34559.36201584665
1711604732378,-43735.186771260574
1711604732419,-49445.47157584969
1711604732458,-50780.735539362766
1711604732498,-52450.53530151001
1711604732538,-53394.758484077174
1711604732579,-52890.06915108813
1711604732619,-53560.96212649718
1711604732659,-53329.46098046121
1711604732699,-54454.95825479133
1711604732739,-54268.68173949793
1711604732779,-54575.43495796854
1711604732820,-51086.044792692875
1711604732859,-47215.356532214675
1711604732899,-43478.52996794949
1711604732940,-36728.40766076278
1711604732980,-31396.306271342095
1711604733021,-31100.305832648417
1711604733060,-28001.868639043765
1711604733100,-23489.94722970901
1711604733140,-23500.3688807874
1711604733180,-22809.66560407495
1711604733221,-20760.544157643337
1711604733260,-22034.907095648814
1711604733301,-18448.85424699029
1711604733341,-19071.270816215314
1711604733381,-24789.524069207953
1711604733422,-28901.650232578162
1711604733461,-27297.09013266326
1711604733501,-25660.773959702114
1711604733542,-8676.80560891144
1711604733581,13171.155451159226
1711604733622,37669.36088654818
1711604733662,52743.209487594664
1711604733702,65302.80788795138
1711604733742,69006.08018669626
1711604733782,68054.29387149261
1711604733823,70824.71524231741
1711604733862,66295.92483873712
1711604733903,48325.71883586701
1711604733943,31628.753853987902
1711604733983,20122.690482628997
1711604734024,-10805.580795356072
1711604734063,-14330.789004759863
1711604734103,-17236.249893742148
1711604734143,-15782.710874344688
1711604734183,-7842.483009974007
1711604734224,-10629.827244931832
1711604734264,2385.318329663016
1711604734304,15042.02179756551
1711604734344,20785.756919872016
1711604734384,26083.6077793343
1711604734425,21026.94630902121
1711604734464,29295.33014456299
1711604734504,22740.883070158074
1711604734544,20510.131821944844
1711604734585,12190.294544688426
1711604734626,2104.9240612187423
1711604734665,2132.532480139518
1711604734705,1861.4731802754104
1711604734745,6794.497225790285
1711604734785,21192.571683997754
1711604734826,-6169.857728924137
1711604734866,-37195.18583552679
1711604734906,-63021.7639384903
1711604734946,-73035.28191164369
1711604734986,-76966.37588220881
1711604735027,-77950.84489866951
1711604735066,-80471.61831016745
1711604735106,-87156.51198412618
1711604735146,-84909.8044133964
1711604735187,-68339.437887738
1711604735228,-52621.38275552075
1711604735267,-34708.87005753466
1711604735307,-1726.2308211396448
1711604735347,5728.971728891833
1711604735387,10554.396510386607
1711604735428,8644.437637625262
1711604735468,4888.731052085524
1711604735508,-7234.184650694486
1711604735548,-33635.988882063655
1711604735588,-36279.75977010792
1711604735629,-22508.128253413364
1711604735669,-46626.827550140675
1711604735709,-35683.19793976331
1711604735749,-30087.964224281954
1711604735789,-6996.518902795855
1711604735831,5978.340707584051
1711604735870,24432.129971753806
1711604735910,41607.40959461033
1711604735950,47905.49689819594
1711604735990,48830.257785956375
1711604736031,38710.79513403447
1711604736071,23038.97350115655
1711604736111,30087.75188729074
1711604736151,37223.551670634886
1711604736191,42187.114122022875
1711604736234,41730.7102778859
1711604736273,30920.017593796132
1711604736314,23466.841867921874
1711604736354,15250.557325919159
1711604736394,13760.995993094519
1711604736435,19634.763187316246
1711604736474,9111.742725773016
1711604736514,6584.124752668664
1711604736555,-3999.9772099135444
1711604736595,-13691.683561335783
1711604736636,-12456.244323673192
1711604736675,-11701.371573962737
1711604736715,2874.027613111306
1711604736756,29248.860408695415
1711604736796,74857.50548449298
1711604736837,100900.16682174383
1711604736879,84379.03984254925
1711604736917,62331.37263161084
1711604736957,62028.37606072659
1711604736997,49834.43948606448
1711604737039,34752.8338062251
1711604737078,21147.47473626118
1711604737118,10650.717046519509
1711604737159,-3010.1423259037547
1711604737199,-13225.948637522059
1711604737240,-18729.89556305809
1711604737279,-23077.976987461094
1711604737319,-21469.120359913446
1711604737360,-17534.436517607654
1711604737400,-19115.00722508598
1711604737441,-8446.11453684885
1711604737480,-1247.2384030993562
1711604737521,3651.7064228530508
1711604737561,9716.268982245121
1711604737601,6966.294402172323
1711604737642,-3700.0439305794425
1711604737682,-5282.459459571168
1711604737722,-21348.517345946748
1711604737762,-14041.64534970373
1711604737802,-426.2697473289445
1711604737843,23598.69225236494
1711604737883,26644.01928225998
1711604737923,13930.869127807673
1711604737963,5064.812975161243
1711604738004,10881.05420994293
1711604738045,-7128.184952723328
1711604738084,-39421.61830438627
1711604738124,-40755.27437988529
1711604738165,-29750.4945670811
1711604738205,-32541.078865199117
1711604738246,-34140.45075763133
1711604738285,-38600.25396045833
1711604738326,-42729.41481705848
1711604738366,-45602.59429199528
1711604738406,-43445.33098763926
1711604738447,-40720.2587726051
1711604738487,-38676.973629973596
1711604738527,-41768.50400063116
1711604738567,-41285.29497380555
1711604738607,-37888.5876558763
1711604738648,-33881.74838247895
1711604738688,-35318.510597132845
1711604738728,-36661.32639101101
1711604738768,-26151.674095318653
1711604738809,-22974.424529203912
1711604738850,-14753.991846758407
1711604738889,1001.6094048251398
1711604738929,21117.159400542267
1711604738970,26649.756450296612
1711604739010,38078.62885390129
1711604739050,35091.904639770975
1711604739093,28218.446366202552
1711604739130,7823.355413512792
1711604739170,-5972.113879949786
1711604739211,-7952.68027300504
1711604739251,-2889.7996819452383
1711604739291,-18850.374875529204
1711604739331,-20556.808455660474
1711604739371,-14532.181721586268
1711604739411,-16102.421910133678
1711604739452,-19953.727570016636
1711604739492,-13271.650336301187
1711604739532,-7420.332452627365
1711604739572,4169.687877214514
1711604739612,12975.36659067683
1711604739653,16761.548582861666
1711604739693,16748.022439033026
1711604739733,15631.926356462296
1711604739773,16492.75927807484
1711604739813,18466.055183905642
1711604739854,20658.20664185728
1711604739893,21609.194789274363
1711604739933,20906.7135768109
1711604739974,28918.34859649511
1711604740014,35136.70707949065
1711604740055,31949.981599824037
1711604740094,30061.28902990138
1711604740134,21339.99637331185
1711604740175,12005.335094140377
1711604740215,9908.201241324656
1711604740256,9971.220009093173
1711604740295,8870.544662022963
1711604740336,11305.874966615345
1711604740376,3484.9026863928884
1711604740416,373.65765496809036
1711604740457,10876.966523943935
1711604740497,20810.83526981133
1711604740537,22999.30893805879
1711604740577,19254.92403807235
1711604740617,14767.705780806253
1711604740658,15558.397594710346
1711604740698,18476.109482161235
1711604740738,27273.73053918057
1711604740778,31817.523413301213
1711604740818,35106.01853271248
1711604740859,36306.62917235121
1711604740899,32436.71943882946
1711604740939,29770.11724899104
1711604740979,28459.71190185938
1711604741020,27898.8575187549
1711604741061,26667.20137090748
1711604741100,27213.003222319996
1711604741141,25796.821649624035
1711604741181,23612.175952834543
1711604741221,22637.103305897675
1711604741262,22005.406843888108
1711604741304,20537.71401133691
1711604741342,19659.175152487587
1711604741382,17818.95273118047
1711604741422,16322.805534404935
1711604741463,15788.352399260271
1711604741503,15072.450076735113
1711604741543,12692.58210984664
1711604741583,11570.308555193245
1711604741624,10443.930270111188
1711604741665,11867.91328270291
1711604741704,13926.111742349342
1711604741745,13403.408559492324
1711604741785,12027.395956180524
1711604741820,11212.939148997888
1711604741861,10215.552592852153
1711604741900,10620.251851462293
1711604741940,10083.5524751544
1711604741980,9890.384238621918
1711604742020,10827.240960451309
1711604742061,10894.718165288446
1711604742101,10244.943763257004
1711604742141,9702.098450972931
1711604742181,9723.532017907593
1711604742221,9350.988344666315
1711604742262,8748.457330289297
1711604742301,7982.364600208588
1711604742342,7596.27554595191
1711604742382,6833.318258446641
1711604742422,6521.855496268021
1711604742463,7104.126874434529
1711604742502,7447.760833092034
1711604742542,7892.726278003305
1711604742583,8681.801532708574
1711604742623,8676.626493462361
1711604742663,7838.394978635944
1711604742703,7990.183552060742
1711604742743,7661.2393652219325
1711604742783,7749.640458057402
1711604742823,8140.390602853848
1711604742864,7453.539367550053
1711604742903,7998.941748628626
1711604742944,7864.987147045787
1711604742984,6992.099956581369
1711604743024,7210.263658746146
1711604743065,7179.606321058702
1711604743104,6236.74368421128
1711604743144,7045.712061186787
1711604743184,6510.003673068015
1711604743224,7326.0016935626045
1711604743265,7566.218196504749
1711604743305,7919.113901871955
1711604743344,7319.3722287407145
1711604743385,7328.548663401278
1711604743425,6667.742419071263
1711604743465,6673.9241523812525
1711604743505,6493.021564198891
1711604743545,6110.914076198358
1711604743585,6521.507524834946
1711604743625,6446.2723498628475
1711604743666,6308.474640332628
1711604743705,6556.996626123786
1711604743745,6184.530592961237
1711604743786,6321.812962711323
1711604743826,5663.713601593394
1711604743866,3795.266279957257
1711604743906,-1475.3954886454158
1711604743946,-4498.451600086875
1711604743986,-17364.037458022125
1711604744026,-24751.09112136718
1711604744067,-33911.19763818849
1711604744106,-36264.0188882472
1711604744146,-36616.46975703444
1711604744186,-31136.47474067984
1711604744226,-27242.47795487661
1711604744267,-19634.357261986705
1711604744307,-9051.885268552694
1711604744347,-2143.1625030355062
1711604744387,8099.49044536124
1711604744427,9361.462019043975
1711604744468,14813.488921267679
1711604744507,19827.662276097806
1711604744547,679.5458604013547
1711604744587,-13591.532343654428
1711604744628,-12883.169223523
1711604744668,-9686.646592159756
1711604744708,-8165.585040250327
1711604744748,-4136.040548625402
1711604744788,-1269.465524436906
1711604744828,-196.46835294179618
1711604744869,3333.5794178792275
1711604744908,3501.060488832183
1711604744948,5271.397563544568
1711604744988,5811.444786404958
1711604745028,7047.784981810488
1711604745069,6117.798557821196
1711604745109,6788.554949888494
1711604745149,6300.204511930235
1711604745189,12616.262279918417
1711604745229,16104.893563008634
1711604745270,28629.73601537873
1711604745309,36369.950515519595
1711604745349,43339.21611303068
1711604745389,42053.096256243065
1711604745429,38793.27194181341
1711604745470,28975.65757959406
1711604745510,22642.6798561858
1711604745550,14186.569393164013
1711604745590,4910.399033113848
1711604745630,-1100.4146551918238
1711604745671,-10143.863632739522
1711604745710,-11402.640581870452
1711604745750,-14468.6209816942
1711604745790,-19012.02697261842
1711604745831,2156.7880370435305
1711604745871,15069.616758197546
1711604745911,13650.131049050484
1711604745951,12475.045938374707
1711604745991,12937.10196870775
1711604746031,11807.920920853037
1711604746072,12306.673885063967
1711604746111,13610.683817484882
1711604746151,12566.543225821108
1711604746192,14219.00354615599
1711604746232,13617.897888111183
1711604746272,14306.030631868634
1711604746312,14213.010559292976
1711604746352,14824.389919433044
1711604746392,14491.85710861138
1711604746432,15930.075064587174
1711604746473,14685.356400059303
1711604746512,13899.010948304553
1711604746553,13585.139533558395
1711604746593,12700.227466407232
1711604746633,11556.179366849829
1711604746674,12018.451350622345
1711604746713,10475.38243248593
1711604746753,9699.873315202072
1711604746793,10089.942504122853
1711604746833,10169.778786625713
1711604746874,9627.52605591435
1711604746914,8431.7207152443
1711604746954,7373.3462352231145
1711604746994,6412.9504367839545
1711604747034,5427.942765221931
1711604747075,4374.457737436518
1711604747114,3149.1155858519487
1711604747154,4317.729205274489
1711604747194,3729.980824455619
1711604747234,3899.5087704542093
1711604747276,4410.019736478571
1711604747315,4751.323682370596
1711604747355,4405.003319731448
1711604747395,4849.030349208042
1711604747435,4550.948196116835
1711604747476,3855.3669116795063
1711604747516,3776.82668480929
1711604747556,4039.073364513926
1711604747596,3643.857519821264
1711604747637,3976.0457887537777
1711604747677,3697.5517049343325
1711604747717,3718.4821052486077
1711604747757,3345.8939322745427
1711604747797,4289.065637874883
1711604747838,4043.961410904769
1711604747879,3371.2172217443585
1711604747919,4118.325257000513
1711604747959,3310.7582517978735
1711604747999,3418.0441456818953
1711604748039,3034.625086591579
1711604748080,2590.809853281826
1711604748120,2736.4401370184496
1711604748160,2323.9224641257897
1711604748201,2335.9752656570636
1711604748241,1980.4814869211987
1711604748282,3206.6048261225224
1711604748322,3293.448304331396
1711604748362,3935.9888969343156
1711604748402,4246.399189563468
1711604748443,3826.3508980348706
1711604748484,4267.790384902153
1711604748524,3972.5693100215867
1711604748564,4093.046077356674
1711604748604,4222.066610818729
1711604748644,4074.6444067722186
1711604748685,3909.8125643478706
1711604748725,3709.0116270575672
1711604748765,4510.715407550335
1711604748805,4290.873991741799
1711604748845,4315.3048961386085
1711604748886,4623.717103742063
1711604748926,4146.054263117723
1711604748966,4815.869935196824
1711604749006,4695.49246453587
1711604749046,4304.639900021255
1711604749087,4354.908473283518
1711604749126,4413.845770773478
1711604749167,4592.660078113433
1711604749207,3580.2791896923445
1711604749247,3904.205173972994
1711604749288,3621.262696134858
1711604749327,3738.141328644473
1711604749367,3578.0592595883645
1711604749408,3554.5138274929486
1711604749448,3779.81942066364
1711604749489,4058.6911483579315
1711604749528,4419.919044747017
1711604749568,4280.392608363647
1711604749608,3420.857679619454
1711604749649,3384.280722772237
1711604749690,3341.1986428140663
1711604749729,3549.854522509966
1711604749769,2902.0288818310946
1711604749810,2825.9780377224088
1711604749850,2022.8453577626497
1711604749891,1659.5937402853742
1711604749930,1428.1750483484939
1711604749970,1326.0343493586406
1711604750011,1007.0695242546499
1711604750051,1168.0573363266885
1711604750092,1253.3268357478082
1711604750131,1904.1002606628463
1711604750172,1442.2508553350344
1711604750212,1532.8112030196935
1711604750252,1299.423157431651
1711604750293,1643.3218701807782
1711604750333,1520.6047238549218
1711604750373,1212.1467647450045
1711604750413,1191.5735354898497
1711604750453,1188.0387322027236
1711604750494,1640.170857898891
1711604750534,1595.1373411631212
1711604750574,1676.7437510546297
1711604750614,1959.5203246129677
1711604750655,1988.461478705518
1711604750696,1897.7691274727695
1711604750735,2427.8001448540017
1711604750776,2553.5487728863955
1711604750816,2192.972446189262
1711604750856,2035.7102463780902
1711604750897,2717.2166125234216
1711604750936,2484.582624770701
1711604750977,3183.78131834371
1711604751018,2962.9009659946896
1711604751058,2906.833650831599
1711604751099,2879.3273559017107
1711604751139,3790.061472380534
1711604751179,3638.088341988623
1711604751219,4209.942708553746
1711604751260,4233.915342190303
1711604751300,5015.150546598714
1711604751340,4217.954947421327
1711604751380,4009.4391682171263
1711604751420,2948.3418097174726
1711604751461,2603.035588644445
1711604751502,1995.4567325850949
1711604751541,1683.6546121486463
1711604751581,1381.303053558804
1711604751622,1612.2903161891736
1711604751662,1238.269339459017
1711604751703,1712.2055337703787
1711604751742,1964.583562199492
1711604751783,2591.703990546055
1711604751823,2841.695808294695
1711604751863,2369.797487278469
1711604751904,2580.3303508674726
1711604751944,2862.593571729958
1711604751984,2738.163171500899
1711604752024,1741.1867978749797
1711604752064,1289.6504058567807
1711604752105,1564.2205151487142
1711604752144,1382.8973784036934
1711604752185,1380.3004027465358
1711604752225,829.626513547264
1711604752265,1174.508997454308
1711604752306,1161.8324136780575
1711604752345,1171.2828624271788
1711604752385,1576.63300854899
1711604752426,1332.9659314430319
1711604752466,2123.044483871199
1711604752507,2120.4032281097025
1711604752546,1812.9202262642793
1711604752586,693.2763102096505
1711604752626,1059.9021733510308
1711604752667,1045.1892033829354
1711604752708,1085.1246954263188
1711604752747,1054.1160832657479
1711604752787,888.3221121341921
1711604752827,-113.25127381645143
1711604752867,-704.0570524707437
1711604752908,-43.34614461520687
1711604752948,155.7190843843855
1711604752988,-162.50388193503022
1711604753028,-156.12166672945023
1711604753069,-120.38294515572488
1711604753109,222.00246652308851
1711604753149,339.41039277613163
1711604753189,-222.99083315581083
1711604753229,-490.73191320197657
1711604753270,-549.6841179179028
1711604753311,-495.35661786142737
1711604753350,-427.68408431392163
1711604753390,14.058343194425106
1711604753431,-214.18965906929225
1711604753471,-108.55646600574255
1711604753512,516.6541519360617
1711604753552,115.99955758824944
1711604753592,745.9328756164759
1711604753632,1053.3940623486415
1711604753673,760.1454124585725
1711604753714,405.16834231093526
1711604753753,587.0081235198304
1711604753794,-246.82445097342134
1711604753834,347.5761102279648
1711604753877,679.1550120413303
1711604753918,619.520671769511
1711604753957,1156.7605064157397
1711604753997,1795.734875856433
1711604754037,2137.37179869134
1711604754077,3004.4514049096033
1711604754118,4109.377904101741
1711604754158,4712.983934856951
1711604754198,4475.152241348289
1711604754238,5581.979342121631
1711604754278,5681.150941947941
1711604754319,5866.07682681689
1711604754358,5554.58129868377
1711604754399,5419.598782489076
1711604754439,5486.391534108669
1711604754479,5812.7579413522035
1711604754520,5992.98969824519
1711604754559,6133.927532149013
1711604754599,6483.794319189154
1711604754639,6337.3924721577205
1711604754679,6206.510926772375
1711604754720,6145.5038571250625
1711604754760,5805.318298952654
1711604754800,5421.587815813255
1711604754840,5486.949143801816
1711604754880,5236.423878090456
1711604754921,4783.438902556431
1711604754960,4962.986359572969
1711604755001,5357.969218715094
1711604755041,5480.308787256479
1711604755081,5850.519143070094
1711604755122,5777.692193356343
1711604755161,5896.8457246399485
1711604755201,5509.547072421759
1711604755242,6183.673124561552
1711604755282,5121.563771677669
1711604755323,4907.710920866579
1711604755362,4387.184808635153
1711604755402,4446.600249434821
1711604755442,4366.515451944433
1711604755483,4418.884589066729
1711604755523,2690.393930129707
1711604755563,2220.298462085426
1711604755603,2101.852421092801
1711604755643,2596.059060753789
1711604755683,2813.4551708553918
1711604755724,3004.394130609464
1711604755764,2898.8129659025
1711604755804,2717.7630681786686
1711604755844,2515.300852831453
1711604755884,1816.9322871994227
1711604755925,1523.817742742598
1711604755965,1445.2419743780047
1711604756005,2277.846974897664
1711604756045,2515.2446744674817
1711604756085,2259.547651955858
1711604756126,2429.853009575978
1711604756165,1398.9774928819388
1711604756205,1268.2507853242569
1711604756245,1075.8335026032291
1711604756285,1914.6118027484044
1711604756326,1167.0872313240543
1711604756366,1793.9971305737272
1711604756406,1551.1785738505423
1711604756446,2065.7577751283534
1711604756486,2227.808093677275
1711604756527,2655.9366469029337
1711604756566,3241.8718690332025
1711604756606,3236.819908866659
1711604756646,3215.269412134774
1711604756686,2830.160131675191
1711604756727,2621.542922911234
1711604756767,2183.3304259469733
1711604756807,2237.288719519973
1711604756847,2853.1952580874786
1711604756887,2013.7473972733133
1711604756928,2520.337519825436
1711604756967,2507.7718673516065
1711604757007,2367.3768772901967
1711604757048,2745.1011372455396
1711604757087,3240.6060335803777
1711604757128,3470.2942474195734
1711604757168,4330.928576327395
1711604757208,4585.4917952353135
1711604757248,4538.007961569354
1711604757288,4286.990747378673
1711604757329,4299.590918184258
1711604757368,3983.100392661523
1711604757408,4642.656254514586
1711604757448,4773.497483864892
1711604757488,5094.956749797333
1711604757529,5113.289536637254
1711604757569,3843.7196366898715
1711604757609,3628.8530680574477
1711604757649,3206.884316191543
1711604757689,3268.749419193715
1711604757730,3042.972818522714
1711604757769,3148.1778300851583
1711604757809,2686.9687574785203
1711604757849,2399.0090739484876
1711604757890,1959.0815772181377
1711604757930,1186.34660792863
1711604757970,1057.6266523245722
1711604758010,1236.4407263332978
1711604758050,1716.5081139565445
1711604758090,2114.850795620121
1711604758131,1230.5959697579965
1711604758170,1933.1326583018526
1711604758210,238.5096685467288
1711604758251,-3356.199316568207
1711604758290,-8360.847496021539
1711604758331,-14606.2966159489
1711604758371,-20781.408411669545
1711604758411,-32056.969762036577
1711604758451,-34917.18224019464
1711604758491,-33686.56547369575
1711604758532,-31290.924345767125
1711604758571,-27074.986855630763
1711604758612,-26075.922448512167
1711604758652,-25110.79028000869
1711604758692,-22038.821194271557
1711604758733,-23492.79406157881
1711604758772,-26660.473227893002
1711604758812,-29694.400111380965
1711604758852,-31118.916035366245
1711604758892,-31668.746681412682
1711604758933,-30000.900190993212
1711604758973,-23670.58004283253
1711604759012,-14341.865945453756
1711604759053,-4649.713786765933
1711604759093,1465.4921274343506
1711604759134,5149.221902309917
1711604759173,7103.589150967542
1711604759213,8302.310262358747
1711604759253,8301.24115530448
1711604759293,7954.879398604855
1711604759334,6554.30871947296
1711604759374,5508.1888556731865
1711604759414,4937.743405393325
1711604759454,3686.1748152272776
1711604759494,3130.078606649302
1711604759535,6587.15972609492
1711604759574,10838.841887301765
1711604759614,16186.882475986145
1711604759654,18882.422893510666
1711604759694,25931.402025310323
1711604759735,25199.491839565802
1711604759775,21188.664465520065
1711604759815,16861.73127045855
1711604759855,10179.366378251929
1711604759895,7781.3228576285765
1711604759936,8258.277391553856
1711604759975,5527.484178703744
1711604760016,9569.921955530997
1711604760056,14921.093144904822
1711604760096,19382.067673970014
1711604760137,21589.54967589071
1711604760176,22538.28179487679
1711604760216,17089.23646033695
1711604760256,1150.4166816091165
1711604760297,-21032.61567055434
1711604760337,-40587.14741167752
1711604760377,-50280.91154046543
1711604760417,-54818.07939568348
1711604760457,-48171.77184326714
1711604760497,-39761.122275184374
1711604760538,-26103.340863783844
1711604760577,-13075.247059042566
1711604760617,-7168.329091706313
1711604760658,-2336.399854228366
1711604760698,-958.2561877509579
1711604760738,4262.145517695695
1711604760778,6490.45606555976
1711604760818,8251.202753793914
1711604760858,3988.079108534381
1711604760898,7411.114930004813
1711604760939,-314.0999107793905
1711604760979,-12824.409419013653
1711604761019,-26248.75776168797
1711604761059,-22957.911025182344
1711604761099,-20259.068984108046
1711604761140,-24527.515494329855
1711604761179,-22462.97088676598
1711604761219,-39661.22054314986
1711604761260,-37980.129743189085
1711604761300,-51039.35088308249
1711604761340,-56722.89727070555
1711604761380,-73226.6312554758
1711604761420,-92962.61231500516
1711604761460,-112383.12187694618
1711604761500,-118294.93288963754
1711604761541,-111407.32600728702
1711604761580,-97489.01346835401
1711604761621,-90978.21207422786
1711604761661,-95060.68594613462
1711604761701,-97184.6335341495
1711604761742,-97587.03673748393
1711604761781,-94242.33736359142
1711604761821,-99434.7006355566
1711604761862,-100853.81768810656
1711604761902,-100285.46145080053
1711604761943,-101422.75440955465
1711604761982,-104580.8559516836
1711604762022,-109409.78638825519
1711604762062,-103747.85173008265
1711604762103,-109350.11766029289
1711604762143,-100874.19390808418
1711604762183,-100031.51582667534
1711604762223,-82581.70471485378
1711604762263,-60201.95935150748
1711604762303,-44635.19589048461
1711604762344,-39240.78194653592
1711604762383,-46132.859583921265
1711604762423,-37001.30414673779
1711604762464,-64155.88642526651
1711604762504,-75728.8442698014
1711604762545,-92898.87586221611
1711604762584,-92320.95691652456
1711604762624,-98652.39118846529
1711604762664,-87103.82025152445
1711604762705,-63875.303812133614
1711604762745,-47293.399398507085
1711604762785,-40195.198249806184
1711604762825,-42069.87040482415
1711604762865,-41790.405731087085
1711604762905,-35432.150109642884
1711604762946,-28218.148679261794
1711604762985,-27318.223871258087
1711604763025,-27842.993940972723
1711604763065,-39646.61016977276
1711604763105,-50197.265598592814
1711604763146,-61008.20094190887
1711604763185,-84226.7523041491
1711604763225,-106495.85300059896
1711604763265,-113373.78902413137
1711604763306,-105835.52210158529
1711604763346,-110958.12497762404
1711604763386,-96884.8009248625
1711604763426,-67873.82649943908
1711604763466,-54782.30112795904
1711604763506,-51362.90255037183
1711604763547,-52050.15286998125
1711604763586,-25312.774343829602
1711604763627,-26551.17785952473
1711604763667,-30783.974959572777
1711604763707,-78194.69975394662
1711604763747,-79072.61229736125
1711604763787,-99609.61212612921
1711604763827,-102642.54086557962
1711604763867,-101020.89031610126
1711604763907,-102161.84340334754
1711604763948,-93198.77941860259
1711604763987,-86844.70242620655
1711604764028,-73234.01120949956
1711604764068,-64147.014682122506
1711604764108,-46744.18259285344
1711604764149,-36431.041442316025
1711604764188,-23238.718154661357
1711604764228,-6566.432844693307
1711604764268,11056.30816394044
1711604764308,18314.968890614342
1711604764349,20863.011740570422
1711604764389,29681.313769109547
1711604764428,20806.42422594456
1711604764469,32777.274373940425
1711604764509,49825.20453780051
1711604764550,51283.73461188772
1711604764589,39941.32015148224
1711604764629,39112.59461618168
1711604764669,12243.150811763015
1711604764709,-20930.238344629295
1711604764750,-34788.1033199816
1711604764789,-38169.991896058666
1711604764830,-41682.31227032351
1711604764870,-72715.90918857884
1711604764910,-77343.03231788822
1711604764951,-50174.33699437324
1711604764990,-1744.6252650995739
1711604765030,32028.2793581672
1711604765070,75088.47315606428
1711604765111,103942.37144764652
1711604765151,118639.19535548054
1711604765191,120315.3918352751
1711604765231,108628.2951503552
1711604765271,93562.66223033005
1711604765311,77908.69892522646
1711604765352,63166.02242017514
1711604765391,52113.37427755422
1711604765432,41234.89015285415
1711604765472,23788.861855163006
1711604765512,4697.31682444131
1711604765553,-4870.119205474155
1711604765593,-22676.218921223888
1711604765633,-15850.184152594302
1711604765673,-19847.256144773215
1711604765713,10874.224924593233
1711604765754,39043.30703075207
1711604765794,68454.50412381277
1711604765834,100502.2339508885
1711604765874,119662.3951830659
1711604765918,128539.49366827263
1711604765959,117525.42667729314
1711604765999,35213.965684625786
1711604766039,13961.456659367774
1711604766079,41931.95384682948
1711604766119,35376.5547633199
1711604766160,33649.28918671096
1711604766199,20353.339811506914
1711604766239,-5404.27486029733
1711604766279,-17453.86365350196
1711604766320,-6298.126672820654
1711604766360,18809.79014506028
1711604766400,28571.179062877316
1711604766440,21420.65713100368
1711604766480,25912.915016352665
1711604766521,21409.62872701697
1711604766562,7665.061067240778
1711604766601,-11852.650185542181
1711604766641,-18900.182192229666
1711604766682,-37899.72248929972
1711604766722,-42138.485489493
1711604766763,-25986.09838202712
1711604766803,-28916.15844364441
1711604766843,-24574.071644593496
1711604766883,-3578.3770710350946
1711604766923,12247.886461836752
1711604766964,26469.996138853952
1711604767004,29798.97268510936
1711604767044,21072.34954572888
1711604767084,5266.82306243456
1711604767124,-13277.978924448136
1711604767166,-46026.398690442555
1711604767205,-77072.01005039131
1711604767245,-58633.04482391756
1711604767286,24548.86538156541
1711604767326,48651.46286068694
1711604767367,24798.81440290762
1711604767406,41026.66859009396
1711604767446,48584.925728578586
1711604767487,64763.75123503758
1711604767527,79352.55968517181
1711604767568,85430.83730108454
1711604767608,53505.58314560773
1711604767648,32634.5842280637
1711604767688,23084.927493411116
1711604767729,27203.170664310455
1711604767770,38024.86843805853
1711604767809,39567.731252554106
1711604767849,40578.59820002131
1711604767890,47574.90714310086
1711604767929,52168.30736299278
1711604767970,50828.86670873966
1711604768010,60099.48195874179
1711604768050,48183.24491144344
1711604768090,54100.79155264818
1711604768130,37998.827656418085
1711604768171,17418.163714186987
1711604768211,370.574964747997
1711604768251,-11647.361796712503
1711604768291,-10969.520475392696
1711604768331,7086.148118897341
1711604768372,21522.194995466154
1711604768411,39794.069305012
1711604768452,69413.40602074377
1711604768492,90610.65484257741
1711604768532,106593.79912069975
1711604768573,102995.5982039941
1711604768612,98567.86788576795
1711604768652,79989.20896472922
1711604768693,72565.80692066113
1711604768733,43864.55089714262
1711604768774,15201.935588699533
1711604768813,18122.857206390705
1711604768853,16434.21202792041
1711604768894,19054.714443135075
1711604768934,21658.41842317069
1711604768975,20073.14887134824
1711604769014,17728.90088655497
1711604769054,7960.315758294426
1711604769095,11143.655667688465
1711604769135,10521.280315125361
1711604769176,18100.816862563603
1711604769215,13340.767014737707
1711604769255,30160.755820105784
1711604769296,22431.299925043248
1711604769336,19373.132388150785
1711604769377,14749.884555531666
1711604769416,13682.695731548127
1711604769457,13146.352355451323
1711604769497,16423.231633086223
1711604769537,18991.737343629124
1711604769578,15717.725911939982
1711604769618,-1910.662345170509
1711604769658,-9285.188774500042
1711604769698,-29994.120543772355
1711604769738,-48184.66818996053
1711604769779,-57626.65732037858
1711604769819,-57962.488649826264
1711604769859,-35830.83781758137
1711604769899,-25194.774152902188
1711604769940,-11419.837373694405
1711604769982,-9929.48623336642
1711604770021,16640.620954190847
1711604770062,46943.9900842919
1711604770102,32094.640156438807
1711604770142,26768.311098292936
1711604770183,22127.051966034807
1711604770222,11986.883633949794
1711604770263,3783.092529162299
1711604770303,2541.7002427051775
1711604770343,-6209.184384213295
1711604770384,-23685.151428340003
1711604770424,-2363.6151509392075
1711604770464,3872.230430220021
1711604770504,7346.964154089335
1711604770545,-8608.791406275006
1711604770585,-4086.039895665366
1711604770625,-1554.2734386222437
1711604770665,-165.01743275066838
1711604770705,6364.494417703478
1711604770746,-4059.7352496394888
1711604770787,-1900.6556575954892
1711604770826,-13660.48566072667
1711604770866,-23466.018424297916
1711604770907,-29897.750176473986
1711604770947,-45653.79472257942
1711604770988,-53618.8162783857
1711604771028,-59131.15830762265
1711604771068,-66954.81361699942
1711604771108,-77002.79914868204
1711604771148,-77981.16335952887
1711604771189,-86725.72617273731
1711604771229,-108834.1126968679
1711604771269,-104062.28063831804
1711604771309,-107396.16533812042
1711604771350,-97567.20559702441
1711604771390,-79441.75868994743
1711604771430,-57874.11086108186
1711604771470,-44556.17790145287
1711604771510,-40343.69524541893
1711604771550,-38232.27864525025
1711604771591,-36863.41865944071
1711604771631,-18202.586325130425
1711604771671,9778.3983286554
1711604771711,7177.689940061653
1711604771751,7414.457962547895
1711604771792,12487.65302664088
1711604771831,20022.51345154061
1711604771872,18065.094736895757
1711604771912,18811.734271571273
1711604771952,20168.86646593013
1711604771993,16964.02920646034
1711604772032,27244.106204018462
1711604772072,21000.691970235202
1711604772113,31784.90614282852
1711604772153,32778.964247809025
1711604772194,35063.359084831085
1711604772233,35135.68045094004
1711604772273,37393.07931992994
1711604772313,36129.90099135414
1711604772354,41069.19360501086
1711604772395,43794.4247089664
1711604772434,39493.42595946719
1711604772475,46684.20680012787
1711604772515,74426.41168238688
1711604772555,74977.94872722588
1711604772596,74032.24923396809
1711604772636,69977.25717058545
1711604772676,67843.16687371326
1711604772717,63746.33411461115
1711604772757,64211.27708853525
1711604772798,61681.60362451314
1711604772837,62877.96669558482
1711604772877,61303.96701729717
1711604772918,57488.66986678471
1711604772958,56122.45886596432
1711604772999,50771.28260336537
1711604773038,46650.185354535
1711604773079,40741.740865232656
1711604773119,24865.08741735341
1711604773159,15849.009930492612
1711604773200,-182.84698862722144
1711604773240,-15506.594255939592
1711604773280,-29766.526656181784
1711604773320,-28581.42618671991
1711604773360,-17056.46678428282
1711604773401,4056.579850928858
1711604773441,18564.821901526302
1711604773483,35072.69613700779
1711604773523,38329.74644709239
1711604773564,13306.39026546874
1711604773605,5261.795414756052
1711604773644,8477.125743477372
1711604773684,10676.451170624467
1711604773725,12215.756496283924
1711604773765,29740.42105242191
1711604773806,26621.789942917414
1711604773845,33592.22775436961
1711604773885,59096.50589618087
1711604773926,44060.85793059296
1711604773966,57723.12802934693
1711604774007,57845.21624419466
1711604774047,28878.28493930772
1711604774087,-8109.799808998592
1711604774127,-1296.2318831090815
1711604774167,-10254.130318730371
1711604774208,-27637.64312296803
1711604774248,-30631.3041768407
1711604774288,-24512.730119487736
1711604774328,-14682.32567431312
1711604774369,-23193.152847995516
1711604774410,-13883.23217921611
1711604774449,-24833.723230463453
1711604774490,-26764.648113687523
1711604774530,-21335.870327774435
1711604774570,-13798.05904500559
1711604774611,-10554.657724651042
1711604774651,-11161.820892038522
1711604774691,-9818.27728093788
1711604774731,-1793.2598195332102
1711604774771,4070.164705803385
1711604774812,12902.477981014643
1711604774852,40623.6573747159
1711604774892,56087.58010933967
1711604774932,47183.830140163656
1711604774972,32414.25426318287
1711604775013,28595.35357742943
1711604775052,2954.7050705200527
1711604775093,-9122.787534278352
1711604775133,-25159.69011205295
1711604775173,-45796.74659516243
1711604775214,-33045.28520561196
1711604775254,-50778.622878759634
1711604775294,-52904.52281196299
1711604775334,-22538.895815105643
1711604775374,11789.284232807346
1711604775415,7929.390490979655
1711604775455,13710.070449157618
1711604775495,31438.915449055843
1711604775535,34168.58038840769
1711604775575,29286.780476285843
1711604775616,23357.373380433302
1711604775656,39923.74040836468
1711604775696,40220.5737576331
1711604775736,51365.99650511518
1711604775776,54730.27373384219
1711604775817,49254.87285384582
1711604775857,45441.79343581479
1711604775897,42559.193879005266
1711604775937,35603.42796716327
1711604775978,17537.04049640312
1711604776019,545.594448361313
1711604776058,-16515.915945588844
1711604776099,-25057.66283736634
1711604776139,-34485.870018085
1711604776179,-46595.806836175965
1711604776220,-41509.50017943606
1711604776260,-31238.92352687451
1711604776300,-28620.190801482182
1711604776340,-24136.862548830453
1711604776380,-6020.292205761187
1711604776421,5379.436283322517
1711604776462,4848.14379057847
1711604776502,3669.0418972210027
1711604776542,2804.024072690401
1711604776583,1757.1035630325787
1711604776624,2705.975456350483
1711604776663,6227.385746921878
1711604776704,7500.587754826061
1711604776744,9191.538363403874
1711604776784,9133.667995315278
1711604776825,9403.806304330006
1711604776865,8266.054502255749
1711604776905,6652.9418943861965
1711604776945,7382.185789577197
1711604776985,8956.707530713174
1711604777026,8215.104127657134
1711604777066,8530.599170286674
1711604777106,8796.698430493008
1711604777146,8542.405568632297
1711604777186,7819.458711574785
1711604777227,6869.821932232473
1711604777267,7277.310744222719
1711604777307,7257.946700332221
1711604777347,7237.361788063077
1711604777388,6393.444201706443
1711604777429,6812.37557752151
1711604777468,6503.918252737727
1711604777508,6357.083641632227
1711604777549,6309.021203835029
1711604777589,5439.291469114833
1711604777630,4006.0029986263253
1711604777669,771.2906736519653
1711604777709,-17807.057382030645
1711604777749,-42562.54690214014
1711604777790,-48941.12555175391
1711604777830,-62750.47510831617
1711604777870,-77709.89647309901
1711604777910,-85289.4966007499
1711604777950,-88997.83697848907
1711604777989,-88529.00276854914
1711604778028,-84871.72595371399
1711604778067,-80768.6500214953
1711604778106,-77144.97664450249
1711604778145,-69240.85037294729
1711604778184,-60124.27913816599
1711604778223,-47996.78731452068
1711604778262,-31848.063041507266
1711604778301,-12963.373022178886
1711604778340,3420.2425660411827
1711604778379,18197.309270149795
1711604778418,31069.911720084492
1711604778457,38167.86268640682
1711604778496,46159.00566459494
1711604778535,53698.207393462304
1711604778574,54645.774608265376
1711604778613,54600.35066144727
1711604778652,58626.744774783496
1711604778691,60868.57568973256
1711604778730,61806.902422961546
1711604778769,59586.83562335675
1711604778808,58582.03890825226
1711604778848,57256.0446563228
1711604778888,57233.396327623166
1711604778928,57219.16567298956
1711604778968,70709.8762184272
1711604779008,83410.25755793089
1711604779048,75985.53688713955
1711604779088,77596.99793904833
1711604779128,89113.06761187455
1711604779168,97938.67640332272
1711604779208,104956.51721905638
1711604779248,105696.68226004089
1711604779288,103323.56472867192
1711604779328,95667.755239913
1711604779368,89007.6020063879
1711604779408,85726.71033314196
1711604779448,75822.47730000364
1711604779488,65296.30018040538
1711604779528,41909.77681828104
1711604779568,11792.3405005862
1711604779608,-15069.907539798412
1711604779648,-38785.32139808708
1711604779688,-58900.598305321764
1711604779728,-68510.3518959342
1711604779768,-78790.7174732734
1711604779808,-82364.66802281374
1711604779848,-78681.32136112335
1711604779888,-74972.9685205482
1711604779928,-76128.53255269886
1711604779968,-77434.28853620775
1711604780008,-74921.0875917906
1711604780048,-68665.02987700002
1711604780088,-69294.95395160303
1711604780128,-64488.67704874044
1711604780168,-61134.634964921046
1711604780208,-55943.44842855353
1711604780248,-46850.78004095284
1711604780288,-38215.1449812334
1711604780328,-29184.936647290364
1711604780368,-23416.079906863626
1711604780408,-18530.73771876935
1711604780448,-20854.185875556897
1711604780488,-18294.449667992303
1711604780528,-14083.43705973262
1711604780568,-10441.137534372043
1711604780608,-4573.0356112178415
1711604780648,-1641.4830357078463
1711604780688,-20282.053149921354
1711604780728,-17215.79301653523
1711604780768,-21571.683602199424
1711604780808,-15408.53293696791
1711604780848,-8333.359169992851
1711604780888,3680.6951735955663
1711604780928,9813.855059946189
1711604780968,18552.777795342263
1711604781008,25490.332114606863
1711604781048,29870.42942326702
1711604781088,39857.39377209591
1711604781128,47198.17388120666
1711604781168,53397.77628533356
1711604781208,55191.657563933404
1711604781248,50198.88811205863
1711604781288,41527.75943872612
1711604781328,24355.815457488177
1711604781368,25536.94897899404
1711604781408,25665.93263690127
1711604781448,19672.234468837036
1711604781488,21397.335453202017
1711604781528,13811.873805016745
1711604781568,20947.706293647178
1711604781608,15571.820097347256
1711604781648,16999.400232112035
1711604781688,11833.152801468968
1711604781728,23659.151533875614
1711604781768,25663.37412969116
1711604781808,25593.19506229274
1711604781848,32250.39581871312
1711604781888,33972.06140166358
1711604781928,31042.77554044919
1711604781968,36249.76486300165
1711604782008,47063.364393231925
1711604782048,59742.88659421611
1711604782088,62618.97537985537
1711604782128,45622.67088064924
1711604782168,11193.218439454213
1711604782208,-6989.6641293817665
1711604782248,-20096.543810748495
1711604782288,-28109.897480512504
1711604782328,-33136.56712217489
1711604782368,-51803.24877708871
1711604782408,-66861.97903207038
1711604782448,-75920.14960874617
1711604782488,-77243.78168849088
1711604782528,-68767.97772096936
1711604782568,-86142.81272403011
1711604782608,-68151.41197704943
1711604782648,-59067.620702240616
1711604782688,-53702.83244168805
1711604782728,-42404.18892677687
1711604782768,-40420.21061375993
1711604782808,-32089.280346555868
1711604782848,-29935.665851015598
1711604782888,-21042.198411007877
1711604782928,-11953.659660729812
1711604782968,-4264.650832309388
1711604783008,-3993.8950432990678
1711604783048,-879.2726106606424
1711604783088,5746.158654087456
1711604783128,478.094612136716
1711604783168,5270.463026781101
1711604783208,11418.82961165416
1711604783248,22731.36633648025
1711604783288,13953.776633550413
1711604783328,3966.0044046435505
1711604783368,-906.9726803840604
1711604783408,14471.23299362231
1711604783448,32227.466021479107
1711604783488,41191.57194179227
1711604783528,46393.82740620081
1711604783568,48511.00133972149
1711604783608,52714.23273898568
1711604783648,55808.505952547304
1711604783688,55982.41865126975
1711604783728,52022.05542463693
1711604783768,46226.188508877996
1711604783808,36937.551075228024
1711604783848,57919.53789872164
1711604783888,56044.96638735244
1711604783928,51059.45814024983
1711604783968,48542.27537024417
1711604784008,44896.91868684674
1711604784048,43436.979700982105
1711604784088,41687.40129684284
1711604784128,39284.71167034889
1711604784168,38552.97235841933
1711604784208,36471.0224448354
1711604784248,35142.04893042613
1711604784288,33567.73222019314
1711604784328,30592.78039148124
1711604784368,29540.41661659605
1711604784408,28510.476763650076
1711604784448,27666.741617922205
1711604784488,26879.26584006939
1711604784528,26047.29702239996
1711604784568,24834.310212889686
1711604784608,23169.679601470474
1711604784648,22297.33113850653
1711604784688,21337.618903782917
1711604784728,20604.575616655173
1711604784768,19613.1155903521
1711604784808,18434.619771906408
1711604784848,16751.064836370293
1711604784888,16177.467559835874
1711604784928,15616.690922758542
1711604784968,14586.764479720034
1711604785008,13753.888394805836
1711604785048,12435.028193702456
1711604785088,12241.222649621079
1711604785128,12252.35535454494
1711604785168,10521.77740174206
1711604785208,9051.57674579462
1711604785248,7927.181586956605
1711604785288,7752.483309918083
1711604785328,6813.571649441961
1711604785368,2858.2699264662806
1711604785408,-1289.4030647510663
1711604785448,-8156.905095518101
1711604785488,-12393.117867249297
1711604785528,-17541.750169901177
1711604785568,-20235.482006234815
1711604785608,-21378.30525194714
1711604785648,-22305.9241043753
1711604785688,-23582.629981244914
1711604785728,-22556.762037767563
1711604785768,-21127.92335450556
1711604785808,-18397.75996065582
1711604785848,-16215.66364455456
1711604785888,-15407.093689509667
1711604785928,-12057.286307435948
1711604785968,-12087.391163211316
1711604786008,-10403.312436972745
1711604786048,-6202.3787008724175
1711604786088,-9492.802006561775
1711604786128,-10778.379281328525
1711604786168,-10604.87891663448
1711604786208,-12601.86422832124
1711604786248,-5362.449808308855
1711604786288,1141.06436227425
1711604786328,6473.763247338589
1711604786368,5648.262641833397
1711604786408,8596.237347364193
1711604786448,9548.394196018111
1711604786488,12353.139324914897
1711604786528,12975.32924344507
1711604786568,13465.83269863599
1711604786608,12320.968732103705
1711604786648,16760.081478246255
1711604786688,17006.460491820704
1711604786728,19340.806921540527
1711604786768,12487.218352443539
1711604786808,13243.354259334737
1711604786848,10095.100582855288
1711604786888,9703.944927088683
1711604786928,9796.208006830188
1711604786968,12083.093183445977
1711604787008,14491.711334662046
1711604787048,16708.46672655642
1711604787088,17322.685120159527
1711604787128,17685.463169835042
1711604787168,19117.608689204324
1711604787208,14289.116375946207
1711604787248,12925.156476405915
1711604787288,11865.13106064056
1711604787328,7697.589256118983
1711604787368,11882.687184662092
1711604787408,16687.33731362503
1711604787448,18964.39243539842
1711604787488,20580.797176174354
1711604787528,10974.865686382633
1711604787568,4137.217175044585
1711604787608,3632.5087427143008
1711604787648,7552.142999586184
1711604787688,5353.163532456383
1711604787728,4937.693949889857
1711604787768,1774.5519421347417
1711604787808,3434.24622363504
1711604787848,612.8799619507045
1711604787888,2238.531259533949
1711604787928,-2388.2043392164633
1711604787968,4089.7605306189507
1711604788008,7017.606011743657
1711604788048,12020.190641466063
1711604788088,8228.911742626224
1711604788128,14120.820036772173
1711604788168,18230.51332161855
1711604788208,-1142.6399354254827
1711604788248,1228.8097579344176
1711604788288,-4463.114139621146
1711604788328,-4235.552386756055
1711604788368,-9782.558541347738
1711604788408,-13022.640229089651
1711604788448,-14537.256801023614
1711604788488,-13488.275720616803
1711604788528,-12280.303811565042
1711604788568,-14926.214410560671
1711604788608,-13224.929778058082
1711604788648,-11153.973582267296
1711604788688,-10875.57429179363
1711604788728,-14190.784993153065
1711604788768,-16123.90955335088
1711604788808,-12091.88647206407
1711604788848,-9261.194348508492
1711604788888,-9342.739787332714
1711604788928,-9223.378665792756
1711604788968,-6729.489921548404
1711604789008,-3757.17711034324
1711604789048,-1312.8700648769736
1711604789088,-1188.5851576551795
1711604789128,2733.049492684193
1711604789168,3013.531393047422
1711604789208,5964.012687899172
1711604789248,-69.95929889986292
1711604789288,-4571.431737344712
1711604789328,-4908.002473630942
1711604789368,-2270.507235721685
1711604789408,-6752.064661710989
1711604789448,-10790.756635760888
1711604789488,10006.450261168182
1711604789528,6626.728004397824
1711604789568,7709.627885113005
1711604789608,8893.091988936067
1711604789648,11560.81501637306
1711604789688,11033.243880217196
1711604789728,10013.38309490215
1711604789768,9568.495222871192
1711604789808,8788.728862727992
1711604789848,8312.534373971634
1711604789888,5439.895074086729
1711604789928,3216.996885637287
1711604789966,2931.197486483492
1711604790007,2864.536611199379
1711604790046,3809.2343015437946
1711604790086,4558.900419473182
1711604790126,4530.148278671317
1711604790166,4744.504867920652
1711604790207,5359.503639785107
1711604790247,5863.609456527047
1711604790287,5488.385571708903
1711604790327,4196.303081599064
1711604790367,1126.154832128901
1711604790408,-1460.3591199470684
1711604790447,-1900.2648707246408
1711604790487,-1799.113076319918
1711604790527,-1190.5626651318744
1711604790567,-462.9119038581848
1711604790608,57.17612624820322
1711604790648,331.39134351350367
1711604790688,428.42942320462316
1711604790728,435.6416527815163
1711604790768,774.4060556674376
1711604790809,968.0095737893134
1711604790848,2055.028902117163
1711604790888,205.32145445607603
1711604790928,-2131.8851006543264
1711604790968,-3055.0964968949556
1711604791009,-2481.2451694430783
1711604791049,-1504.5815164102241
1711604791089,-1123.5498570804484
1711604791129,-1044.660615696106
1711604791169,3.396481755655259
1711604791210,896.3904005591758
1711604791249,835.8638049890287
1711604791289,1379.45169236511
1711604791329,2203.3726042555645
1711604791369,2734.5911006359383
1711604791410,2477.448978068307
1711604791450,723.2201528847218
1711604791490,-1203.2728905426338
1711604791530,-1779.3115439694375
1711604791570,-981.380680992268
1711604791611,-290.3159212116152
1711604791650,924.0562523449771
1711604791690,1927.976309897378
1711604791730,1702.364123784937
1711604791770,1997.2109880791977
1711604791811,2099.0509713091888
1711604791851,2494.784536664374
1711604791891,1703.6909550060518
1711604791931,2155.143449629657
1711604791971,1319.9822667753324
1711604792012,-2134.006377837155
1711604792051,-4434.985018060543
1711604792091,-4203.686544938013
1711604792131,-3151.99082563119
1711604792172,-1029.740917253308
1711604792212,-257.2552760099061
1711604792252,-255.1971512781456
1711604792292,-464.8696711547673
1711604792332,-44.07425146410242
1711604792372,931.1414980953559
1711604792413,2312.262127800379
1711604792452,1663.6201106775552
1711604792492,-362.32651635305956
1711604792532,-2304.7058636806905
1711604792572,-3710.4233213905245
1711604792613,-3702.5235548587516
1711604792653,-2557.722757746931
1711604792693,-1510.833544878289
1711604792733,-1269.1607092977501
1711604792773,-914.9554602354765
1711604792814,-1148.0429889769293
1711604792853,-873.7580821122974
1711604792893,203.2116476651281
1711604792933,221.38867662614211
1711604792973,185.2396665303968
1711604793014,-2024.0002560568973
1711604793054,-5055.751098909415
1711604793094,-6183.032530079596
1711604793134,-6568.104040126316
1711604793174,-4571.725304808235
1711604793215,-3916.402663240675
1711604793254,-3310.8793822838925
1711604793294,-3705.4389057280496
1711604793335,-3570.036204640288
1711604793375,-3371.091049059294
1711604793416,-2851.846917404793
1711604793455,-1685.3721584910527
1711604793495,-550.59044739604
1711604793535,-19.08792086225003
1711604793575,-163.5211371090263
1711604793616,-107.06366505846381
1711604793656,185.832922113128
1711604793696,154.41263568680733
1711604793736,815.8358949865215
1711604793776,428.0561735490337
1711604793817,-6.528917755931616
1711604793856,-486.09240180812776
1711604793896,21.742737251799554
1711604793936,-200.06128202285618
1711604793976,379.52977598737925
1711604794017,426.5074459100142
1711604794057,-1155.401552555617
1711604794097,-4064.8883732175454
1711604794137,-6254.5701518543065
1711604794177,-6948.2812159056775
1711604794218,-6081.054164441302
1711604794257,-5611.150220678188
1711604794297,-4892.036126787309
1711604794338,-4311.298948836513
1711604794377,-3457.182403483661
1711604794418,-2630.7067101011053
1711604794458,-1790.0515381731093
1711604794498,-456.7856930391863
1711604794538,239.07395092095248
1711604794578,-743.07896898943
1711604794619,-3395.268814967014
1711604794658,-4476.704776398838
1711604794698,-3732.3012739082333
1711604794738,-2384.2373483376577
1711604794779,-1240.4046271448024
1711604794820,-87.57533415150829
1711604794859,263.8060485403985
1711604794899,-18.85216503031552
1711604794939,521.4969702705275
1711604794979,1746.9879255052656
1711604795020,2247.6460297671147
1711604795059,2458.4634400017094
1711604795099,-766.7833860064857
1711604795140,-4218.776816182304
1711604795180,-5787.67937572673
1711604795221,-5367.23201784445
1711604795260,-3716.674482021481
1711604795300,-2801.3459883367177
1711604795340,-1852.858101801481
1711604795380,-2061.9280568950344
1711604795421,-1695.1751469993033
1711604795461,-2244.4435261576436
1711604795501,-2480.5284430030733
1711604795541,-2506.599346946925
1711604795581,-4614.129681470338
1711604795622,-9233.242291338509
1711604795661,-13583.494283907581
1711604795701,-15451.008626942057
1711604795742,-15136.188419280108
1711604795782,-13972.339302235749
1711604795822,-13648.655084685655
1711604795862,-13567.11866355827
1711604795902,-13363.30841234373
1711604795942,-12198.661985241342
1711604795982,-11754.670059904456
1711604796023,-11621.157349158544
1711604796062,-11307.42542344099
1711604796103,-15171.82658572658
1711604796143,-19799.92362365732
1711604796183,-22267.88774106605
1711604796224,-22790.917417714372
1711604796263,-21647.241658408195
1711604796303,-19946.504484582692
1711604796343,-18471.287376314867
1711604796384,-17318.311041201232
1711604796424,-15622.447141865268
1711604796464,-14556.73031224613
1711604796504,-12883.166176488623
1711604796544,-11061.639415042242
1711604796584,-9627.204047370236
1711604796625,-11660.764796013478
1711604796664,-14750.65504985
1711604796705,-15623.124777384568
1711604796745,-14004.453949872637
1711604796785,-11494.55605976982
1711604796826,-9538.600925202714
1711604796865,-7576.19784532045
1711604796905,-6108.584664609749
1711604796945,-4591.858170441352
1711604796986,-2968.1634740885347
1711604797027,-1236.3396143717691
1711604797069,-124.89046158641577
1711604797106,-1165.1050719248597
1711604797146,-6319.7022468352225
1711604797186,-11688.912977542728
1711604797227,-15412.433494200464
1711604797266,-16142.924524264876
1711604797306,-13583.24730104627
1711604797346,-10194.258710777853
1711604797386,-7453.6791369521525
1711604797427,-5291.977143496741
1711604797467,-3342.37550537684
1711604797507,-2030.254697418306
1711604797547,-589.0618745186366
1711604797587,1009.5888570719399
1711604797628,408.36237827618606
1711604797667,-3297.657834841404
1711604797707,-7012.721492357785
1711604797747,-8243.456602367107
1711604797787,-7555.262686286122
1711604797828,-7134.657686700113
1711604797867,-5765.208744165488
1711604797907,-4297.777437163517
1711604797948,-2659.6226643850096
1711604797988,-1169.6996091930196
1711604798028,196.27487176749855
1711604798068,2288.0678856717423
1711604798108,4600.507790820207
1711604798148,4916.927353565581
1711604798188,833.1545032737777
1711604798229,-2688.5960127301514
1711604798268,-3597.843263063114
1711604798309,-3865.912137570558
1711604798349,-3075.6032611881383
1711604798389,-1890.6865158323199
1711604798430,-371.0234546493739
1711604798469,448.6216144526843
1711604798509,706.0875425017439
1711604798549,1395.4597412715666
1711604798589,2243.2337106131017
1711604798630,3305.9491643076763
1711604798669,4674.982501232531
1711604798709,3331.8723764682654
1711604798749,-1887.4914748652373
1711604798790,-5440.467798539437
1711604798830,-6491.317759307567
1711604798870,-6137.4913012569305
1711604798910,-5406.621148617938
1711604798950,-4720.340696584666
1711604798990,-3761.2589552691206
1711604799031,-2760.565165331587
1711604799070,-2145.0823745238595
1711604799110,-1091.1092169322073
1711604799150,250.9370279707946
1711604799191,1182.9071553982794
1711604799231,2265.56209803652
1711604799274,2983.605482841842
1711604799311,587.3564875398297
1711604799351,-3394.373448743485
1711604799391,-5403.387447799323
1711604799432,-5091.7451339827385
1711604799471,-3917.404159729369
1711604799511,-1919.4132965626195
1711604799551,-387.7004206990823
1711604799591,451.30796395614743
1711604799632,1472.325345451478
1711604799672,2673.1432245993055
1711604799712,3922.888539780164
1711604799752,4978.497192216571
1711604799792,6438.705995843746
1711604799833,7891.251823971281
1711604799872,7036.777919052402
1711604799912,4346.989538651425
1711604799952,1388.331832351163
1711604799992,409.0223996399436
1711604800033,1142.7965509346686
1711604800072,2595.7294144476764
1711604800113,4696.295160404174
1711604800153,6063.159895430785
1711604800193,7188.600297032855
1711604800234,8023.955719656777
1711604800273,8575.943846013397
1711604800313,8820.870063287904
1711604800353,9729.116539854556
1711604800393,10147.60818166146
1711604800434,10678.065856892616
1711604800474,8878.803730723448
1711604800514,7090.840703563765
1711604800554,6207.448833675822
1711604800594,6712.91209298023
1711604800635,7365.977045225911
1711604800674,8257.722764258273
1711604800714,8600.568708741106
1711604800754,8980.423369953409
1711604800794,8610.742873929208
1711604800835,8763.137217534008
1711604800874,9067.656085992698
1711604800915,9391.749581306009
1711604800955,9524.96706316946
1711604800995,9330.148615662009
1711604801036,7442.797479571775
1711604801075,5083.4961088569835
1711604801115,3726.5895682396367
1711604801155,3734.250174466055
1711604801196,4902.447873802856
1711604801236,5937.768225430744
1711604801276,6259.377495506778
1711604801316,6490.0319147876
1711604801356,6544.155888300389
1711604801396,6416.075958974194
1711604801437,6266.799676625524
1711604801479,6320.5121594558
1711604801516,6822.56299209455
1711604801557,7223.983462934382
1711604801596,5883.840788676636
1711604801637,4198.76763340435
1711604801677,3028.4204507439863
1711604801717,3036.7939313300885
1711604801757,4327.7136978255585
1711604801797,4780.5264125331305
1711604801838,5087.0410710135475
1711604801877,5269.718171066139
1711604801917,5666.351009451086
1711604801957,5820.325671870261
1711604801999,6295.551994362846
1711604802040,7048.180964771658
1711604802080,7494.497578295413
1711604802120,7037.739966666326
1711604802160,5196.306813957635
1711604802200,3090.9251469797455
1711604802241,2147.595311783487
1711604802280,2466.6630970672704
1711604802320,3389.8883986226283
1711604802360,4263.10292198509
1711604802401,4662.214909683447
1711604802441,5435.094617792871
1711604802481,5495.632899742108
1711604802521,5433.813423011918
1711604802561,6405.456915296614
1711604802601,6872.115929706022
1711604802642,7402.392847761745
1711604802681,6695.863352849614
1711604802722,4809.762137732701
1711604802762,3161.6372315776534
1711604802802,2143.636770122219
1711604802843,2565.6410073209554
1711604802882,3464.096399531234
1711604802922,4166.652163829422
1711604802962,4948.678276471794
1711604803003,4717.154224745929
1711604803043,4581.814331183443
1711604803083,4774.445354592521
1711604803123,5403.646100122016
1711604803163,5515.48578785779
1711604803203,5646.541931105545
1711604803244,4667.456482203212
1711604803283,2897.46251301351
1711604803324,1489.736992248334
1711604803364,1362.8496896938886
1711604803404,2496.4683628617786
1711604803445,3494.1511917272583
1711604803484,4022.9329774486832
1711604803524,3864.6721508302726
1711604803564,4350.064574208576
1711604803604,4092.9404089106247
1711604803645,4041.6076314167585
1711604803685,3998.2802350497805
1711604803725,4559.845264904201
1711604803765,4164.623194273096
1711604803805,2310.6390340577345
1711604803846,-27.11833062907681
1711604803885,-589.8562803720124
1711604803925,-276.5255666798912
1711604803966,732.8739725162741
1711604804006,1793.160962229129
1711604804046,1860.5654596807435
1711604804086,2403.6336507885717
1711604804126,2918.134001223836
1711604804166,3394.3781435505953
1711604804206,3400.6792235784233
1711604804247,3306.598030576948
1711604804286,3540.72774758609
1711604804327,1691.9776718453504
1711604804367,-1046.0406337755267
1711604804407,-1764.5529716729652
1711604804448,-1582.4531928822398
1711604804487,-671.3172187379096
1711604804527,540.5001011688728
1711604804567,653.8066142243333
1711604804607,1136.3909644517116
1711604804648,1484.6510814931244
1711604804688,1798.1349841332994
1711604804728,2671.462732560467
1711604804768,3211.1508803269826
1711604804808,2693.0944704106078
1711604804849,-126.52312570437789
1711604804888,-1898.676035711076
1711604804928,-2521.275658138562
1711604804968,-1401.3382577183656
1711604805008,-708.2796257729642
1711604805049,-85.21671680593863
1711604805089,267.301116945222
1711604805129,710.1583546013571
1711604805169,679.0506610420998
1711604805209,1019.406489122659
1711604805250,1658.6107813732233
1711604805289,2213.2044401771855
1711604805329,2565.319205517415
1711604805369,1460.1421452634968
1711604805409,-1568.663076873403
1711604805450,-3353.4244531332515
1711604805489,-3307.8335673953407
1711604805530,-2610.887988257222
1711604805570,-1685.6264410438016
1711604805610,-711.2588708347175
1711604805651,160.83449819125235
1711604805690,275.0088589414954
1711604805730,857.2828043329064
1711604805770,1529.4815423996188
1711604805810,2773.1639738429803
1711604805851,3869.8833857565187
1711604805891,3664.166084753815
1711604805930,1477.2792062778026
1711604805971,-576.5402133082971
1711604806011,-2064.4817567614373
1711604806051,-2182.69571365742
1711604806091,-1410.8339760678355
1711604806131,-179.78207773086615
1711604806171,602.2304607159458
1711604806211,1300.9103759103455
1711604806252,1928.2138927746564
1711604806291,1851.0275187944062
1711604806331,2508.156469303649
1711604806372,3291.774205833208
1711604806411,4123.7094127405435
1711604806452,4682.374518807046
1711604806492,3331.584926471347
1711604806532,109.36069222609513
1711604806572,-1736.84859660035
1711604806612,-1974.1905170876998
1711604806653,-1446.6042274076026
1711604806692,-312.72727431636304
1711604806732,741.3367542098276
1711604806772,974.8697532857768
1711604806812,1399.607522752136
1711604806853,2205.753983484581
1711604806893,2667.8488695928827
1711604806933,3212.8517524537165
1711604806973,3802.441558779683
1711604807013,4459.197862483095
1711604807054,4754.614650300704
1711604807093,2450.8903565893415
1711604807133,-138.70676196413115
1711604807173,-920.9310258494224
1711604807214,-324.18119119713083
1711604807254,561.7355774538592
1711604807294,1947.785691882018
1711604807334,2147.471762201516
1711604807374,3136.889372562524
1711604807414,3302.6887177175377
1711604807455,3558.082577400375
1711604807494,3876.827301457757
1711604807534,4055.455389773939
1711604807575,4867.59572040569
1711604807615,4394.88483554963
1711604807656,2458.066422336735
1711604807695,125.38526445440948
1711604807735,-660.0171399652027
1711604807775,-271.8016270438675
1711604807815,1004.7510329678189
1711604807856,1950.910735919373
1711604807895,2268.831310228212
1711604807936,2538.0329301748425
1711604807976,2587.1920647127554
1711604808016,2813.9989915301558
1711604808057,3160.7367577785626
1711604808096,3514.206646844279
1711604808136,3421.7432103250176
1711604808176,2418.062090174062
1711604808216,156.799928041175
1711604808257,-2218.745331250364
1711604808297,-2968.300710248295
1711604808337,-2960.2989201478194
1711604808377,-1858.8808146663941
1711604808417,-1293.2634417363442
1711604808458,-312.73510911199264
1711604808497,193.61614735098556
1711604808537,719.4204045515507
1711604808577,858.3761367164552
1711604808618,1878.2205058448017
1711604808659,2290.9044190088753
1711604808698,2448.7818344433326
1711604808738,1198.14662042493
1711604808778,-1691.221018096665
1711604808818,-4676.476521114819
1711604808859,-4907.2759865371045
1711604808899,-4242.977571253199
1711604808939,-2991.513907379005
1711604808979,-1857.8887055600062
1711604809019,-1568.418208685238
1711604809060,-952.7017587134615
1711604809099,-83.01701674610376
1711604809139,417.0294752442278
1711604809179,1226.4278820222244
1711604809219,1619.2354117450304
1711604809260,2514.4309724119958
1711604809300,707.9349928710144
1711604809340,-2392.6574724346865
1711604809380,-4307.5438912794925
1711604809420,-4653.190934010083
1711604809461,-4160.5014335073065
1711604809500,-3634.7255226806737
1711604809540,-2817.167245954508
1711604809581,-2847.2614500424825
1711604809621,-2573.1282946816646
1711604809662,-1923.5207881587557
1711604809701,-1241.399570731679
1711604809741,-625.4796000986826
1711604809781,10.607202335260808
1711604809822,376.79339364916086
1711604809862,-759.6929432314355
1711604809902,-4028.2127262083814
1711604809942,-6499.772723140661
1711604809982,-6699.305642955471
1711604810022,-5397.901936405338
1711604810063,-4481.960408648709
1711604810102,-2927.437038802076
1711604810142,-2578.914243284613
1711604810182,-2194.2454507267103
1711604810223,-1777.6216749129817
1711604810264,-1428.0610184986144
1711604810303,-252.96737568778917
1711604810343,522.0992754679173
1711604810383,437.6837808829732
1711604810423,-383.1149734125938
1711604810464,-3377.6986669127364
1711604810504,-5912.481855031569
1711604810544,-6833.001523835119
1711604810584,-5971.650112676434
1711604810624,-4536.3897598874755
1711604810665,-3369.470044609625
1711604810705,-2598.0924501123372
1711604810745,-1714.0293826796114
1711604810785,-916.9649516222998
1711604810825,-191.21173792844638
1711604810866,1296.8229867494665
1711604810905,2326.5740647595376
1711604810945,3158.493302757386
1711604810985,3489.663903891109
1711604811026,1293.6857727193274
1711604811067,-1362.9609977805521
1711604811106,-2641.586594563909
1711604811146,-2420.4310693647712
1711604811186,-1518.0534046429675
1711604811226,531.2817019694485
1711604811267,1584.49714980321
1711604811307,2165.9441308747046
1711604811347,2879.7951913008
1711604811387,3079.732285103295
1711604811427,4016.931846234249
1711604811467,4497.48157839966
1711604811507,5511.984219426289
1711604811547,6151.88030338753
1711604811587,4551.655058820033
1711604811627,2459.3631906230003
1711604811668,712.2581319925375
1711604811707,589.4552630549297
1711604811747,1452.5953040218446
1711604811788,2793.856195103377
1711604811828,3963.172246283153
1711604811868,4254.094966489822
1711604811908,4574.1774979215115
1711604811948,5499.183346638456
1711604811988,5581.844319656026
1711604812028,5806.80268812133
1711604812069,6432.929997788044
1711604812109,7039.404526321217
1711604812149,5597.521179764066
1711604812189,3145.3994379763026
1711604812229,835.2916265765671
1711604812270,799.4823583357502
1711604812309,1379.3303496423177
1711604812349,2152.428735722555
1711604812389,2735.163115124684
1711604812429,2768.5180253703147
1711604812470,3149.9177433168516
1711604812510,3310.577784097055
1711604812549,3230.850049478002
1711604812590,3529.1429383861832
1711604812630,3773.653498161584
1711604812670,4397.389798305929
1711604812710,2454.886534290854
1711604812750,48.24889470404014
1711604812790,-1656.6740716858767
1711604812830,-1555.8703028492164
1711604812871,-827.1176785062999
1711604812910,-230.37509829737246
1711604812951,333.25525320880115
1711604812991,307.5656824512407
1711604813031,36.84350233152509
1711604813072,170.22709017712623
1711604813111,2.1661053150892258
1711604813151,755.1704506541137
1711604813191,1013.3720383932814
1711604813232,497.08123314287513
1711604813272,-1293.2601064108312
1711604813311,-4097.07415244123
1711604813352,-5763.798047266668
1711604813392,-5692.6381336906925
1711604813432,-4590.22205250687
1711604813473,-3781.6951418197714
1711604813512,-2844.660990585806
1711604813552,-2770.5171486388426
1711604813592,-2207.7320830416866
1711604813632,-1712.8729170975275
1711604813673,-994.8757892127614
1711604813713,-326.453668666305
1711604813753,542.6949126776308
1711604813793,940.8806611073669
1711604813833,120.25305655389093
1711604813874,-2717.0472516813315
1711604813913,-4232.684650043258
1711604813953,-4682.15616532322
1711604813993,-3967.298818849027
1711604814031,-2710.758211192442
1711604814072,-1539.9664398562163
1711604814112,-1505.1250999858603
1711604814152,-904.1414743685164
1711604814192,-628.6911085254978
1711604814232,302.45560473995283
1711604814273,906.528037765529
1711604814312,2584.562688873615
1711604814352,3397.686544793658
1711604814393,2846.091618880164
1711604814433,-336.2350252221804
1711604814473,-2507.000719966367
1711604814513,-2869.0515234312043
1711604814553,-2081.51996849617
1711604814593,-990.0696419444866
1711604814633,-26.328417408978567
1711604814674,764.932942327112
1711604814713,1205.4626216273755
1711604814753,2107.3957771686837
1711604814794,2805.972386495443
1711604814834,3449.881097165169
1711604814874,4159.00391021301
1711604814914,5138.5122652614955
1711604814954,4725.481611976633
1711604814994,2265.3522218726575
1711604815034,-392.5204754038714
1711604815075,-1938.8265316020697
1711604815115,-1975.2311836658046
1711604815155,-1296.4111692933366
1711604815195,-578.2660988289863
1711604815235,-353.40190970455296
1711604815276,-24.90036401618272
1711604815315,312.8601500701625
1711604815355,545.737983308034
1711604815396,1652.8643093134742
1711604815435,2349.955426883418
1711604815476,3204.5504753063433
1711604815516,2402.3752235451248
1711604815556,67.30021115764976
1711604815596,-2847.272232692456
1711604815636,-4156.405829714844
1711604815677,-3808.8716918807477
1711604815716,-2466.405587790534
1711604815757,-1577.0269306465052
1711604815797,-1051.957999676466
1711604815837,-802.7712648301385
1711604815878,-60.96254081837833
1711604815917,71.61001469264738
1711604815957,445.4721239081118
1711604815997,823.6369858630933
1711604816037,1565.2573785134591
1711604816078,984.1347123030573
1711604816118,-2277.6619992807973
1711604816158,-4602.087278057355
1711604816198,-5380.103470814414
1711604816238,-4445.492835413897
1711604816279,-3363.72108289646
1711604816318,-2542.8779062591493
1711604816359,-1419.355551959481
1711604816399,-1274.9294425458647
1711604816439,-451.41257055453025
1711604816480,830.5757492273115
1711604816519,1870.260148364585
1711604816559,2913.0513223255984
1711604816599,3527.687869156478
1711604816639,2933.7197314887308
1711604816680,152.96597889089026
1711604816720,-1837.6783607788384
1711604816760,-2687.3656345447525
1711604816800,-1257.1976204644889
1711604816840,33.03546389518306
1711604816881,941.2621531947516
1711604816920,1543.4668868253939
1711604816960,1870.4232323430479
1711604817000,2425.2955852122977
1711604817041,3036.221381022129
1711604817082,3927.9679653225467
1711604817121,4542.896231292514
1711604817161,4178.490555739729
1711604817201,2200.976931378711
1711604817241,-2.696718652267009
1711604817282,-1155.7204871866852
1711604817322,-1203.4593151411973
1711604817362,-424.73261314909905
1711604817402,677.7239043870941
1711604817442,1241.3116749976762
1711604817483,1485.1220829237718
1711604817522,1987.3055419004522
1711604817562,2815.9122345331125
1711604817602,3402.866691390518
1711604817642,3932.32502762042
1711604817683,4104.283608629368
1711604817723,2300.818326439243
1711604817763,-1379.7608573772013
1711604817803,-3028.4037192012183
1711604817843,-2966.2017497275956
1711604817884,-2307.8886656013783
1711604817923,-1541.1391351176426
1711604817963,-1166.6343254819512
1711604818004,-948.7108308146708
1711604818044,-157.25021980702877
1711604818085,854.4099924208131
1711604818124,1610.6408388987184
1711604818164,2245.788528409088
1711604818204,611.1971931909211
1711604818244,-2988.9999229940586
1711604818285,-5528.8208573507145
1711604818324,-6027.898249215446
1711604818364,-5549.288817116991
1711604818405,-4393.509267254733
1711604818445,-3564.734464511741
1711604818485,-2879.770820470061
1711604818525,-2480.475150561193
1711604818565,-1688.0692531585228
1711604818605,-230.4329320457764
1711604818645,708.9624712138902
1711604818686,2091.3045620452613
1711604818725,1719.8012059573084
1711604818765,-1662.1013566092588
1711604818805,-4827.9085693345405
1711604818845,-5859.693713726476
1711604818886,-5501.288994108327
1711604818926,-4627.974970859243
1711604818966,-3109.3086311575025
1711604819006,-2271.4114300059155
1711604819046,-2138.8950953576714
1711604819087,-1539.4685394116677
1711604819126,-720.583463600371
1711604819166,127.00900303502567
1711604819206,1335.6080294670537
1711604819246,1679.5669331047684
1711604819287,992.2164809140377
1711604819326,-2096.5240915028844
1711604819367,-5153.267625085078
1711604819407,-5798.262400069274
1711604819447,-4918.562014798168
1711604819488,-3247.2241485067643
1711604819527,-2486.229890585877
1711604819567,-1400.2273465669714
1711604819607,-410.18471948988736
1711604819647,147.71641288138926
1711604819688,1190.0533171370625
1711604819727,2298.4371370789595
1711604819767,2943.860561088193
1711604819807,3658.145826241467
1711604819848,2729.734013872221
1711604819888,-592.1676479298621
1711604819928,-3544.785600068746
1711604819968,-4232.03144897474
1711604820008,-2836.4858630290255
1711604820048,-1609.525093987817
1711604820089,-766.1424296861514
1711604820128,-223.0047227703035
1711604820168,631.7795653119683
1711604820208,951.656102624489
1711604820248,1747.6475034237374
1711604820289,2225.9972618292086
1711604820329,3662.166660451563
1711604820369,3932.1404323971365
1711604820409,2851.5577462292276
1711604820449,612.2733410908841
1711604820490,-1301.711569793988
1711604820529,-491.39225422637537
1711604820569,81.28291355539113
1711604820609,1649.0718872770667
1711604820649,2953.1992479735054
1711604820690,3709.4869039193727
1711604820730,4360.612202869728
1711604820770,4785.946235769428
1711604820810,5565.553234130843
1711604820850,5555.457277141744
1711604820891,6202.450852509588
1711604820930,6716.03315338376
1711604820970,4726.676092454698
1711604821010,2169.691357319709
1711604821050,1388.8529314883053
1711604821091,1478.4619242297485
1711604821131,2348.9480717503466
1711604821171,3228.5832157391123
1711604821211,4016.1457747146487
1711604821251,4519.533785242587
1711604821292,4369.516229152214
1711604821331,4994.859416612424
1711604821371,5448.601196432719
1711604821411,6246.305279594846
1711604821451,6278.376151517266
1711604821492,5060.579417048255
1711604821532,2374.7123558614403
1711604821572,770.7006600075401
1711604821612,1041.6658045051154
1711604821652,2229.7692572935484
1711604821693,2904.544731934089
1711604821732,3246.853867384605
1711604821772,3492.702186027076
1711604821812,3624.811328998767
1711604821852,4357.343076694757
1711604821894,4370.102693215245
1711604821933,4814.016067620367
1711604821973,5260.039816738572
1711604822013,3918.6289775723126
1711604822053,426.04796693939716
1711604822094,-2443.947477091104
1711604822133,-2486.2887177045923
1711604822173,-2097.093793098349
1711604822214,-1715.6557024098001
1711604822254,-1050.4527693542186
1711604822294,-605.8138631521724
1711604822334,-255.19667202606797
1711604822374,-198.25483068684116
1711604822414,809.9858676183503
1711604822454,1556.1115324338898
1711604822495,2136.126724278787
1711604822534,672.2970399649348
1711604822575,-2074.037977782078
1711604822615,-5234.555143380305
1711604822655,-6051.808401127113
1711604822696,-5663.225656395778
1711604822735,-4448.48072144296
1711604822775,-3174.244208144024
1711604822815,-2303.413882556837
1711604822855,-2127.938255617162
1711604822896,-1942.80451381905
1711604822936,-798.3957567997277
1711604822976,-162.5268601940479
1711604823016,787.7667871860322
1711604823056,477.29729507351294
1711604823097,-2723.0647606488783
1711604823136,-5801.249469960108
1711604823176,-6959.384207626339
1711604823217,-6345.799122614786
1711604823257,-4965.872571855551
1711604823297,-4208.855410140939
1711604823337,-3106.0807444185484
1711604823377,-2346.1795162544586
1711604823417,-1879.5510099669918
1711604823457,-1051.143236830132
1711604823498,-231.75907533802092
1711604823538,825.3846138562076
1711604823578,1510.7626603632234
1711604823618,-496.33889791183174
1711604823658,-3193.8097532275133
1711604823699,-4914.783482280327
1711604823738,-4913.683139711618
1711604823778,-4038.930701370351
1711604823818,-2594.0695004709996
1711604823858,-1899.109784266213
1711604823899,-1015.3332902819384
1711604823939,31.22596585098654
1711604823979,616.0159714147449
1711604824019,1607.3877409999259
1711604824059,2660.2451331922784
1711604824100,3658.522430243902
1711604824139,3075.688094712794
1711604824180,-5.256848869845271
1711604824220,-3158.0599899974186
1711604824260,-3585.380524123553
1711604824301,-2660.920635772636
1711604824340,-1444.0180058549158
1711604824380,-657.0184248914011
1711604824420,43.27542841108516
1711604824461,668.6318485937081
1711604824501,1237.748535007704
1711604824541,2062.3340919879265
1711604824581,3244.796335828956
1711604824621,3870.6066561809275
1711604824661,3718.618587954901
1711604824702,1374.7335191362072
1711604824741,-979.439525339054
1711604824782,-1902.580554195214
1711604824822,-1251.2928864585701
1711604824862,399.2206340567209
1711604824903,1380.3574222328607
1711604824942,2316.8892327421345
1711604824982,2882.8249082365073
1711604825022,3435.336023779353
1711604825062,4432.638251541648
1711604825103,5281.300930373371
1711604825143,6364.187905783299
1711604825183,6886.568180938251
1711604825223,5737.519294230267
1711604825263,3044.1134894867428
1711604825304,1398.463899735827
1711604825343,1583.9254371030256
1711604825383,2120.9196251253597
1711604825423,3213.3731751430314
1711604825464,3089.333082850557
1711604825505,3354.2552459549624
1711604825544,3282.864726171829
1711604825584,3371.925529912114
1711604825624,4330.512229439337
1711604825664,4680.343882503221
1711604825705,4766.855936100939
1711604825744,2732.38925410714
1711604825784,-254.316899436526
1711604825824,-2396.8115380331874
1711604825865,-3225.472814402776
1711604825905,-1916.694237508811
1711604825945,-445.8575119029265
1711604825985,370.27892962796614
1711604826025,447.67651920346543
1711604826067,279.93730399245396
1711604826108,889.2608513403684
1711604826147,1004.6588997384533
1711604826187,1806.4525170598645
1711604826228,1776.4270564245526
1711604826268,-723.9596386007033
1711604826308,-3497.50784615078
1711604826348,-4695.8256990017835
1711604826388,-4858.808426420204
1711604826428,-3777.632470520679
1711604826468,-2977.995426850859
1711604826509,-2709.0668006746564
1711604826548,-1913.4306024066173
1711604826588,-1359.8684058007784
1711604826628,-1039.4192163860425
1711604826669,-280.6957887450699
1711604826710,437.48864236986265
1711604826749,901.7188852340914
1711604826789,-1620.7101953318343
1711604826829,-4388.849603400566
1711604826869,-5759.000709801447
1711604826910,-6188.759337011259
1711604826949,-5353.441287287977
1711604826989,-4078.8429857331794
1711604827030,-3205.872687655501
1711604827070,-2747.473192999605
1711604827110,-2247.6257007978857
1711604827150,-1069.61970963981
1711604827190,-518.1708325131331
1711604827230,165.2467102459632
1711604827270,735.7536386824213
1711604827311,-1621.4062041798607
1711604827350,-4847.163642521016
1711604827391,-6740.405402428936
1711604827431,-6559.328155497089
1711604827471,-5167.891186099034
1711604827512,-4234.809346159454
1711604827551,-3565.8648626194336
1711604827591,-3140.2073160717264
1711604827631,-2716.1304618616123
1711604827671,-1655.9833132079802
1711604827712,-731.0096587638836
1711604827752,753.9515237766318
1711604827792,1778.8866764088161
1711604827832,210.5540907366667
1711604827872,-3180.8508642620873
1711604827913,-5490.560854725074
1711604827952,-5498.670051438268
1711604827992,-4605.663948648842
1711604828033,-2734.9359628784005
1711604828072,-983.4119024998508
1711604828113,-617.8861928372644
1711604828153,15.890183097915724
1711604828193,1067.7034587070812
1711604828233,2497.7076998571865
1711604828273,3325.0470824795775
1711604828314,4291.729754076572
1711604828353,4539.298610696569
1711604828393,2295.021696566604
1711604828433,-262.09163415571675
1711604828474,-195.56014155526645
1711604828515,878.9393671841826
1711604828554,2055.422885194421
1711604828594,3186.5096907543484
1711604828634,4104.561362334527
1711604828674,4274.07891136012
1711604828715,4796.717146931216
1711604828754,5572.101966259535
1711604828794,6572.065188018605
1711604828835,7150.79214985203
1711604828875,7846.264501573518
1711604828915,6599.268750415184
1711604828955,4025.3179018304218
1711604828995,2559.94308230374
1711604829035,2193.005824199645
1711604829075,2518.9066484200303
1711604829116,2977.8701312630437
