dataReceived,timestamp,ppg,status
1711604693660,1711604681579,2097152,0
1711604693660,1711604681621,2097152,0
1711604693660,1711604681662,2510976,0
1711604693660,1711604681700,2511019,0
1711604693660,1711604681740,2511017,0
1711604693660,1711604681780,2511098,0
1711604693660,1711604681821,2511163,0
1711604693660,1711604681860,2511163,0
1711604693660,1711604681901,2511333,0
1711604693660,1711604681941,2511383,0
1711604693660,1711604681981,2511453,0
1711604693660,1711604682022,2511181,0
1711604693660,1711604682061,2132868,0
1711604693660,1711604682101,2132588,0
1711604693660,1711604682141,2132588,0
1711604693660,1711604682181,2132678,0
1711604693660,1711604682223,2132715,0
1711604693660,1711604682262,2105482,0
1711604693660,1711604682302,2105507,0
1711604693660,1711604682342,2105858,0
1711604693660,1711604682382,2105991,0
1711604693660,1711604682423,2105968,0
1711604693660,1711604682462,2120463,0
1711604693660,1711604682502,2120604,0
1711604693660,1711604682542,2121508,0
1711604693660,1711604682582,2121312,0
1711604693660,1711604682623,2121161,0
1711604693660,1711604682662,2119640,0
1711604693660,1711604682703,2120336,0
1711604693660,1711604682743,2121756,0
1711604693660,1711604682783,2122650,0
1711604693660,1711604682824,2122601,0
1711604693660,1711604682863,2122387,0
1711604693660,1711604682903,2121977,0
1711604693660,1711604682943,2122000,0
1711604693660,1711604682983,2121988,0
1711604693660,1711604683024,2122233,0
1711604693660,1711604683064,2122515,0
1711604693660,1711604683104,2122925,0
1711604693660,1711604683144,2123065,0
1711604693660,1711604683184,2122297,0
1711604693660,1711604683225,2121015,0
1711604693660,1711604683264,2119838,0
1711604693660,1711604683304,2119492,0
1711604693660,1711604683344,2119600,0
1711604693660,1711604683385,2120005,0
1711604693660,1711604683426,2120290,0
1711604693660,1711604683465,2120417,0
1711604693660,1711604683505,2120569,0
1711604693660,1711604683545,2120704,0
1711604693660,1711604683585,2120793,0
1711604693660,1711604683626,2121164,0
1711604693660,1711604683665,2121517,0
1711604693660,1711604683705,2121719,0
1711604693660,1711604683746,2120994,0
1711604693660,1711604683786,2119473,0
1711604693660,1711604683827,2118120,0
1711604693660,1711604683869,2117084,0
1711604693660,1711604683906,2115606,0
1711604693660,1711604683946,2115436,0
1711604693660,1711604683986,2114135,0
1711604693660,1711604684027,2112098,0
1711604693660,1711604684066,2111640,0
1711604693660,1711604684107,2114206,0
1711604693660,1711604684147,2116538,0
1711604693660,1711604684187,2118715,0
1711604693660,1711604684228,2120538,0
1711604693660,1711604684267,2122931,0
1711604693660,1711604684307,2121484,0
1711604693660,1711604684347,2118642,0
1711604693660,1711604684387,2116445,0
1711604693660,1711604684428,2119240,0
1711604693660,1711604684468,2125826,0
1711604693660,1711604684508,2124009,0
1711604693660,1711604684548,2116652,0
1711604693660,1711604684588,2121239,0
1711604693660,1711604684629,2124246,0
1711604693660,1711604684668,2122997,0
1711604693660,1711604684708,2121438,0
1711604693660,1711604684749,2121525,0
1711604693660,1711604684789,2122883,0
1711604693660,1711604684830,2123940,0
1711604693660,1711604684869,2123998,0
1711604693660,1711604684909,2123260,0
1711604693660,1711604684949,2123165,0
1711604693660,1711604684989,2123598,0
1711604693660,1711604685030,2124672,0
1711604693660,1711604685069,2126246,0
1711604693660,1711604685110,2128189,0
1711604693660,1711604685150,2129202,0
1711604693660,1711604685190,2129069,0
1711604693660,1711604685231,2126758,0
1711604693660,1711604685270,2125494,0
1711604693660,1711604685310,2125522,0
1711604693660,1711604685350,2126144,0
1711604693660,1711604685390,2127087,0
1711604693660,1711604685432,2128007,0
1711604693660,1711604685471,2127803,0
1711604693660,1711604685511,2125489,0
1711604693660,1711604685551,2123285,0
1711604693660,1711604685591,2120634,0
1711604693660,1711604685632,2119076,0
1711604693660,1711604685671,2120632,0
1711604693660,1711604685712,2124369,0
1711604693660,1711604685752,2126209,0
1711604693660,1711604685792,2125966,0
1711604693660,1711604685833,2121930,0
1711604693660,1711604685872,2116218,0
1711604693660,1711604685912,2111264,0
1711604693660,1711604685952,2105828,0
1711604693660,1711604685992,2105251,0
1711604693660,1711604686033,2104637,0
1711604693660,1711604686075,2102672,0
1711604693660,1711604686113,2102375,0
1711604693660,1711604686153,2101172,0
1711604693660,1711604686193,2099940,0
1711604693660,1711604686234,2099223,0
1711604693660,1711604686273,2098526,0
1711604693660,1711604686313,2097198,0
1711604693660,1711604686354,2095866,0
1711604693660,1711604686394,2093476,0
1711604693660,1711604686435,2091366,0
1711604693660,1711604686474,2089642,0
1711604693660,1711604686514,2090670,0
1711604693660,1711604686554,2091669,0
1711604693660,1711604686594,2091814,0
1711604693660,1711604686635,2091474,0
1711604693660,1711604686675,2092830,0
1711604693660,1711604686715,2093337,0
1711604693660,1711604686755,2093400,0
1711604693660,1711604686795,2092935,0
1711604693660,1711604686836,2091908,0
1711604693660,1711604686875,2091038,0
1711604693660,1711604686915,2090935,0
1711604693660,1711604686955,2091428,0
1711604693660,1711604686996,2091063,0
1711604693660,1711604687037,2090318,0
1711604693660,1711604687076,2088892,0
1711604693660,1711604687116,2088614,0
1711604693660,1711604687156,2090676,0
1711604693660,1711604687196,2096584,0
1711604693660,1711604687237,2102911,0
1711604693660,1711604687277,2106083,0
1711604693660,1711604687317,2106153,0
1711604693660,1711604687357,2102913,0
1711604693660,1711604687397,2098797,0
1711604693660,1711604687438,2096778,0
1711604693660,1711604687477,2096736,0
1711604693660,1711604687517,2096479,0
1711604693660,1711604687558,2096386,0
1711604693660,1711604687598,2097192,0
1711604693660,1711604687639,2096951,0
1711604693660,1711604687678,2098471,0
1711604693660,1711604687718,2099430,0
1711604693660,1711604687758,2098979,0
1711604693660,1711604687798,2098471,0
1711604693660,1711604687839,2098137,0
1711604693660,1711604687879,2098327,0
1711604693660,1711604687919,2099114,0
1711604693660,1711604687959,2099739,0
1711604693660,1711604687999,2103801,0
1711604693660,1711604688040,2106582,0
1711604693660,1711604688079,2109749,0
1711604693660,1711604688120,2108592,0
1711604693660,1711604688160,2108423,0
1711604693660,1711604688200,2105462,0
1711604693660,1711604688241,2104391,0
1711604693660,1711604688280,2101896,0
1711604693660,1711604688320,2102923,0
1711604693660,1711604688361,2102508,0
1711604693660,1711604688401,2102138,0
1711604693660,1711604688442,2099806,0
1711604693660,1711604688481,2098082,0
1711604693660,1711604688521,2096783,0
1711604693660,1711604688561,2096356,0
1711604693660,1711604688602,2096076,0
1711604693660,1711604688642,2095806,0
1711604693660,1711604688682,2095876,0
1711604693660,1711604688722,2097820,0
1711604693660,1711604688762,2099967,0
1711604693660,1711604688802,2101741,0
1711604693660,1711604688843,2103126,0
1711604693660,1711604688882,2105816,0
1711604693660,1711604688922,2108181,0
1711604693660,1711604688963,2109991,0
1711604693660,1711604689003,2111460,0
1711604693660,1711604689043,2111464,0
1711604693660,1711604689083,2112491,0
1711604693660,1711604689123,2113226,0
1711604693660,1711604689163,2114311,0
1711604693660,1711604689203,2114684,0
1711604693660,1711604689244,2115169,0
1711604693660,1711604689283,2116185,0
1711604693660,1711604689323,2117862,0
1711604693660,1711604689364,2119307,0
1711604693660,1711604689404,2119597,0
1711604693660,1711604689445,2118971,0
1711604693660,1711604689484,2118752,0
1711604693660,1711604689524,2120411,0
1711604693660,1711604689564,2122310,0
1711604693660,1711604689604,2126097,0
1711604693660,1711604689645,2130379,0
1711604693660,1711604689684,2132473,0
1711604693660,1711604689724,2132369,0
1711604693660,1711604689765,2130922,0
1711604693660,1711604689805,2125047,0
1711604693660,1711604689845,2117940,0
1711604693660,1711604689885,2115636,0
1711604693660,1711604689925,2118659,0
1711604693660,1711604689965,2123024,0
1711604693660,1711604690005,2128804,0
1711604693660,1711604690046,2129993,0
1711604693660,1711604690085,2128043,0
1711604693660,1711604690126,2129162,0
1711604693660,1711604690166,2135970,0
1711604693660,1711604690206,2141956,0
1711604693660,1711604690247,2145030,0
1711604693660,1711604690286,2146975,0
1711604693660,1711604690326,2147196,0
1711604693660,1711604690366,2145137,0
1711604693660,1711604690407,2142509,0
1711604693660,1711604690447,2138754,0
1711604693660,1711604690487,2135632,0
1711604693660,1711604690527,2132328,0
1711604693660,1711604690567,2129543,0
1711604693660,1711604690607,2127890,0
1711604693660,1711604690648,2127006,0
1711604693660,1711604690687,2126893,0
1711604693660,1711604690727,2127261,0
1711604693660,1711604690768,2127088,0
1711604693660,1711604690808,2127504,0
1711604693660,1711604690848,2128358,0
1711604693660,1711604690888,2129010,0
1711604693660,1711604690928,2129147,0
1711604693660,1711604690968,2129586,0
1711604693660,1711604691009,2129637,0
1711604693660,1711604691049,2129889,0
1711604693660,1711604691089,2130060,0
1711604693660,1711604691129,2130224,0
1711604693660,1711604691169,2130437,0
1711604693660,1711604691209,2130449,0
1711604693660,1711604691250,2130569,0
1711604693660,1711604691289,2130360,0
1711604693660,1711604691329,2130642,0
1711604693660,1711604691370,2130405,0
1711604693660,1711604691410,2130368,0
1711604693660,1711604691450,2130513,0
1711604693660,1711604691490,2130662,0
1711604693660,1711604691530,2130838,0
1711604693660,1711604691570,2130832,0
1711604693660,1711604691610,2131006,0
1711604693660,1711604691651,2131087,0
1711604693660,1711604691690,2131119,0
1711604693660,1711604691731,2131255,0
1711604693660,1711604691771,2131442,0
1711604693660,1711604691811,2131432,0
1711604693660,1711604691852,2131712,0
1711604693660,1711604691891,2131887,0
1711604693660,1711604691931,2131940,0
1711604693660,1711604691972,2132070,0
1711604693660,1711604692012,2132225,0
1711604693660,1711604692053,2132407,0
1711604693660,1711604692092,2132661,0
1711604693660,1711604692133,2132920,0
1711604693660,1711604692175,2133081,0
1711604693660,1711604692215,2132988,0
1711604693660,1711604692256,2133368,0
1711604693660,1711604692295,2133645,0
1711604693660,1711604692336,2133713,0
1711604693660,1711604692376,2134017,0
1711604693660,1711604692416,2134034,0
1711604693660,1711604692457,2134424,0
1711604693660,1711604692497,2134761,0
1711604693660,1711604692537,2135045,0
1711604693660,1711604692577,2135324,0
1711604693660,1711604692617,2135457,0
1711604693660,1711604692658,2135570,0
1711604693660,1711604692698,2135990,0
1711604693660,1711604692738,2136128,0
1711604693660,1711604692778,2136430,0
1711604693660,1711604692819,2136877,0
1711604693660,1711604692860,2136755,0
1711604693660,1711604692899,2137220,0
1711604693660,1711604692943,2137321,0
1711604693660,1711604692983,2137604,0
1711604693660,1711604693023,2138099,0
1711604693660,1711604693064,2138440,0
1711604693660,1711604693103,2138775,0
1711604693660,1711604693144,2139053,0
1711604693660,1711604693184,2139295,0
1711604693660,1711604693224,2139631,0
1711604693660,1711604693265,2140119,0
1711604693660,1711604693304,2140568,0
1711604693660,1711604693344,2140869,0
1711604693660,1711604693384,2140954,0
1711604693660,1711604693425,2141228,0
1711604693660,1711604693466,2141574,0
1711604693660,1711604693505,2141834,0
1711604693660,1711604693545,2142229,0
1711604693660,1711604693585,2142388,0
1711604705635,1711604693624,2142675,0
1711604705635,1711604693663,2142907,0
1711604705635,1711604693702,2143075,0
1711604705635,1711604693741,2143422,0
1711604705635,1711604693780,2143642,0
1711604705635,1711604693819,2143902,0
1711604705635,1711604693858,2144036,0
1711604705635,1711604693897,2144313,0
1711604705635,1711604693936,2144746,0
1711604705635,1711604693975,2144888,0
1711604705635,1711604694014,2145054,0
1711604705635,1711604694054,2145549,0
1711604705635,1711604694094,2146271,0
1711604705635,1711604694134,2146250,0
1711604705635,1711604694174,2145950,0
1711604705635,1711604694214,2145226,0
1711604705635,1711604694254,2144838,0
1711604705635,1711604694294,2144458,0
1711604705635,1711604694334,2144209,0
1711604705635,1711604694374,2144195,0
1711604705635,1711604694414,2145003,0
1711604705635,1711604694454,2145250,0
1711604705635,1711604694494,2146018,0
1711604705635,1711604694534,2145254,0
1711604705635,1711604694574,2145574,0
1711604705635,1711604694614,2145975,0
1711604705635,1711604694654,2146777,0
1711604705635,1711604694694,2148606,0
1711604705635,1711604694734,2151671,0
1711604705635,1711604694774,2154003,0
1711604705635,1711604694814,2155714,0
1711604705635,1711604694854,2156269,0
1711604705635,1711604694894,2156589,0
1711604705635,1711604694934,2154672,0
1711604705635,1711604694974,2151215,0
1711604705635,1711604695014,2145415,0
1711604705635,1711604695054,2141082,0
1711604705635,1711604695094,2140556,0
1711604705635,1711604695134,2134791,0
1711604705635,1711604695174,2133672,0
1711604705635,1711604695214,2129366,0
1711604705635,1711604695254,2126524,0
1711604705635,1711604695294,2125116,0
1711604705635,1711604695334,2124956,0
1711604705635,1711604695374,2125430,0
1711604705635,1711604695414,2125221,0
1711604705635,1711604695454,2125143,0
1711604705635,1711604695494,2125610,0
1711604705635,1711604695534,2125607,0
1711604705635,1711604695574,2126892,0
1711604705635,1711604695614,2128123,0
1711604705635,1711604695654,2128449,0
1711604705635,1711604695694,2130465,0
1711604705635,1711604695734,2131836,0
1711604705635,1711604695774,2133753,0
1711604705635,1711604695814,2136175,0
1711604705635,1711604695854,2138545,0
1711604705635,1711604695894,2140798,0
1711604705635,1711604695934,2142712,0
1711604705635,1711604695974,2143909,0
1711604705635,1711604696014,2145248,0
1711604705635,1711604696054,2146714,0
1711604705635,1711604696094,2147740,0
1711604705635,1711604696134,2148372,0
1711604705635,1711604696174,2148932,0
1711604705635,1711604696214,2149585,0
1711604705635,1711604696254,2150499,0
1711604705635,1711604696294,2151253,0
1711604705635,1711604696334,2151985,0
1711604705635,1711604696374,2152784,0
1711604705635,1711604696414,2153317,0
1711604705635,1711604696454,2154065,0
1711604705635,1711604696494,2154496,0
1711604705635,1711604696534,2155019,0
1711604705635,1711604696574,2155301,0
1711604705635,1711604696614,2155598,0
1711604705635,1711604696654,2155900,0
1711604705635,1711604696694,2156232,0
1711604705635,1711604696734,2156619,0
1711604705635,1711604696774,2157080,0
1711604705635,1711604696814,2157413,0
1711604705635,1711604696854,2157905,0
1711604705635,1711604696894,2158162,0
1711604705635,1711604696934,2158375,0
1711604705635,1711604696974,2158812,0
1711604705635,1711604697014,2159119,0
1711604705635,1711604697054,2159587,0
1711604705635,1711604697094,2158920,0
1711604705635,1711604697134,2153266,0
1711604705635,1711604697174,2148225,0
1711604705635,1711604697214,2145652,0
1711604705635,1711604697254,2143955,0
1711604705635,1711604697294,2143170,0
1711604705635,1711604697334,2142185,0
1711604705635,1711604697374,2140229,0
1711604705635,1711604697414,2138594,0
1711604705635,1711604697454,2138124,0
1711604705635,1711604697494,2139640,0
1711604705635,1711604697534,2138974,0
1711604705635,1711604697574,2139986,0
1711604705635,1711604697614,2140344,0
1711604705635,1711604697654,2142064,0
1711604705635,1711604697694,2142873,0
1711604705635,1711604697734,2144590,0
1711604705635,1711604697774,2145859,0
1711604705635,1711604697814,2147623,0
1711604705635,1711604697854,2150714,0
1711604705635,1711604697894,2153335,0
1711604705635,1711604697934,2153587,0
1711604705635,1711604697974,2150452,0
1711604705635,1711604698014,2146087,0
1711604705635,1711604698054,2144438,0
1711604705635,1711604698094,2142778,0
1711604705635,1711604698134,2142846,0
1711604705635,1711604698174,2142792,0
1711604705635,1711604698214,2141385,0
1711604705635,1711604698254,2139558,0
1711604705635,1711604698294,2136765,0
1711604705635,1711604698334,2134971,0
1711604705635,1711604698374,2132435,0
1711604705635,1711604698414,2127940,0
1711604705635,1711604698454,2123991,0
1711604705635,1711604698494,2120158,0
1711604705635,1711604698534,2118898,0
1711604705635,1711604698574,2120615,0
1711604705635,1711604698614,2123686,0
1711604705635,1711604698654,2128863,0
1711604705635,1711604698694,2135565,0
1711604705635,1711604698734,2145137,0
1711604705635,1711604698774,2155862,0
1711604705635,1711604698814,2162712,0
1711604705635,1711604698854,2165874,0
1711604705635,1711604698894,2166672,0
1711604705635,1711604698934,2165596,0
1711604705635,1711604698974,2162649,0
1711604705635,1711604699014,2159290,0
1711604705635,1711604699054,2156828,0
1711604705635,1711604699094,2153259,0
1711604705635,1711604699134,2150124,0
1711604705635,1711604699174,2146177,0
1711604705635,1711604699214,2143488,0
1711604705635,1711604699254,2140773,0
1711604705635,1711604699294,2138457,0
1711604705635,1711604699334,2135927,0
1711604705635,1711604699374,2132567,0
1711604705635,1711604699414,2128309,0
1711604705635,1711604699454,2125091,0
1711604705635,1711604699494,2122811,0
1711604705635,1711604699534,2121369,0
1711604705635,1711604699574,2119716,0
1711604705635,1711604699614,2117649,0
1711604705635,1711604699654,2115471,0
1711604705635,1711604699694,2113530,0
1711604705635,1711604699734,2111708,0
1711604705635,1711604699774,2109986,0
1711604705635,1711604699814,2108790,0
1711604705635,1711604699854,2107569,0
1711604705635,1711604699894,2105061,0
1711604705635,1711604699934,2100149,0
1711604705635,1711604699974,2093492,0
1711604705635,1711604700014,2087441,0
1711604705635,1711604700054,2082724,0
1711604705635,1711604700094,2079312,0
1711604705635,1711604700134,2076190,0
1711604705635,1711604700174,2073032,0
1711604705635,1711604700214,2069887,0
1711604705635,1711604700254,2066921,0
1711604705635,1711604700294,2064285,0
1711604705635,1711604700334,2061981,0
1711604705635,1711604700374,2060017,0
1711604705635,1711604700414,2057573,0
1711604705635,1711604700454,2053372,0
1711604705635,1711604700494,2046757,0
1711604705635,1711604700534,2040413,0
1711604705635,1711604700574,2035197,0
1711604705635,1711604700614,2031073,0
1711604705635,1711604700654,2027744,0
1711604705635,1711604700694,2024610,0
1711604705635,1711604700734,2022135,0
1711604705635,1711604700774,2019835,0
1711604705635,1711604700814,2018144,0
1711604705635,1711604700854,2016804,0
1711604705635,1711604700894,2015820,0
1711604705635,1711604700934,2014857,0
1711604705635,1711604700974,2013819,0
1711604705635,1711604701014,2011583,0
1711604705635,1711604701054,2008870,0
1711604705635,1711604701094,2006094,0
1711604705635,1711604701134,2004207,0
1711604705635,1711604701174,2002632,0
1711604705635,1711604701214,2001576,0
1711604705635,1711604701254,2000274,0
1711604705635,1711604701294,1999129,0
1711604705635,1711604701334,1998351,0
1711604705635,1711604701374,1997353,0
1711604705635,1711604701414,1996596,0
1711604705635,1711604701454,1996203,0
1711604705635,1711604701494,1995873,0
1711604705635,1711604701534,1995595,0
1711604705635,1711604701574,1995006,0
1711604705635,1711604701614,1993308,0
1711604705635,1711604701654,1990600,0
1711604705635,1711604701694,1988505,0
1711604705635,1711604701734,1986657,0
1711604705635,1711604701774,1985550,0
1711604705635,1711604701814,1984632,0
1711604705635,1711604701854,1983618,0
1711604705635,1711604701894,1982656,0
1711604705635,1711604701934,1981718,0
1711604705635,1711604701974,1980877,0
1711604705635,1711604702014,1980140,0
1711604705635,1711604702054,1979564,0
1711604705635,1711604702094,1979035,0
1711604705635,1711604702134,1978706,0
1711604705635,1711604702174,1978317,0
1711604705635,1711604702214,1976913,0
1711604705635,1711604702254,1974488,0
1711604705635,1711604702294,1972270,0
1711604705635,1711604702334,1970692,0
1711604705635,1711604702374,1969397,0
1711604705635,1711604702414,1968555,0
1711604705635,1711604702454,1967947,0
1711604705635,1711604702494,1967307,0
1711604705635,1711604702534,1966713,0
1711604705635,1711604702574,1966067,0
1711604705635,1711604702614,1965567,0
1711604705635,1711604702654,1965067,0
1711604705635,1711604702694,1964869,0
1711604705635,1711604702734,1964802,0
1711604705635,1711604702774,1964705,0
1711604705635,1711604702814,1963689,0
1711604705635,1711604702854,1961795,0
1711604705635,1711604702894,1959878,0
1711604705635,1711604702934,1958624,0
1711604705635,1711604702974,1957603,0
1711604705635,1711604703014,1957155,0
1711604705635,1711604703054,1956561,0
1711604705635,1711604703094,1956152,0
1711604705635,1711604703134,1955534,0
1711604705635,1711604703174,1955235,0
1711604705635,1711604703214,1954911,0
1711604705635,1711604703254,1954457,0
1711604705635,1711604703294,1954350,0
1711604705635,1711604703334,1954147,0
1711604705635,1711604703374,1953533,0
1711604705635,1711604703414,1951817,0
1711604705635,1711604703454,1949851,0
1711604705635,1711604703494,1948409,0
1711604705635,1711604703534,1947290,0
1711604705635,1711604703574,1946574,0
1711604705635,1711604703614,1946021,0
1711604705635,1711604703654,1945484,0
1711604705635,1711604703694,1944770,0
1711604705635,1711604703734,1944246,0
1711604705635,1711604703774,1943729,0
1711604705635,1711604703814,1943483,0
1711604705635,1711604703854,1943082,0
1711604705635,1711604703894,1942947,0
1711604705635,1711604703934,1942406,0
1711604705635,1711604703974,1940747,0
1711604705635,1711604704014,1938667,0
1711604705635,1711604704054,1936623,0
1711604705635,1711604704094,1934994,0
1711604705635,1711604704134,1933680,0
1711604705635,1711604704174,1932669,0
1711604705635,1711604704214,1931734,0
1711604705635,1711604704254,1930877,0
1711604705635,1711604704294,1930020,0
1711604705635,1711604704334,1929489,0
1711604705635,1711604704374,1928962,0
1711604705635,1711604704414,1928641,0
1711604705635,1711604704454,1928520,0
1711604705635,1711604704494,1928134,0
1711604705635,1711604704534,1926348,0
1711604705635,1711604704574,1924112,0
1711604705635,1711604704614,1921534,0
1711604705635,1711604704654,1918821,0
1711604705635,1711604704694,1916714,0
1711604705635,1711604704734,1915012,0
1711604705635,1711604704774,1913389,0
1711604705635,1711604704814,1911776,0
1711604705635,1711604704854,1909988,0
1711604705635,1711604704894,1908458,0
1711604705635,1711604704934,1906974,0
1711604705635,1711604704974,1905929,0
1711604705635,1711604705014,1905002,0
1711604705635,1711604705054,1904252,0
1711604705635,1711604705094,1902465,0
1711604705635,1711604705134,1899205,0
1711604705635,1711604705174,1894143,0
1711604705635,1711604705214,1884646,0
1711604705635,1711604705254,1880777,0
1711604705635,1711604705294,1877363,0
1711604705635,1711604705334,1873895,0
1711604705635,1711604705374,1870380,0
1711604705635,1711604705414,1867405,0
1711604705635,1711604705454,1864484,0
1711604705635,1711604705494,1862140,0
1711604705635,1711604705534,1860154,0
1711604705635,1711604705574,1858335,0
1711604717738,1711604705672,1854700,0
1711604717738,1711604705713,1848395,0
1711604717738,1711604705752,1841602,0
1711604717738,1711604705792,1835927,0
1711604717738,1711604705832,1831550,0
1711604717738,1711604705872,1828233,0
1711604717738,1711604705913,1825172,0
1711604717738,1711604705952,1822095,0
1711604717738,1711604705992,1819327,0
1711604717738,1711604706033,1816728,0
1711604717738,1711604706073,1814495,0
1711604717738,1711604706113,1812452,0
1711604717738,1711604706153,1810905,0
1711604717738,1711604706193,1809035,0
1711604717738,1711604706233,1804421,0
1711604717738,1711604706273,1797547,0
1711604717738,1711604706314,1791198,0
1711604717738,1711604706353,1786077,0
1711604717738,1711604706393,1782380,0
1711604717738,1711604706434,1779498,0
1711604717738,1711604706474,1777036,0
1711604717738,1711604706514,1774336,0
1711604717738,1711604706554,1771966,0
1711604717738,1711604706594,1769813,0
1711604717738,1711604706634,1767975,0
1711604717738,1711604706674,1766510,0
1711604717738,1711604706715,1765231,0
1711604717738,1711604706755,1764408,0
1711604717738,1711604706795,1761871,0
1711604717738,1711604706835,1755969,0
1711604717738,1711604706875,1749322,0
1711604717738,1711604706916,1743812,0
1711604717738,1711604706955,1739715,0
1711604717738,1711604706995,1736888,0
1711604717738,1711604707035,1734629,0
1711604717738,1711604707075,1733084,0
1711604717738,1711604707116,1731978,0
1711604717738,1711604707156,1731061,0
1711604717738,1711604707196,1730334,0
1711604717738,1711604707236,1729879,0
1711604717738,1711604707276,1729584,0
1711604717738,1711604707317,1729538,0
1711604717738,1711604707356,1729612,0
1711604717738,1711604707396,1728102,0
1711604717738,1711604707436,1723770,0
1711604717738,1711604707476,1718261,0
1711604717738,1711604707517,1713974,0
1711604717738,1711604707557,1710976,0
1711604717738,1711604707597,1709295,0
1711604717738,1711604707637,1708033,0
1711604717738,1711604707677,1706710,0
1711604717738,1711604707718,1705499,0
1711604717738,1711604707757,1704471,0
1711604717738,1711604707797,1703785,0
1711604717738,1711604707838,1703617,0
1711604717738,1711604707878,1703866,0
1711604717738,1711604707918,1704222,0
1711604717738,1711604707958,1704984,0
1711604717738,1711604707998,1704645,0
1711604717738,1711604708038,1701540,0
1711604717738,1711604708078,1697045,0
1711604717738,1711604708119,1693509,0
1711604717738,1711604708158,1691219,0
1711604717738,1711604708198,1690081,0
1711604717738,1711604708239,1689421,0
1711604717738,1711604708279,1688851,0
1711604717738,1711604708320,1688317,0
1711604717738,1711604708359,1687832,0
1711604717738,1711604708399,1687728,0
1711604717738,1711604708439,1687984,0
1711604717738,1711604708480,1688604,0
1711604717738,1711604708520,1689460,0
1711604717738,1711604708559,1690260,0
1711604717738,1711604708600,1689169,0
1711604717738,1711604708640,1686091,0
1711604717738,1711604708680,1682861,0
1711604717738,1711604708721,1680838,0
1711604717738,1711604708760,1679916,0
1711604717738,1711604708800,1679919,0
1711604717738,1711604708841,1680092,0
1711604717738,1711604708880,1680060,0
1711604717738,1711604708921,1680247,0
1711604717738,1711604708961,1680689,0
1711604717738,1711604709001,1681303,0
1711604717738,1711604709041,1682085,0
1711604717738,1711604709081,1683034,0
1711604717738,1711604709122,1684298,0
1711604717738,1711604709161,1684156,0
1711604717738,1711604709201,1682465,0
1711604717738,1711604709242,1679876,0
1711604717738,1711604709282,1678078,0
1711604717738,1711604709323,1677465,0
1711604717738,1711604709362,1677459,0
1711604717738,1711604709402,1677671,0
1711604717738,1711604709442,1677978,0
1711604717738,1711604709482,1678130,0
1711604717738,1711604709523,1678870,0
1711604717738,1711604709563,1679569,0
1711604717738,1711604709603,1680773,0
1711604717738,1711604709643,1682143,0
1711604717738,1711604709684,1683568,0
1711604717738,1711604709725,1684102,0
1711604717738,1711604709764,1682875,0
1711604717738,1711604709805,1680773,0
1711604717738,1711604709845,1679283,0
1711604717738,1711604709885,1678954,0
1711604717738,1711604709926,1679548,0
1711604717738,1711604709965,1680184,0
1711604717738,1711604710006,1680995,0
1711604717738,1711604710046,1681530,0
1711604717738,1711604710086,1682474,0
1711604717738,1711604710131,1683353,0
1711604717738,1711604710171,1684492,0
1711604717738,1711604710211,1685711,0
1711604717738,1711604710251,1687142,0
1711604717738,1711604710292,1687377,0
1711604717738,1711604710332,1686013,0
1711604717738,1711604710372,1683711,0
1711604717738,1711604710412,1682039,0
1711604717738,1711604710452,1681303,0
1711604717738,1711604710492,1681232,0
1711604717738,1711604710533,1681428,0
1711604717738,1711604710573,1681779,0
1711604717738,1711604710613,1682752,0
1711604717738,1711604710653,1683757,0
1711604717738,1711604710693,1685089,0
1711604717738,1711604710734,1686568,0
1711604717738,1711604710773,1688087,0
1711604717738,1711604710813,1689639,0
1711604717738,1711604710854,1690185,0
1711604717738,1711604710894,1688727,0
1711604717738,1711604710935,1685484,0
1711604717738,1711604710974,1682364,0
1711604717738,1711604711014,1678753,0
1711604717738,1711604711055,1675101,0
1711604717738,1711604711095,1675691,0
1711604717738,1711604711136,1676613,0
1711604717738,1711604711175,1677821,0
1711604717738,1711604711215,1679435,0
1711604717738,1711604711256,1680570,0
1711604717738,1711604711296,1683498,0
1711604717738,1711604711336,1689624,0
1711604717738,1711604711376,1698287,0
1711604717738,1711604711416,1703760,0
1711604717738,1711604711456,1706226,0
1711604717738,1711604711497,1708464,0
1711604717738,1711604711538,1712129,0
1711604717738,1711604711577,1718650,0
1711604717738,1711604711617,1725959,0
1711604717738,1711604711657,1731607,0
1711604717738,1711604711698,1736515,0
1711604717738,1711604711739,1742463,0
1711604717738,1711604711778,1747128,0
1711604717738,1711604711818,1748354,0
1711604717738,1711604711859,1748257,0
1711604717738,1711604711899,1748256,0
1711604717738,1711604711940,1748481,0
1711604717738,1711604711980,1749429,0
1711604717738,1711604712020,1750259,0
1711604717738,1711604712060,1750995,0
1711604717738,1711604712100,1751738,0
1711604717738,1711604712141,1752822,0
1711604717738,1711604712181,1754084,0
1711604717738,1711604712221,1755524,0
1711604717738,1711604712261,1756820,0
1711604717738,1711604712301,1757716,0
1711604717738,1711604712343,1758332,0
1711604717738,1711604712382,1757304,0
1711604717738,1711604712422,1756455,0
1711604717738,1711604712463,1755647,0
1711604717738,1711604712503,1755195,0
1711604717738,1711604712544,1755092,0
1711604717738,1711604712583,1756626,0
1711604717738,1711604712623,1758363,0
1711604717738,1711604712664,1759295,0
1711604717738,1711604712704,1760280,0
1711604717738,1711604712745,1762144,0
1711604717738,1711604712784,1763730,0
1711604717738,1711604712825,1765512,0
1711604717738,1711604712865,1767468,0
1711604717738,1711604712905,1769640,0
1711604717738,1711604712947,1771822,0
1711604717738,1711604712986,1773707,0
1711604717738,1711604713026,1776215,0
1711604717738,1711604713067,1779720,0
1711604717738,1711604713107,1784414,0
1711604717738,1711604713148,1788726,0
1711604717738,1711604713188,1792544,0
1711604717738,1711604713228,1796500,0
1711604717738,1711604713268,1800016,0
1711604717738,1711604713308,1802516,0
1711604717738,1711604713349,1804098,0
1711604717738,1711604713389,1805534,0
1711604717738,1711604713429,1806696,0
1711604717738,1711604713469,1807898,0
1711604717738,1711604713509,1809130,0
1711604717738,1711604713550,1810548,0
1711604717738,1711604713590,1812055,0
1711604717738,1711604713630,1813469,0
1711604717738,1711604713671,1814760,0
1711604717738,1711604713711,1817203,0
1711604717738,1711604713752,1818397,0
1711604717738,1711604713791,1818966,0
1711604717738,1711604713831,1819612,0
1711604717738,1711604713872,1819911,0
1711604717738,1711604713912,1820391,0
1711604717738,1711604713953,1821067,0
1711604717738,1711604713992,1821955,0
1711604717738,1711604714032,1822699,0
1711604717738,1711604714072,1823606,0
1711604717738,1711604714113,1824505,0
1711604717738,1711604714154,1825396,0
1711604717738,1711604714193,1826329,0
1711604717738,1711604714234,1827421,0
1711604717738,1711604714274,1828494,0
1711604717738,1711604714314,1829584,0
1711604717738,1711604714355,1830631,0
1711604717738,1711604714394,1831337,0
1711604717738,1711604714434,1832175,0
1711604717738,1711604714475,1833381,0
1711604717738,1711604714515,1835529,0
1711604717738,1711604714556,1837598,0
1711604717738,1711604714595,1839520,0
1711604717738,1711604714635,1840952,0
1711604717738,1711604714675,1842176,0
1711604717738,1711604714716,1843271,0
1711604717738,1711604714757,1844006,0
1711604717738,1711604714796,1844859,0
1711604717738,1711604714836,1845757,0
1711604717738,1711604714877,1846780,0
1711604717738,1711604714917,1847771,0
1711604717738,1711604714958,1848618,0
1711604717738,1711604714997,1849281,0
1711604717738,1711604715037,1849787,0
1711604717738,1711604715078,1850553,0
1711604717738,1711604715118,1851469,0
1711604717738,1711604715159,1852361,0
1711604717738,1711604715198,1853319,0
1711604717738,1711604715239,1854305,0
1711604717738,1711604715279,1855320,0
1711604717738,1711604715319,1856211,0
1711604717738,1711604715360,1857191,0
1711604717738,1711604715400,1858149,0
1711604717738,1711604715440,1858981,0
1711604717738,1711604715480,1859957,0
1711604717738,1711604715520,1860871,0
1711604717738,1711604715561,1861646,0
1711604717738,1711604715601,1862005,0
1711604717738,1711604715641,1862312,0
1711604717738,1711604715681,1862869,0
1711604717738,1711604715722,1863480,0
1711604717738,1711604715762,1864271,0
1711604717738,1711604715802,1865019,0
1711604717738,1711604715842,1866005,0
1711604717738,1711604715882,1866822,0
1711604717738,1711604715923,1867662,0
1711604717738,1711604715964,1868122,0
1711604717738,1711604716003,1868759,0
1711604717738,1711604716044,1869293,0
1711604717738,1711604716084,1870278,0
1711604717738,1711604716124,1871430,0
1711604717738,1711604716165,1872373,0
1711604717738,1711604716205,1872671,0
1711604717738,1711604716245,1872900,0
1711604717738,1711604716285,1873232,0
1711604717738,1711604716326,1873740,0
1711604717738,1711604716366,1874367,0
1711604717738,1711604716406,1875055,0
1711604717738,1711604716446,1875514,0
1711604717738,1711604716486,1875820,0
1711604717738,1711604716527,1876295,0
1711604717738,1711604716568,1876481,0
1711604717738,1711604716607,1877039,0
1711604717738,1711604716647,1877606,0
1711604717738,1711604716688,1878351,0
1711604717738,1711604716728,1879312,0
1711604717738,1711604716769,1880281,0
1711604717738,1711604716808,1880615,0
1711604717738,1711604716849,1879724,0
1711604717738,1711604716889,1878891,0
1711604717738,1711604716929,1879220,0
1711604717738,1711604716970,1880267,0
1711604717738,1711604717010,1881381,0
1711604717738,1711604717050,1882105,0
1711604717738,1711604717090,1882743,0
1711604717738,1711604717131,1882913,0
1711604717738,1711604717172,1882986,0
1711604717738,1711604717212,1883525,0
1711604717738,1711604717252,1884697,0
1711604717738,1711604717292,1885853,0
1711604717738,1711604717332,1886809,0
1711604717738,1711604717373,1887546,0
1711604717738,1711604717413,1887844,0
1711604717738,1711604717453,1887737,0
1711604717738,1711604717493,1888241,0
1711604717738,1711604717533,1888712,0
1711604717738,1711604717574,1889321,0
1711604717738,1711604717613,1889851,0
1711604717738,1711604717654,1889655,0
1711604717738,1711604717694,1889929,0
1711604729739,1711604717733,1891043,0
1711604729739,1711604717772,1891447,0
1711604729739,1711604717811,1891563,0
1711604729739,1711604717850,1892498,0
1711604729739,1711604717889,1894177,0
1711604729739,1711604717928,1895862,0
1711604729739,1711604717967,1896419,0
1711604729739,1711604718006,1896729,0
1711604729739,1711604718045,1897133,0
1711604729739,1711604718084,1897776,0
1711604729739,1711604718123,1897376,0
1711604729739,1711604718162,1897693,0
1711604729739,1711604718201,1899616,0
1711604729739,1711604718240,1901432,0
1711604729739,1711604718279,1902979,0
1711604729739,1711604718318,1903945,0
1711604729739,1711604718357,1904551,0
1711604729739,1711604718396,1905596,0
1711604729739,1711604718435,1907710,0
1711604729739,1711604718475,1908699,0
1711604729739,1711604718515,1909302,0
1711604729739,1711604718555,1910159,0
1711604729739,1711604718595,1911136,0
1711604729739,1711604718635,1911651,0
1711604729739,1711604718675,1911819,0
1711604729739,1711604718715,1912593,0
1711604729739,1711604718755,1913724,0
1711604729739,1711604718795,1914300,0
1711604729739,1711604718835,1914515,0
1711604729739,1711604718875,1915088,0
1711604729739,1711604718915,1916529,0
1711604729739,1711604718955,1917875,0
1711604729739,1711604718995,1918626,0
1711604729739,1711604719035,1919895,0
1711604729739,1711604719075,1921512,0
1711604729739,1711604719115,1922944,0
1711604729739,1711604719155,1923173,0
1711604729739,1711604719195,1922799,0
1711604729739,1711604719235,1922800,0
1711604729739,1711604719275,1923266,0
1711604729739,1711604719315,1923603,0
1711604729739,1711604719355,1924017,0
1711604729739,1711604719395,1925297,0
1711604729739,1711604719435,1926482,0
1711604729739,1711604719475,1926573,0
1711604729739,1711604719515,1927015,0
1711604729739,1711604719555,1927960,0
1711604729739,1711604719595,1928813,0
1711604729739,1711604719635,1929376,0
1711604729739,1711604719675,1930216,0
1711604729739,1711604719715,1931407,0
1711604729739,1711604719755,1931167,0
1711604729739,1711604719795,1931055,0
1711604729739,1711604719835,1931308,0
1711604729739,1711604719875,1932188,0
1711604729739,1711604719915,1932970,0
1711604729739,1711604719955,1933501,0
1711604729739,1711604719995,1934160,0
1711604729739,1711604720035,1934734,0
1711604729739,1711604720075,1935212,0
1711604729739,1711604720115,1935632,0
1711604729739,1711604720155,1936673,0
1711604729739,1711604720195,1937484,0
1711604729739,1711604720235,1937730,0
1711604729739,1711604720275,1938119,0
1711604729739,1711604720315,1938963,0
1711604729739,1711604720355,1938856,0
1711604729739,1711604720395,1938258,0
1711604729739,1711604720435,1938100,0
1711604729739,1711604720475,1938991,0
1711604729739,1711604720515,1939930,0
1711604729739,1711604720555,1940014,0
1711604729739,1711604720595,1939992,0
1711604729739,1711604720635,1940700,0
1711604729739,1711604720675,1941500,0
1711604729739,1711604720715,1941815,0
1711604729739,1711604720755,1942127,0
1711604729739,1711604720795,1942800,0
1711604729739,1711604720835,1943645,0
1711604729739,1711604720875,1944205,0
1711604729739,1711604720915,1944057,0
1711604729739,1711604720955,1943660,0
1711604729739,1711604720995,1943503,0
1711604729739,1711604721035,1943609,0
1711604729739,1711604721075,1943737,0
1711604729739,1711604721115,1944093,0
1711604729739,1711604721155,1944286,0
1711604729739,1711604721195,1944506,0
1711604729739,1711604721235,1944947,0
1711604729739,1711604721275,1945290,0
1711604729739,1711604721315,1945809,0
1711604729739,1711604721355,1946240,0
1711604729739,1711604721395,1946808,0
1711604729739,1711604721435,1947163,0
1711604729739,1711604721475,1947119,0
1711604729739,1711604721515,1946558,0
1711604729739,1711604721555,1946273,0
1711604729739,1711604721595,1945977,0
1711604729739,1711604721635,1946006,0
1711604729739,1711604721675,1946313,0
1711604729739,1711604721715,1946408,0
1711604729739,1711604721755,1945731,0
1711604729739,1711604721795,1945864,0
1711604729739,1711604721835,1946682,0
1711604729739,1711604721875,1948167,0
1711604729739,1711604721915,1948409,0
1711604729739,1711604721955,1948551,0
1711604729739,1711604721995,1948993,0
1711604729739,1711604722035,1950112,0
1711604729739,1711604722075,1950572,0
1711604729739,1711604722115,1949701,0
1711604729739,1711604722155,1949620,0
1711604729739,1711604722195,1950646,0
1711604729739,1711604722235,1953093,0
1711604729739,1711604722275,1955509,0
1711604729739,1711604722315,1958403,0
1711604729739,1711604722355,1959932,0
1711604729739,1711604722395,1960195,0
1711604729739,1711604722435,1959425,0
1711604729739,1711604722475,1958542,0
1711604729739,1711604722515,1958256,0
1711604729739,1711604722555,1958831,0
1711604729739,1711604722595,1959466,0
1711604729739,1711604722635,1959401,0
1711604729739,1711604722675,1958983,0
1711604729739,1711604722715,1958832,0
1711604729739,1711604722755,1957607,0
1711604729739,1711604722795,1957833,0
1711604729739,1711604722835,1958684,0
1711604729739,1711604722875,1961269,0
1711604729739,1711604722915,1966465,0
1711604729739,1711604722955,1970577,0
1711604729739,1711604722995,1973710,0
1711604729739,1711604723035,1976606,0
1711604729739,1711604723075,1977841,0
1711604729739,1711604723115,1978811,0
1711604729739,1711604723155,1979482,0
1711604729739,1711604723195,1981567,0
1711604729739,1711604723235,1982430,0
1711604729739,1711604723275,1987744,0
1711604729739,1711604723315,1990416,0
1711604729739,1711604723355,1992082,0
1711604729739,1711604723395,1991125,0
1711604729739,1711604723435,1989186,0
1711604729739,1711604723475,1987050,0
1711604729739,1711604723515,1981699,0
1711604729739,1711604723555,1974840,0
1711604729739,1711604723595,1971511,0
1711604729739,1711604723635,1969414,0
1711604729739,1711604723675,1968646,0
1711604729739,1711604723715,1969295,0
1711604729739,1711604723755,1970449,0
1711604729739,1711604723795,1970896,0
1711604729739,1711604723835,1972053,0
1711604729739,1711604723875,1974524,0
1711604729739,1711604723915,1977409,0
1711604729739,1711604723955,1979797,0
1711604729739,1711604723995,1981191,0
1711604729739,1711604724035,1979817,0
1711604729739,1711604724075,1978237,0
1711604729739,1711604724115,1978474,0
1711604729739,1711604724155,1980746,0
1711604729739,1711604724195,1983395,0
1711604729739,1711604724235,1985595,0
1711604729739,1711604724275,1986641,0
1711604729739,1711604724315,1987173,0
1711604729739,1711604724355,1984907,0
1711604729739,1711604724395,1983226,0
1711604729739,1711604724435,1985142,0
1711604729739,1711604724475,1988007,0
1711604729739,1711604724515,1990691,0
1711604729739,1711604724555,1993045,0
1711604729739,1711604724595,1995321,0
1711604729739,1711604724635,1997155,0
1711604729739,1711604724675,1999105,0
1711604729739,1711604724715,2000742,0
1711604729739,1711604724755,2002400,0
1711604729739,1711604724795,2004121,0
1711604729739,1711604724835,2005618,0
1711604729739,1711604724875,2007264,0
1711604729739,1711604724915,2008162,0
1711604729739,1711604724955,2009260,0
1711604729739,1711604724995,2009787,0
1711604729739,1711604725035,2010880,0
1711604729739,1711604725075,2012082,0
1711604729739,1711604725115,2013379,0
1711604729739,1711604725155,2014769,0
1711604729739,1711604725195,2015810,0
1711604729739,1711604725235,2016903,0
1711604729739,1711604725275,2018186,0
1711604729739,1711604725315,2019404,0
1711604729739,1711604725355,2020615,0
1711604729739,1711604725395,2021801,0
1711604729739,1711604725435,2022925,0
1711604729739,1711604725475,2023852,0
1711604729739,1711604725515,2024511,0
1711604729739,1711604725555,2025187,0
1711604729739,1711604725595,2025964,0
1711604729739,1711604725635,2026650,0
1711604729739,1711604725675,2027760,0
1711604729739,1711604725715,2028606,0
1711604729739,1711604725755,2029440,0
1711604729739,1711604725795,2030457,0
1711604729739,1711604725835,2031206,0
1711604729739,1711604725875,2032143,0
1711604729739,1711604725915,2033021,0
1711604729739,1711604725955,2034021,0
1711604729739,1711604725995,2034859,0
1711604729739,1711604726035,2035774,0
1711604729739,1711604726075,2036401,0
1711604729739,1711604726115,2036893,0
1711604729739,1711604726155,2037526,0
1711604729739,1711604726195,2038271,0
1711604729739,1711604726235,2038944,0
1711604729739,1711604726275,2039793,0
1711604729739,1711604726315,2040544,0
1711604729739,1711604726355,2041086,0
1711604729739,1711604726395,2041475,0
1711604729739,1711604726435,2042139,0
1711604729739,1711604726475,2042555,0
1711604729739,1711604726515,2043205,0
1711604729739,1711604726555,2043629,0
1711604729739,1711604726595,2044022,0
1711604729739,1711604726635,2043362,0
1711604729739,1711604726675,2041959,0
1711604729739,1711604726715,2038658,0
1711604729739,1711604726755,2035267,0
1711604729739,1711604726795,2033676,0
1711604729739,1711604726835,2032050,0
1711604729739,1711604726875,2031231,0
1711604729739,1711604726915,2029713,0
1711604729739,1711604726955,2028363,0
1711604729739,1711604726995,2027600,0
1711604729739,1711604727035,2026972,0
1711604729739,1711604727075,2026627,0
1711604729739,1711604727115,2027411,0
1711604729739,1711604727155,2027093,0
1711604729739,1711604727195,2022861,0
1711604729739,1711604727235,2015673,0
1711604729739,1711604727275,2009729,0
1711604729739,1711604727315,2008092,0
1711604729739,1711604727355,2008659,0
1711604729739,1711604727395,2010419,0
1711604729739,1711604727435,2012397,0
1711604729739,1711604727475,2015043,0
1711604729739,1711604727515,2017771,0
1711604729739,1711604727555,2019050,0
1711604729739,1711604727595,2019577,0
1711604729739,1711604727635,2019744,0
1711604729739,1711604727675,2020141,0
1711604729739,1711604727715,2020446,0
1711604729739,1711604727755,2021142,0
1711604729739,1711604727795,2022046,0
1711604729739,1711604727835,2022880,0
1711604729739,1711604727875,2023860,0
1711604729739,1711604727915,2024854,0
1711604729739,1711604727955,2025774,0
1711604729739,1711604727995,2026701,0
1711604729739,1711604728035,2027409,0
1711604729739,1711604728075,2028177,0
1711604729739,1711604728115,2028997,0
1711604729739,1711604728155,2030195,0
1711604729739,1711604728195,2030924,0
1711604729739,1711604728235,2031823,0
1711604729739,1711604728275,2032690,0
1711604729739,1711604728315,2033609,0
1711604729739,1711604728355,2034375,0
1711604729739,1711604728395,2035331,0
1711604729739,1711604728435,2036083,0
1711604729739,1711604728475,2036808,0
1711604729739,1711604728515,2037672,0
1711604729739,1711604728555,2038684,0
1711604729739,1711604728595,2040156,0
1711604729739,1711604728635,2041007,0
1711604729739,1711604728675,2041898,0
1711604729739,1711604728715,2042039,0
1711604729739,1711604728755,2042372,0
1711604729739,1711604728795,2042879,0
1711604729739,1711604728835,2043714,0
1711604729739,1711604728875,2045463,0
1711604729739,1711604728915,2046008,0
1711604729739,1711604728955,2046353,0
1711604729739,1711604728995,2046882,0
1711604729739,1711604729035,2047521,0
1711604729739,1711604729075,2048030,0
1711604729739,1711604729115,2048671,0
1711604729739,1711604729155,2049180,0
1711604729739,1711604729195,2049602,0
1711604729739,1711604729235,2049875,0
1711604729739,1711604729275,2050566,0
1711604729739,1711604729315,2051619,0
1711604729739,1711604729355,2052257,0
1711604729739,1711604729395,2053450,0
1711604729739,1711604729435,2054445,0
1711604729739,1711604729475,2054104,0
1711604729739,1711604729515,2050168,0
1711604729739,1711604729555,2044533,0
1711604729739,1711604729595,2039663,0
1711604729739,1711604729635,2035592,0
1711604729739,1711604729675,2035066,0
1711604741823,1711604729771,2036309,0
1711604741823,1711604729812,2037329,0
1711604741823,1711604729851,2038593,0
1711604741823,1711604729891,2038499,0
1711604741823,1711604729931,2034597,0
1711604741823,1711604729971,2027423,0
1711604741823,1711604730012,2019156,0
1711604741823,1711604730052,2016644,0
1711604741823,1711604730091,2018184,0
1711604741823,1711604730132,2022729,0
1711604741823,1711604730172,2026418,0
1711604741823,1711604730212,2030149,0
1711604741823,1711604730252,2032969,0
1711604741823,1711604730292,2034464,0
1711604741823,1711604730332,2035487,0
1711604741823,1711604730372,2034421,0
1711604741823,1711604730413,2033247,0
1711604741823,1711604730452,2032165,0
1711604741823,1711604730492,2030953,0
1711604741823,1711604730533,2031119,0
1711604741823,1711604730573,2032609,0
1711604741823,1711604730614,2034984,0
1711604741823,1711604730653,2037640,0
1711604741823,1711604730693,2039947,0
1711604741823,1711604730733,2041901,0
1711604741823,1711604730773,2043484,0
1711604741823,1711604730814,2045527,0
1711604741823,1711604730853,2047067,0
1711604741823,1711604730894,2048818,0
1711604741823,1711604730934,2050009,0
1711604741823,1711604730974,2050834,0
1711604741823,1711604731015,2049320,0
1711604741823,1711604731054,2045497,0
1711604741823,1711604731094,2039044,0
1711604741823,1711604731134,2033742,0
1711604741823,1711604731174,2031106,0
1711604741823,1711604731215,2029675,0
1711604741823,1711604731255,2028702,0
1711604741823,1711604731295,2027882,0
1711604741823,1711604731335,2028056,0
1711604741823,1711604731375,2027776,0
1711604741823,1711604731416,2026336,0
1711604741823,1711604731455,2026203,0
1711604741823,1711604731495,2026437,0
1711604741823,1711604731535,2025370,0
1711604741823,1711604731576,2022950,0
1711604741823,1711604731617,2020381,0
1711604741823,1711604731656,2017874,0
1711604741823,1711604731696,2016107,0
1711604741823,1711604731736,2014783,0
1711604741823,1711604731776,2013502,0
1711604741823,1711604731817,2012609,0
1711604741823,1711604731856,2012407,0
1711604741823,1711604731897,2012086,0
1711604741823,1711604731937,2012577,0
1711604741823,1711604731977,2013537,0
1711604741823,1711604732018,2014175,0
1711604741823,1711604732057,2014592,0
1711604741823,1711604732097,2016454,0
1711604741823,1711604732137,2017574,0
1711604741823,1711604732177,2020031,0
1711604741823,1711604732218,2021213,0
1711604741823,1711604732257,2022127,0
1711604741823,1711604732298,2020967,0
1711604741823,1711604732338,2018679,0
1711604741823,1711604732378,2016640,0
1711604741823,1711604732419,2015962,0
1711604741823,1711604732458,2015033,0
1711604741823,1711604732498,2015014,0
1711604741823,1711604732538,2015237,0
1711604741823,1711604732579,2015698,0
1711604741823,1711604732619,2016758,0
1711604741823,1711604732659,2017038,0
1711604741823,1711604732699,2017871,0
1711604741823,1711604732739,2019869,0
1711604741823,1711604732779,2021646,0
1711604741823,1711604732820,2022387,0
1711604741823,1711604732859,2024207,0
1711604741823,1711604732899,2026284,0
1711604741823,1711604732940,2028257,0
1711604741823,1711604732980,2030473,0
1711604741823,1711604733021,2032208,0
1711604741823,1711604733060,2034118,0
1711604741823,1711604733100,2036208,0
1711604741823,1711604733140,2038304,0
1711604741823,1711604733180,2040553,0
1711604741823,1711604733221,2042509,0
1711604741823,1711604733260,2043502,0
1711604741823,1711604733301,2044555,0
1711604741823,1711604733341,2045550,0
1711604741823,1711604733381,2045888,0
1711604741823,1711604733422,2045288,0
1711604741823,1711604733461,2041992,0
1711604741823,1711604733501,2039972,0
1711604741823,1711604733542,2038853,0
1711604741823,1711604733581,2040862,0
1711604741823,1711604733622,2044350,0
1711604741823,1711604733662,2048652,0
1711604741823,1711604733702,2048749,0
1711604741823,1711604733742,2046439,0
1711604741823,1711604733782,2042163,0
1711604741823,1711604733823,2036633,0
1711604741823,1711604733862,2032621,0
1711604741823,1711604733903,2029022,0
1711604741823,1711604733943,2028411,0
1711604741823,1711604733983,2029099,0
1711604741823,1711604734024,2029292,0
1711604741823,1711604734063,2030159,0
1711604741823,1711604734103,2030662,0
1711604741823,1711604734143,2032173,0
1711604741823,1711604734183,2030863,0
1711604741823,1711604734224,2031931,0
1711604741823,1711604734264,2036644,0
1711604741823,1711604734304,2040205,0
1711604741823,1711604734344,2044973,0
1711604741823,1711604734384,2049854,0
1711604741823,1711604734425,2054658,0
1711604741823,1711604734464,2057426,0
1711604741823,1711604734504,2058047,0
1711604741823,1711604734544,2059052,0
1711604741823,1711604734585,2058561,0
1711604741823,1711604734626,2058139,0
1711604741823,1711604734665,2053027,0
1711604741823,1711604734705,2046690,0
1711604741823,1711604734745,2044778,0
1711604741823,1711604734785,2045020,0
1711604741823,1711604734826,2042134,0
1711604741823,1711604734866,2040969,0
1711604741823,1711604734906,2040706,0
1711604741823,1711604734946,2043021,0
1711604741823,1711604734986,2046639,0
1711604741823,1711604735027,2049558,0
1711604741823,1711604735066,2052097,0
1711604741823,1711604735106,2054236,0
1711604741823,1711604735146,2056199,0
1711604741823,1711604735187,2057790,0
1711604741823,1711604735228,2058603,0
1711604741823,1711604735267,2059356,0
1711604741823,1711604735307,2059695,0
1711604741823,1711604735347,2060188,0
1711604741823,1711604735387,2060644,0
1711604741823,1711604735428,2061251,0
1711604741823,1711604735468,2062180,0
1711604741823,1711604735508,2062475,0
1711604741823,1711604735548,2062983,0
1711604741823,1711604735588,2063160,0
1711604741823,1711604735629,2063173,0
1711604741823,1711604735669,2050762,0
1711604741823,1711604735709,2047624,0
1711604741823,1711604735749,2046708,0
1711604741823,1711604735789,2048255,0
1711604741823,1711604735831,2050454,0
1711604741823,1711604735870,2052189,0
1711604741823,1711604735910,2053260,0
1711604741823,1711604735950,2054246,0
1711604741823,1711604735990,2055619,0
1711604741823,1711604736031,2057269,0
1711604741823,1711604736071,2059513,0
1711604741823,1711604736111,2056809,0
1711604741823,1711604736151,2056562,0
1711604741823,1711604736191,2061259,0
1711604741823,1711604736234,2064829,0
1711604741823,1711604736273,2064717,0
1711604741823,1711604736314,2061788,0
1711604741823,1711604736354,2059694,0
1711604741823,1711604736394,2059862,0
1711604741823,1711604736435,2060324,0
1711604741823,1711604736474,2058383,0
1711604741823,1711604736514,2058018,0
1711604741823,1711604736555,2056433,0
1711604741823,1711604736595,2055430,0
1711604741823,1711604736636,2055237,0
1711604741823,1711604736675,2055941,0
1711604741823,1711604736715,2058733,0
1711604741823,1711604736756,2065933,0
1711604741823,1711604736796,2076660,0
1711604741823,1711604736837,2087606,0
1711604741823,1711604736879,2093006,0
1711604741823,1711604736917,2091546,0
1711604741823,1711604736957,2086923,0
1711604741823,1711604736997,2082907,0
1711604741823,1711604737039,2079154,0
1711604741823,1711604737078,2076391,0
1711604741823,1711604737118,2073940,0
1711604741823,1711604737159,2071231,0
1711604741823,1711604737199,2068475,0
1711604741823,1711604737240,2065595,0
1711604741823,1711604737279,2062774,0
1711604741823,1711604737319,2059514,0
1711604741823,1711604737360,2056861,0
1711604741823,1711604737400,2054495,0
1711604741823,1711604737441,2053486,0
1711604741823,1711604737480,2053600,0
1711604741823,1711604737521,2055521,0
1711604741823,1711604737561,2055751,0
1711604741823,1711604737601,2058330,0
1711604741823,1711604737642,2059404,0
1711604741823,1711604737682,2060678,0
1711604741823,1711604737722,2061907,0
1711604741823,1711604737762,2061997,0
1711604741823,1711604737802,2062765,0
1711604741823,1711604737843,2060703,0
1711604741823,1711604737883,2057484,0
1711604741823,1711604737923,2055663,0
1711604741823,1711604737963,2055912,0
1711604741823,1711604738004,2056131,0
1711604741823,1711604738045,2053678,0
1711604741823,1711604738084,2044252,0
1711604741823,1711604738124,2035466,0
1711604741823,1711604738165,2030062,0
1711604741823,1711604738205,2026037,0
1711604741823,1711604738246,2022964,0
1711604741823,1711604738285,2021012,0
1711604741823,1711604738326,2019931,0
1711604741823,1711604738366,2019851,0
1711604741823,1711604738406,2020976,0
1711604741823,1711604738447,2021629,0
1711604741823,1711604738487,2021219,0
1711604741823,1711604738527,2021987,0
1711604741823,1711604738567,2022453,0
1711604741823,1711604738607,2023728,0
1711604741823,1711604738648,2024444,0
1711604741823,1711604738688,2026242,0
1711604741823,1711604738728,2029655,0
1711604741823,1711604738768,2032557,0
1711604741823,1711604738809,2032063,0
1711604741823,1711604738850,2032376,0
1711604741823,1711604738889,2033437,0
1711604741823,1711604738929,2035374,0
1711604741823,1711604738970,2037020,0
1711604741823,1711604739010,2036807,0
1711604741823,1711604739050,2035470,0
1711604741823,1711604739093,2033711,0
1711604741823,1711604739130,2030670,0
1711604741823,1711604739170,2026230,0
1711604741823,1711604739211,2023344,0
1711604741823,1711604739251,2020050,0
1711604741823,1711604739291,2017315,0
1711604741823,1711604739331,2017147,0
1711604741823,1711604739371,2021007,0
1711604741823,1711604739411,2026035,0
1711604741823,1711604739452,2030380,0
1711604741823,1711604739492,2034287,0
1711604741823,1711604739532,2037388,0
1711604741823,1711604739572,2040201,0
1711604741823,1711604739612,2043064,0
1711604741823,1711604739653,2044898,0
1711604741823,1711604739693,2046098,0
1711604741823,1711604739733,2047265,0
1711604741823,1711604739773,2047971,0
1711604741823,1711604739813,2048382,0
1711604741823,1711604739854,2048751,0
1711604741823,1711604739893,2049188,0
1711604741823,1711604739933,2049734,0
1711604741823,1711604739974,2050263,0
1711604741823,1711604740014,2050604,0
1711604741823,1711604740055,2050944,0
1711604741823,1711604740094,2051170,0
1711604741823,1711604740134,2051129,0
1711604741823,1711604740175,2051122,0
1711604741823,1711604740215,2051291,0
1711604741823,1711604740256,2051665,0
1711604741823,1711604740295,2052217,0
1711604741823,1711604740336,2052734,0
1711604741823,1711604740376,2053377,0
1711604741823,1711604740416,2053936,0
1711604741823,1711604740457,2054789,0
1711604741823,1711604740497,2055549,0
1711604741823,1711604740537,2056578,0
1711604741823,1711604740577,2057370,0
1711604741823,1711604740617,2057939,0
1711604741823,1711604740658,2058407,0
1711604741823,1711604740698,2058674,0
1711604741823,1711604740738,2059249,0
1711604741823,1711604740778,2060088,0
1711604741823,1711604740818,2060860,0
1711604741823,1711604740859,2061774,0
1711604741823,1711604740899,2062377,0
1711604741823,1711604740939,2063054,0
1711604741823,1711604740979,2063819,0
1711604741823,1711604741020,2064500,0
1711604741823,1711604741061,2065173,0
1711604741823,1711604741100,2066018,0
1711604741823,1711604741141,2066713,0
1711604741823,1711604741181,2067158,0
1711604741823,1711604741221,2067199,0
1711604741823,1711604741262,2067261,0
1711604741823,1711604741304,2067706,0
1711604741823,1711604741342,2068229,0
1711604741823,1711604741382,2068758,0
1711604741823,1711604741422,2069250,0
1711604741823,1711604741463,2069810,0
1711604741823,1711604741503,2070406,0
1711604741823,1711604741543,2070975,0
1711604741823,1711604741583,2071458,0
1711604741823,1711604741624,2072073,0
1711604741823,1711604741665,2072668,0
1711604741823,1711604741704,2073299,0
1711604741823,1711604741745,2073708,0
1711604741823,1711604741785,2073733,0
1711604753867,1711604741820,2073755,0
1711604753867,1711604741861,2074115,0
1711604753867,1711604741900,2074422,0
1711604753867,1711604741940,2074938,0
1711604753867,1711604741980,2075421,0
1711604753867,1711604742020,2075883,0
1711604753867,1711604742061,2076256,0
1711604753867,1711604742101,2076736,0
1711604753867,1711604742141,2077102,0
1711604753867,1711604742181,2077663,0
1711604753867,1711604742221,2078076,0
1711604753867,1711604742262,2078696,0
1711604753867,1711604742301,2078968,0
1711604753867,1711604742342,2079021,0
1711604753867,1711604742382,2078890,0
1711604753867,1711604742422,2079028,0
1711604753867,1711604742463,2079303,0
1711604753867,1711604742502,2079757,0
1711604753867,1711604742542,2080109,0
1711604753867,1711604742583,2080588,0
1711604753867,1711604742623,2080824,0
1711604753867,1711604742663,2081384,0
1711604753867,1711604742703,2081704,0
1711604753867,1711604742743,2082252,0
1711604753867,1711604742783,2082703,0
1711604753867,1711604742823,2083176,0
1711604753867,1711604742864,2083100,0
1711604753867,1711604742903,2083001,0
1711604753867,1711604742944,2083241,0
1711604753867,1711604742984,2083467,0
1711604753867,1711604743024,2083895,0
1711604753867,1711604743065,2084365,0
1711604753867,1711604743104,2084638,0
1711604753867,1711604743144,2084934,0
1711604753867,1711604743184,2085282,0
1711604753867,1711604743224,2085733,0
1711604753867,1711604743265,2086199,0
1711604753867,1711604743305,2086546,0
1711604753867,1711604743344,2086993,0
1711604753867,1711604743385,2087033,0
1711604753867,1711604743425,2086927,0
1711604753867,1711604743465,2086790,0
1711604753867,1711604743505,2086927,0
1711604753867,1711604743545,2087169,0
1711604753867,1711604743585,2087606,0
1711604753867,1711604743625,2088083,0
1711604753867,1711604743666,2088357,0
1711604753867,1711604743705,2088645,0
1711604753867,1711604743745,2089013,0
1711604753867,1711604743786,2089509,0
1711604753867,1711604743826,2089975,0
1711604753867,1711604743866,2090369,0
1711604753867,1711604743906,2090691,0
1711604753867,1711604743946,2091180,0
1711604753867,1711604743986,2091256,0
1711604753867,1711604744026,2090305,0
1711604753867,1711604744067,2088271,0
1711604753867,1711604744106,2084531,0
1711604753867,1711604744146,2079964,0
1711604753867,1711604744186,2076020,0
1711604753867,1711604744226,2073305,0
1711604753867,1711604744267,2072558,0
1711604753867,1711604744307,2073525,0
1711604753867,1711604744347,2073936,0
1711604753867,1711604744387,2074095,0
1711604753867,1711604744427,2074366,0
1711604753867,1711604744468,2074987,0
1711604753867,1711604744507,2075723,0
1711604753867,1711604744547,2075686,0
1711604753867,1711604744587,2074479,0
1711604753867,1711604744628,2072479,0
1711604753867,1711604744668,2074686,0
1711604753867,1711604744708,2076548,0
1711604753867,1711604744748,2079336,0
1711604753867,1711604744788,2082634,0
1711604753867,1711604744828,2084716,0
1711604753867,1711604744869,2087163,0
1711604753867,1711604744908,2088857,0
1711604753867,1711604744948,2090692,0
1711604753867,1711604744988,2092725,0
1711604753867,1711604745028,2094229,0
1711604753867,1711604745069,2095057,0
1711604753867,1711604745109,2096082,0
1711604753867,1711604745149,2096366,0
1711604753867,1711604745189,2096909,0
1711604753867,1711604745229,2097521,0
1711604753867,1711604745270,2097868,0
1711604753867,1711604745309,2098327,0
1711604753867,1711604745349,2098666,0
1711604753867,1711604745389,2098802,0
1711604753867,1711604745429,2099221,0
1711604753867,1711604745470,2099259,0
1711604753867,1711604745510,2099580,0
1711604753867,1711604745550,2099962,0
1711604753867,1711604745590,2100280,0
1711604753867,1711604745630,2100711,0
1711604753867,1711604745671,2101094,0
1711604753867,1711604745710,2101390,0
1711604753867,1711604745750,2101720,0
1711604753867,1711604745790,2101874,0
1711604753867,1711604745831,2102164,0
1711604753867,1711604745871,2102492,0
1711604753867,1711604745911,2102811,0
1711604753867,1711604745951,2103301,0
1711604753867,1711604745991,2103759,0
1711604753867,1711604746031,2104146,0
1711604753867,1711604746072,2104707,0
1711604753867,1711604746111,2105204,0
1711604753867,1711604746151,2105593,0
1711604753867,1711604746192,2106281,0
1711604753867,1711604746232,2106917,0
1711604753867,1711604746272,2107597,0
1711604753867,1711604746312,2107868,0
1711604753867,1711604746352,2108018,0
1711604753867,1711604746392,2108343,0
1711604753867,1711604746432,2108880,0
1711604753867,1711604746473,2109238,0
1711604753867,1711604746512,2109827,0
1711604753867,1711604746553,2110435,0
1711604753867,1711604746593,2110920,0
1711604753867,1711604746633,2111229,0
1711604753867,1711604746674,2111463,0
1711604753867,1711604746713,2111070,0
1711604753867,1711604746753,2111226,0
1711604753867,1711604746793,2112064,0
1711604753867,1711604746833,2112130,0
1711604753867,1711604746874,2112293,0
1711604753867,1711604746914,2111585,0
1711604753867,1711604746954,2111107,0
1711604753867,1711604746994,2110750,0
1711604753867,1711604747034,2111131,0
1711604753867,1711604747075,2111308,0
1711604753867,1711604747114,2111671,0
1711604753867,1711604747154,2112200,0
1711604753867,1711604747194,2112409,0
1711604753867,1711604747234,2112676,0
1711604753867,1711604747276,2113098,0
1711604753867,1711604747315,2113660,0
1711604753867,1711604747355,2113939,0
1711604753867,1711604747395,2114424,0
1711604753867,1711604747435,2114626,0
1711604753867,1711604747476,2114271,0
1711604753867,1711604747516,2114217,0
1711604753867,1711604747556,2114446,0
1711604753867,1711604747596,2114851,0
1711604753867,1711604747637,2115249,0
1711604753867,1711604747677,2115557,0
1711604753867,1711604747717,2115790,0
1711604753867,1711604747757,2116121,0
1711604753867,1711604747797,2116439,0
1711604753867,1711604747838,2116799,0
1711604753867,1711604747879,2117015,0
1711604753867,1711604747919,2117245,0
1711604753867,1711604747959,2117635,0
1711604753867,1711604747999,2117715,0
1711604753867,1711604748039,2117502,0
1711604753867,1711604748080,2117393,0
1711604753867,1711604748120,2117425,0
1711604753867,1711604748160,2117603,0
1711604753867,1711604748201,2118019,0
1711604753867,1711604748241,2118506,0
1711604753867,1711604748282,2118973,0
1711604753867,1711604748322,2119213,0
1711604753867,1711604748362,2119463,0
1711604753867,1711604748402,2119920,0
1711604753867,1711604748443,2120317,0
1711604753867,1711604748484,2120838,0
1711604753867,1711604748524,2120935,0
1711604753867,1711604748564,2121160,0
1711604753867,1711604748604,2121240,0
1711604753867,1711604748644,2121263,0
1711604753867,1711604748685,2121317,0
1711604753867,1711604748725,2121311,0
1711604753867,1711604748765,2121684,0
1711604753867,1711604748805,2121947,0
1711604753867,1711604748845,2122304,0
1711604753867,1711604748886,2122587,0
1711604753867,1711604748926,2122776,0
1711604753867,1711604748966,2123224,0
1711604753867,1711604749006,2123447,0
1711604753867,1711604749046,2123767,0
1711604753867,1711604749087,2124152,0
1711604753867,1711604749126,2124523,0
1711604753867,1711604749167,2124567,0
1711604753867,1711604749207,2124463,0
1711604753867,1711604749247,2124568,0
1711604753867,1711604749288,2124675,0
1711604753867,1711604749327,2124808,0
1711604753867,1711604749367,2125222,0
1711604753867,1711604749408,2125455,0
1711604753867,1711604749448,2125703,0
1711604753867,1711604749489,2126079,0
1711604753867,1711604749528,2126311,0
1711604753867,1711604749568,2126555,0
1711604753867,1711604749608,2126808,0
1711604753867,1711604749649,2127176,0
1711604753867,1711604749690,2127387,0
1711604753867,1711604749729,2127716,0
1711604753867,1711604749769,2127777,0
1711604753867,1711604749810,2127644,0
1711604753867,1711604749850,2127824,0
1711604753867,1711604749891,2128099,0
1711604753867,1711604749930,2128211,0
1711604753867,1711604749970,2128456,0
1711604753867,1711604750011,2128613,0
1711604753867,1711604750051,2128914,0
1711604753867,1711604750092,2129133,0
1711604753867,1711604750131,2129439,0
1711604753867,1711604750172,2129562,0
1711604753867,1711604750212,2129805,0
1711604753867,1711604750252,2130031,0
1711604753867,1711604750293,2130240,0
1711604753867,1711604750333,2130287,0
1711604753867,1711604750373,2130125,0
1711604753867,1711604750413,2130180,0
1711604753867,1711604750453,2130374,0
1711604753867,1711604750494,2130559,0
1711604753867,1711604750534,2130841,0
1711604753867,1711604750574,2130876,0
1711604753867,1711604750614,2131235,0
1711604753867,1711604750655,2131284,0
1711604753867,1711604750696,2131559,0
1711604753867,1711604750735,2131807,0
1711604753867,1711604750776,2131875,0
1711604753867,1711604750816,2132235,0
1711604753867,1711604750856,2132430,0
1711604753867,1711604750897,2132374,0
1711604753867,1711604750936,2132188,0
1711604753867,1711604750977,2132437,0
1711604753867,1711604751018,2132320,0
1711604753867,1711604751058,2132739,0
1711604753867,1711604751099,2132919,0
1711604753867,1711604751139,2133155,0
1711604753867,1711604751179,2133429,0
1711604753867,1711604751219,2133745,0
1711604753867,1711604751260,2133996,0
1711604753867,1711604751300,2134266,0
1711604753867,1711604751340,2134408,0
1711604753867,1711604751380,2134712,0
1711604753867,1711604751420,2134426,0
1711604753867,1711604751461,2133998,0
1711604753867,1711604751502,2133481,0
1711604753867,1711604751541,2132837,0
1711604753867,1711604751581,2132476,0
1711604753867,1711604751622,2132593,0
1711604753867,1711604751662,2132520,0
1711604753867,1711604751703,2132611,0
1711604753867,1711604751742,2132817,0
1711604753867,1711604751783,2133248,0
1711604753867,1711604751823,2133652,0
1711604753867,1711604751863,2133810,0
1711604753867,1711604751904,2134067,0
1711604753867,1711604751944,2134384,0
1711604753867,1711604751984,2134289,0
1711604753867,1711604752024,2134048,0
1711604753867,1711604752064,2133970,0
1711604753867,1711604752105,2134113,0
1711604753867,1711604752144,2133998,0
1711604753867,1711604752185,2134267,0
1711604753867,1711604752225,2134306,0
1711604753867,1711604752265,2135176,0
1711604753867,1711604752306,2135525,0
1711604753867,1711604752345,2135433,0
1711604753867,1711604752385,2135745,0
1711604753867,1711604752426,2136261,0
1711604753867,1711604752466,2136917,0
1711604753867,1711604752507,2137078,0
1711604753867,1711604752546,2136977,0
1711604753867,1711604752586,2136546,0
1711604753867,1711604752626,2136434,0
1711604753867,1711604752667,2136368,0
1711604753867,1711604752708,2136486,0
1711604753867,1711604752747,2136536,0
1711604753867,1711604752787,2136490,0
1711604753867,1711604752827,2136344,0
1711604753867,1711604752867,2136322,0
1711604753867,1711604752908,2136390,0
1711604753867,1711604752948,2136414,0
1711604753867,1711604752988,2136560,0
1711604753867,1711604753028,2136697,0
1711604753867,1711604753069,2136778,0
1711604753867,1711604753109,2136841,0
1711604753867,1711604753149,2136597,0
1711604753867,1711604753189,2136414,0
1711604753867,1711604753229,2136327,0
1711604753867,1711604753270,2136535,0
1711604753867,1711604753311,2136667,0
1711604753867,1711604753350,2136639,0
1711604753867,1711604753390,2136756,0
1711604753867,1711604753431,2136941,0
1711604753867,1711604753471,2136925,0
1711604753867,1711604753512,2137051,0
1711604753867,1711604753552,2137444,0
1711604753867,1711604753592,2137793,0
1711604753867,1711604753632,2138341,0
1711604753867,1711604753673,2138317,0
1711604753867,1711604753714,2138288,0
1711604753867,1711604753753,2138400,0
1711604753867,1711604753794,2138493,0
1711604753867,1711604753834,2138675,0
1711604765917,1711604753877,2138978,0
1711604765917,1711604753918,2139165,0
1711604765917,1711604753957,2139790,0
1711604765917,1711604753997,2140173,0
1711604765917,1711604754037,2140771,0
1711604765917,1711604754077,2141134,0
1711604765917,1711604754118,2142004,0
1711604765917,1711604754158,2142648,0
1711604765917,1711604754198,2143257,0
1711604765917,1711604754238,2143478,0
1711604765917,1711604754278,2143445,0
1711604765917,1711604754319,2143588,0
1711604765917,1711604754358,2143950,0
1711604765917,1711604754399,2144249,0
1711604765917,1711604754439,2144820,0
1711604765917,1711604754479,2145183,0
1711604765917,1711604754520,2145148,0
1711604765917,1711604754559,2145261,0
1711604765917,1711604754599,2145359,0
1711604765917,1711604754639,2145501,0
1711604765917,1711604754679,2145490,0
1711604765917,1711604754720,2145573,0
1711604765917,1711604754760,2145559,0
1711604765917,1711604754800,2145585,0
1711604765917,1711604754840,2145314,0
1711604765917,1711604754880,2145037,0
1711604765917,1711604754921,2144735,0
1711604765917,1711604754960,2144705,0
1711604765917,1711604755001,2144664,0
1711604765917,1711604755041,2144818,0
1711604765917,1711604755081,2144942,0
1711604765917,1711604755122,2145081,0
1711604765917,1711604755161,2145315,0
1711604765917,1711604755201,2145343,0
1711604765917,1711604755242,2145437,0
1711604765917,1711604755282,2145695,0
1711604765917,1711604755323,2145700,0
1711604765917,1711604755362,2145985,0
1711604765917,1711604755402,2146190,0
1711604765917,1711604755442,2146161,0
1711604765917,1711604755483,2146060,0
1711604765917,1711604755523,2145923,0
1711604765917,1711604755563,2145963,0
1711604765917,1711604755603,2146183,0
1711604765917,1711604755643,2146409,0
1711604765917,1711604755683,2146681,0
1711604765917,1711604755724,2146821,0
1711604765917,1711604755764,2146840,0
1711604765917,1711604755804,2146905,0
1711604765917,1711604755844,2147214,0
1711604765917,1711604755884,2147360,0
1711604765917,1711604755925,2147535,0
1711604765917,1711604755965,2147761,0
1711604765917,1711604756005,2147951,0
1711604765917,1711604756045,2147966,0
1711604765917,1711604756085,2147640,0
1711604765917,1711604756126,2147593,0
1711604765917,1711604756165,2147142,0
1711604765917,1711604756205,2147213,0
1711604765917,1711604756245,2147360,0
1711604765917,1711604756285,2147521,0
1711604765917,1711604756326,2147729,0
1711604765917,1711604756366,2147825,0
1711604765917,1711604756406,2148060,0
1711604765917,1711604756446,2148276,0
1711604765917,1711604756486,2148393,0
1711604765917,1711604756527,2148868,0
1711604765917,1711604756566,2149081,0
1711604765917,1711604756606,2149113,0
1711604765917,1711604756646,2149165,0
1711604765917,1711604756686,2149051,0
1711604765917,1711604756727,2149216,0
1711604765917,1711604756767,2149359,0
1711604765917,1711604756807,2149503,0
1711604765917,1711604756847,2149716,0
1711604765917,1711604756887,2149953,0
1711604765917,1711604756928,2150224,0
1711604765917,1711604756967,2150564,0
1711604765917,1711604757007,2150689,0
1711604765917,1711604757048,2150890,0
1711604765917,1711604757087,2151307,0
1711604765917,1711604757128,2151554,0
1711604765917,1711604757168,2151976,0
1711604765917,1711604757208,2152177,0
1711604765917,1711604757248,2152358,0
1711604765917,1711604757288,2152382,0
1711604765917,1711604757329,2152618,0
1711604765917,1711604757368,2153070,0
1711604765917,1711604757408,2153525,0
1711604765917,1711604757448,2153702,0
1711604765917,1711604757488,2153954,0
1711604765917,1711604757529,2154197,0
1711604765917,1711604757569,2154414,0
1711604765917,1711604757609,2154605,0
1711604765917,1711604757649,2154938,0
1711604765917,1711604757689,2155268,0
1711604765917,1711604757730,2155529,0
1711604765917,1711604757769,2155619,0
1711604765917,1711604757809,2155711,0
1711604765917,1711604757849,2155361,0
1711604765917,1711604757890,2155434,0
1711604765917,1711604757930,2155352,0
1711604765917,1711604757970,2155401,0
1711604765917,1711604758010,2155587,0
1711604765917,1711604758050,2155851,0
1711604765917,1711604758090,2155971,0
1711604765917,1711604758131,2156121,0
1711604765917,1711604758170,2156287,0
1711604765917,1711604758210,2156316,0
1711604765917,1711604758251,2156694,0
1711604765917,1711604758290,2156772,0
1711604765917,1711604758331,2156366,0
1711604765917,1711604758371,2153344,0
1711604765917,1711604758411,2147706,0
1711604765917,1711604758451,2143314,0
1711604765917,1711604758491,2139577,0
1711604765917,1711604758532,2136886,0
1711604765917,1711604758571,2134229,0
1711604765917,1711604758612,2132466,0
1711604765917,1711604758652,2132261,0
1711604765917,1711604758692,2133020,0
1711604765917,1711604758733,2134234,0
1711604765917,1711604758772,2134791,0
1711604765917,1711604758812,2135858,0
1711604765917,1711604758852,2136998,0
1711604765917,1711604758892,2137846,0
1711604765917,1711604758933,2138368,0
1711604765917,1711604758973,2138943,0
1711604765917,1711604759012,2139149,0
1711604765917,1711604759053,2139511,0
1711604765917,1711604759093,2139876,0
1711604765917,1711604759134,2140518,0
1711604765917,1711604759173,2141414,0
1711604765917,1711604759213,2141988,0
1711604765917,1711604759253,2142391,0
1711604765917,1711604759293,2142249,0
1711604765917,1711604759334,2142231,0
1711604765917,1711604759374,2142521,0
1711604765917,1711604759414,2142816,0
1711604765917,1711604759454,2142983,0
1711604765917,1711604759494,2143153,0
1711604765917,1711604759535,2143111,0
1711604765917,1711604759574,2142800,0
1711604765917,1711604759614,2142831,0
1711604765917,1711604759654,2143079,0
1711604765917,1711604759694,2143183,0
1711604765917,1711604759735,2143340,0
1711604765917,1711604759775,2143393,0
1711604765917,1711604759815,2143734,0
1711604765917,1711604759855,2143742,0
1711604765917,1711604759895,2144101,0
1711604765917,1711604759936,2144509,0
1711604765917,1711604759975,2144617,0
1711604765917,1711604760016,2145049,0
1711604765917,1711604760056,2145291,0
1711604765917,1711604760096,2144920,0
1711604765917,1711604760137,2144556,0
1711604765917,1711604760176,2144545,0
1711604765917,1711604760216,2144832,0
1711604765917,1711604760256,2144925,0
1711604765917,1711604760297,2145484,0
1711604765917,1711604760337,2146130,0
1711604765917,1711604760377,2147726,0
1711604765917,1711604760417,2149446,0
1711604765917,1711604760457,2152357,0
1711604765917,1711604760497,2155500,0
1711604765917,1711604760538,2158763,0
1711604765917,1711604760577,2160590,0
1711604765917,1711604760617,2162009,0
1711604765917,1711604760658,2162618,0
1711604765917,1711604760698,2162142,0
1711604765917,1711604760738,2162076,0
1711604765917,1711604760778,2162094,0
1711604765917,1711604760818,2163041,0
1711604765917,1711604760858,2163654,0
1711604765917,1711604760898,2163207,0
1711604765917,1711604760939,2162722,0
1711604765917,1711604760979,2162476,0
1711604765917,1711604761019,2161342,0
1711604765917,1711604761059,2161091,0
1711604765917,1711604761099,2157135,0
1711604765917,1711604761140,2151577,0
1711604765917,1711604761179,2142309,0
1711604765917,1711604761219,2133750,0
1711604765917,1711604761260,2125577,0
1711604765917,1711604761300,2114783,0
1711604765917,1711604761340,2100088,0
1711604765917,1711604761380,2084903,0
1711604765917,1711604761420,2070414,0
1711604765917,1711604761460,2055885,0
1711604765917,1711604761500,2040741,0
1711604765917,1711604761541,2025374,0
1711604765917,1711604761580,2011521,0
1711604765917,1711604761621,1996637,0
1711604765917,1711604761661,1980533,0
1711604765917,1711604761701,1966203,0
1711604765917,1711604761742,1958348,0
1711604765917,1711604761781,1953243,0
1711604765917,1711604761821,1951400,0
1711604765917,1711604761862,1949387,0
1711604765917,1711604761902,1945507,0
1711604765917,1711604761943,1938574,0
1711604765917,1711604761982,1931285,0
1711604765917,1711604762022,1923767,0
1711604765917,1711604762062,1918767,0
1711604765917,1711604762103,1915127,0
1711604765917,1711604762143,1912580,0
1711604765917,1711604762183,1909740,0
1711604765917,1711604762223,1907038,0
1711604765917,1711604762263,1903903,0
1711604765917,1711604762303,1901767,0
1711604765917,1711604762344,1900556,0
1711604765917,1711604762383,1899540,0
1711604765917,1711604762423,1897444,0
1711604765917,1711604762464,1892874,0
1711604765917,1711604762504,1888042,0
1711604765917,1711604762545,1880515,0
1711604765917,1711604762584,1876967,0
1711604765917,1711604762624,1874080,0
1711604765917,1711604762664,1872396,0
1711604765917,1711604762705,1872093,0
1711604765917,1711604762745,1873803,0
1711604765917,1711604762785,1876874,0
1711604765917,1711604762825,1877405,0
1711604765917,1711604762865,1878887,0
1711604765917,1711604762905,1880810,0
1711604765917,1711604762946,1882806,0
1711604765917,1711604762985,1884474,0
1711604765917,1711604763025,1884817,0
1711604765917,1711604763065,1884708,0
1711604765917,1711604763105,1885972,0
1711604765917,1711604763146,1887021,0
1711604765917,1711604763185,1889321,0
1711604765917,1711604763225,1890398,0
1711604765917,1711604763265,1888774,0
1711604765917,1711604763306,1880839,0
1711604765917,1711604763346,1867458,0
1711604765917,1711604763386,1857985,0
1711604765917,1711604763426,1854539,0
1711604765917,1711604763466,1854118,0
1711604765917,1711604763506,1854257,0
1711604765917,1711604763547,1854025,0
1711604765917,1711604763586,1851754,0
1711604765917,1711604763627,1847266,0
1711604765917,1711604763667,1843011,0
1711604765917,1711604763707,1841326,0
1711604765917,1711604763747,1842653,0
1711604765917,1711604763787,1843863,0
1711604765917,1711604763827,1847132,0
1711604765917,1711604763867,1849509,0
1711604765917,1711604763907,1852821,0
1711604765917,1711604763948,1855152,0
1711604765917,1711604763987,1854689,0
1711604765917,1711604764028,1857743,0
1711604765917,1711604764068,1858563,0
1711604765917,1711604764108,1858114,0
1711604765917,1711604764149,1858038,0
1711604765917,1711604764188,1857870,0
1711604765917,1711604764228,1858599,0
1711604765917,1711604764268,1861218,0
1711604765917,1711604764308,1862271,0
1711604765917,1711604764349,1863798,0
1711604765917,1711604764389,1862496,0
1711604765917,1711604764428,1864687,0
1711604765917,1711604764469,1863946,0
1711604765917,1711604764509,1863879,0
1711604765917,1711604764550,1865538,0
1711604765917,1711604764589,1865731,0
1711604765917,1711604764629,1866430,0
1711604765917,1711604764669,1868070,0
1711604765917,1711604764709,1867988,0
1711604765917,1711604764750,1867943,0
1711604765917,1711604764789,1870161,0
1711604765917,1711604764830,1870351,0
1711604765917,1711604764870,1868063,0
1711604765917,1711604764910,1873337,0
1711604765917,1711604764951,1881132,0
1711604765917,1711604764990,1891824,0
1711604765917,1711604765030,1893242,0
1711604765917,1711604765070,1894795,0
1711604765917,1711604765111,1900270,0
1711604765917,1711604765151,1905311,0
1711604765917,1711604765191,1910591,0
1711604765917,1711604765231,1915608,0
1711604765917,1711604765271,1917040,0
1711604765917,1711604765311,1918539,0
1711604765917,1711604765352,1920245,0
1711604765917,1711604765391,1921426,0
1711604765917,1711604765432,1925914,0
1711604765917,1711604765472,1932679,0
1711604765917,1711604765512,1932782,0
1711604765917,1711604765553,1931109,0
1711604765917,1711604765593,1926423,0
1711604765917,1711604765633,1930834,0
1711604765917,1711604765673,1927825,0
1711604765917,1711604765713,1932974,0
1711604765917,1711604765754,1933237,0
1711604765917,1711604765794,1937185,0
1711604765917,1711604765834,1941470,0
1711604765917,1711604765874,1944363,0
1711604777990,1711604765918,1946977,0
1711604777990,1711604765959,1948824,0
1711604777990,1711604765999,1949679,0
1711604777990,1711604766039,1947016,0
1711604777990,1711604766079,1950014,0
1711604777990,1711604766119,1958150,0
1711604777990,1711604766160,1960234,0
1711604777990,1711604766199,1958569,0
1711604777990,1711604766239,1961025,0
1711604777990,1711604766279,1958882,0
1711604777990,1711604766320,1959813,0
1711604777990,1711604766360,1964088,0
1711604777990,1711604766400,1973564,0
1711604777990,1711604766440,1971350,0
1711604777990,1711604766480,1971726,0
1711604777990,1711604766521,1974527,0
1711604777990,1711604766562,1973924,0
1711604777990,1711604766601,1968040,0
1711604777990,1711604766641,1963775,0
1711604777990,1711604766682,1962506,0
1711604777990,1711604766722,1960772,0
1711604777990,1711604766763,1960746,0
1711604777990,1711604766803,1961997,0
1711604777990,1711604766843,1960006,0
1711604777990,1711604766883,1958284,0
1711604777990,1711604766923,1956877,0
1711604777990,1711604766964,1957698,0
1711604777990,1711604767004,1959242,0
1711604777990,1711604767044,1962154,0
1711604777990,1711604767084,1965156,0
1711604777990,1711604767124,1968146,0
1711604777990,1711604767166,1968891,0
1711604777990,1711604767205,1969348,0
1711604777990,1711604767245,1968147,0
1711604777990,1711604767286,1970148,0
1711604777990,1711604767326,1972267,0
1711604777990,1711604767367,1973114,0
1711604777990,1711604767406,1977090,0
1711604777990,1711604767446,1978535,0
1711604777990,1711604767487,1977000,0
1711604777990,1711604767527,1977208,0
1711604777990,1711604767568,1976504,0
1711604777990,1711604767608,1977845,0
1711604777990,1711604767648,1977726,0
1711604777990,1711604767688,1979730,0
1711604777990,1711604767729,1982966,0
1711604777990,1711604767770,1986092,0
1711604777990,1711604767809,1987969,0
1711604777990,1711604767849,1988684,0
1711604777990,1711604767890,1986948,0
1711604777990,1711604767929,1985560,0
1711604777990,1711604767970,1985350,0
1711604777990,1711604768010,1984328,0
1711604777990,1711604768050,1980419,0
1711604777990,1711604768090,1981472,0
1711604777990,1711604768130,1981487,0
1711604777990,1711604768171,1982387,0
1711604777990,1711604768211,1983200,0
1711604777990,1711604768251,1984766,0
1711604777990,1711604768291,1986441,0
1711604777990,1711604768331,1990356,0
1711604777990,1711604768372,1996826,0
1711604777990,1711604768411,1997506,0
1711604777990,1711604768452,1997415,0
1711604777990,1711604768492,1997650,0
1711604777990,1711604768532,1998824,0
1711604777990,1711604768573,1999678,0
1711604777990,1711604768612,1999249,0
1711604777990,1711604768652,1996484,0
1711604777990,1711604768693,1992236,0
1711604777990,1711604768733,1989195,0
1711604777990,1711604768774,1988120,0
1711604777990,1711604768813,1988020,0
1711604777990,1711604768853,1989167,0
1711604777990,1711604768894,1991592,0
1711604777990,1711604768934,1991410,0
1711604777990,1711604768975,1989395,0
1711604777990,1711604769014,1987674,0
1711604777990,1711604769054,1986362,0
1711604777990,1711604769095,1984501,0
1711604777990,1711604769135,1984640,0
1711604777990,1711604769176,1986403,0
1711604777990,1711604769215,1984258,0
1711604777990,1711604769255,1981247,0
1711604777990,1711604769296,1980471,0
1711604777990,1711604769336,1981660,0
1711604777990,1711604769377,1981433,0
1711604777990,1711604769416,1982706,0
1711604777990,1711604769457,1981385,0
1711604777990,1711604769497,1980527,0
1711604777990,1711604769537,1979271,0
1711604777990,1711604769578,1978168,0
1711604777990,1711604769618,1977849,0
1711604777990,1711604769658,1977228,0
1711604777990,1711604769698,1976788,0
1711604777990,1711604769738,1976148,0
1711604777990,1711604769779,1976072,0
1711604777990,1711604769819,1976107,0
1711604777990,1711604769859,1977261,0
1711604777990,1711604769899,1978621,0
1711604777990,1711604769940,1980239,0
1711604777990,1711604769982,1981391,0
1711604777990,1711604770021,1982466,0
1711604777990,1711604770062,1983910,0
1711604777990,1711604770102,1984174,0
1711604777990,1711604770142,1984032,0
1711604777990,1711604770183,1984110,0
1711604777990,1711604770222,1981139,0
1711604777990,1711604770263,1978923,0
1711604777990,1711604770303,1977707,0
1711604777990,1711604770343,1979225,0
1711604777990,1711604770384,1982284,0
1711604777990,1711604770424,1986217,0
1711604777990,1711604770464,1988726,0
1711604777990,1711604770504,1990814,0
1711604777990,1711604770545,1989384,0
1711604777990,1711604770585,1991091,0
1711604777990,1711604770625,1995165,0
1711604777990,1711604770665,1996774,0
1711604777990,1711604770705,1996994,0
1711604777990,1711604770746,1996907,0
1711604777990,1711604770787,1993831,0
1711604777990,1711604770826,1989352,0
1711604777990,1711604770866,1983348,0
1711604777990,1711604770907,1980022,0
1711604777990,1711604770947,1970864,0
1711604777990,1711604770988,1959401,0
1711604777990,1711604771028,1951342,0
1711604777990,1711604771068,1946392,0
1711604777990,1711604771108,1944384,0
1711604777990,1711604771148,1945246,0
1711604777990,1711604771189,1948011,0
1711604777990,1711604771229,1951512,0
1711604777990,1711604771269,1953390,0
1711604777990,1711604771309,1954125,0
1711604777990,1711604771350,1961084,0
1711604777990,1711604771390,1965112,0
1711604777990,1711604771430,1968284,0
1711604777990,1711604771470,1970067,0
1711604777990,1711604771510,1969694,0
1711604777990,1711604771550,1971047,0
1711604777990,1711604771591,1974664,0
1711604777990,1711604771631,1978376,0
1711604777990,1711604771671,1980929,0
1711604777990,1711604771711,1983305,0
1711604777990,1711604771751,1983762,0
1711604777990,1711604771792,1984636,0
1711604777990,1711604771831,1986614,0
1711604777990,1711604771872,1989059,0
1711604777990,1711604771912,1991747,0
1711604777990,1711604771952,1993957,0
1711604777990,1711604771993,1996052,0
1711604777990,1711604772032,1997583,0
1711604777990,1711604772072,1999387,0
1711604777990,1711604772113,2002022,0
1711604777990,1711604772153,2004859,0
1711604777990,1711604772194,2007209,0
1711604777990,1711604772233,2008562,0
1711604777990,1711604772273,2009480,0
1711604777990,1711604772313,2010626,0
1711604777990,1711604772354,2012092,0
1711604777990,1711604772395,2012493,0
1711604777990,1711604772434,2012746,0
1711604777990,1711604772475,2012480,0
1711604777990,1711604772515,2012481,0
1711604777990,1711604772555,2012593,0
1711604777990,1711604772596,2012584,0
1711604777990,1711604772636,2012931,0
1711604777990,1711604772676,2013594,0
1711604777990,1711604772717,2014276,0
1711604777990,1711604772757,2014889,0
1711604777990,1711604772798,2015029,0
1711604777990,1711604772837,2016083,0
1711604777990,1711604772877,2016704,0
1711604777990,1711604772918,2017484,0
1711604777990,1711604772958,2018351,0
1711604777990,1711604772999,2019174,0
1711604777990,1711604773038,2020032,0
1711604777990,1711604773079,2022698,0
1711604777990,1711604773119,2020856,0
1711604777990,1711604773159,2016994,0
1711604777990,1711604773200,2008047,0
1711604777990,1711604773240,1998578,0
1711604777990,1711604773280,1990338,0
1711604777990,1711604773320,1990470,0
1711604777990,1711604773360,1993784,0
1711604777990,1711604773401,2000854,0
1711604777990,1711604773441,2005232,0
1711604777990,1711604773483,2010949,0
1711604777990,1711604773523,2014301,0
1711604777990,1711604773564,2013012,0
1711604777990,1711604773605,2012287,0
1711604777990,1711604773644,2015184,0
1711604777990,1711604773684,2017122,0
1711604777990,1711604773725,2019726,0
1711604777990,1711604773765,2021266,0
1711604777990,1711604773806,2025147,0
1711604777990,1711604773845,2028415,0
1711604777990,1711604773885,2033621,0
1711604777990,1711604773926,2034048,0
1711604777990,1711604773966,2035085,0
1711604777990,1711604774007,2038238,0
1711604777990,1711604774047,2042447,0
1711604777990,1711604774087,2044028,0
1711604777990,1711604774127,2046219,0
1711604777990,1711604774167,2045594,0
1711604777990,1711604774208,2044771,0
1711604777990,1711604774248,2042412,0
1711604777990,1711604774288,2041420,0
1711604777990,1711604774328,2045191,0
1711604777990,1711604774369,2047601,0
1711604777990,1711604774410,2046777,0
1711604777990,1711604774449,2045508,0
1711604777990,1711604774490,2044374,0
1711604777990,1711604774530,2041663,0
1711604777990,1711604774570,2040610,0
1711604777990,1711604774611,2040418,0
1711604777990,1711604774651,2040180,0
1711604777990,1711604774691,2040793,0
1711604777990,1711604774731,2043220,0
1711604777990,1711604774771,2045730,0
1711604777990,1711604774812,2047754,0
1711604777990,1711604774852,2048932,0
1711604777990,1711604774892,2047842,0
1711604777990,1711604774932,2045067,0
1711604777990,1711604774972,2040903,0
1711604777990,1711604775013,2037485,0
1711604777990,1711604775052,2034406,0
1711604777990,1711604775093,2033077,0
1711604777990,1711604775133,2031768,0
1711604777990,1711604775173,2028439,0
1711604777990,1711604775214,2025411,0
1711604777990,1711604775254,2022429,0
1711604777990,1711604775294,2019628,0
1711604777990,1711604775334,2017497,0
1711604777990,1711604775374,2016120,0
1711604777990,1711604775415,2016153,0
1711604777990,1711604775455,2016754,0
1711604777990,1711604775495,2017198,0
1711604777990,1711604775535,2017612,0
1711604777990,1711604775575,2017953,0
1711604777990,1711604775616,2017964,0
1711604777990,1711604775656,2018339,0
1711604777990,1711604775696,2018532,0
1711604777990,1711604775736,2018097,0
1711604777990,1711604775776,2017280,0
1711604777990,1711604775817,2016421,0
1711604777990,1711604775857,2016335,0
1711604777990,1711604775897,2017183,0
1711604777990,1711604775937,2018218,0
1711604777990,1711604775978,2018810,0
1711604777990,1711604776019,2018854,0
1711604777990,1711604776058,2018608,0
1711604777990,1711604776099,2017939,0
1711604777990,1711604776139,2017177,0
1711604777990,1711604776179,2016941,0
1711604777990,1711604776220,2016979,0
1711604777990,1711604776260,2016628,0
1711604777990,1711604776300,2016149,0
1711604777990,1711604776340,2015929,0
1711604777990,1711604776380,2016182,0
1711604777990,1711604776421,2017045,0
1711604777990,1711604776462,2017871,0
1711604777990,1711604776502,2019004,0
1711604777990,1711604776542,2019652,0
1711604777990,1711604776583,2020433,0
1711604777990,1711604776624,2021052,0
1711604777990,1711604776663,2021854,0
1711604777990,1711604776704,2022476,0
1711604777990,1711604776744,2023201,0
1711604777990,1711604776784,2023488,0
1711604777990,1711604776825,2023993,0
1711604777990,1711604776865,2024273,0
1711604777990,1711604776905,2024688,0
1711604777990,1711604776945,2025301,0
1711604777990,1711604776985,2025933,0
1711604777990,1711604777026,2026380,0
1711604777990,1711604777066,2027018,0
1711604777990,1711604777106,2027568,0
1711604777990,1711604777146,2028014,0
1711604777990,1711604777186,2028600,0
1711604777990,1711604777227,2029082,0
1711604777990,1711604777267,2029665,0
1711604777990,1711604777307,2030155,0
1711604777990,1711604777347,2030350,0
1711604777990,1711604777388,2030899,0
1711604777990,1711604777429,2031103,0
1711604777990,1711604777468,2031427,0
1711604777990,1711604777508,2031849,0
1711604777990,1711604777549,2032293,0
1711604777990,1711604777589,2032596,0
1711604777990,1711604777630,2032975,0
1711604777990,1711604777669,2033110,0
1711604777990,1711604777709,2033388,0
1711604777990,1711604777749,2032223,0
1711604777990,1711604777790,2025874,0
1711604777990,1711604777830,2021201,0
1711604777990,1711604777870,2019780,0
1711604777990,1711604777910,2020297,0
1711604777990,1711604777950,2022024,0
1711604790003,1711604777989,2023677,0
1711604790003,1711604778028,2024885,0
1711604790003,1711604778067,2026916,0
1711604790003,1711604778106,2027784,0
1711604790003,1711604778145,2028634,0
1711604790003,1711604778184,2031116,0
1711604790003,1711604778223,2034138,0
1711604790003,1711604778262,2037739,0
1711604790003,1711604778301,2040418,0
1711604790003,1711604778340,2040822,0
1711604790003,1711604778379,2039756,0
1711604790003,1711604778418,2038914,0
1711604790003,1711604778457,2038539,0
1711604790003,1711604778496,2038942,0
1711604790003,1711604778535,2038805,0
1711604790003,1711604778574,2038104,0
1711604790003,1711604778613,2038133,0
1711604790003,1711604778652,2038493,0
1711604790003,1711604778691,2037282,0
1711604790003,1711604778730,2036925,0
1711604790003,1711604778769,2036290,0
1711604790003,1711604778808,2035682,0
1711604790003,1711604778848,2035094,0
1711604790003,1711604778888,2034715,0
1711604790003,1711604778928,2034570,0
1711604790003,1711604778968,2034197,0
1711604790003,1711604779008,2032742,0
1711604790003,1711604779048,2032242,0
1711604790003,1711604779088,2031464,0
1711604790003,1711604779128,2030184,0
1711604790003,1711604779168,2028961,0
1711604790003,1711604779208,2028074,0
1711604790003,1711604779248,2027991,0
1711604790003,1711604779288,2028689,0
1711604790003,1711604779328,2029085,0
1711604790003,1711604779368,2029029,0
1711604790003,1711604779408,2027870,0
1711604790003,1711604779448,2027230,0
1711604790003,1711604779488,2027117,0
1711604790003,1711604779528,2025833,0
1711604790003,1711604779568,2022435,0
1711604790003,1711604779608,2018115,0
1711604790003,1711604779648,2016061,0
1711604790003,1711604779688,2015076,0
1711604790003,1711604779728,2014538,0
1711604790003,1711604779768,2015087,0
1711604790003,1711604779808,2015725,0
1711604790003,1711604779848,2015581,0
1711604790003,1711604779888,2017016,0
1711604790003,1711604779928,2018197,0
1711604790003,1711604779968,2019337,0
1711604790003,1711604780008,2020239,0
1711604790003,1711604780048,2021576,0
1711604790003,1711604780088,2022106,0
1711604790003,1711604780128,2023009,0
1711604790003,1711604780168,2023938,0
1711604790003,1711604780208,2026468,0
1711604790003,1711604780248,2029322,0
1711604790003,1711604780288,2030524,0
1711604790003,1711604780328,2032083,0
1711604790003,1711604780368,2033591,0
1711604790003,1711604780408,2035934,0
1711604790003,1711604780448,2038799,0
1711604790003,1711604780488,2042526,0
1711604790003,1711604780528,2046766,0
1711604790003,1711604780568,2049392,0
1711604790003,1711604780608,2051151,0
1711604790003,1711604780648,2052201,0
1711604790003,1711604780688,2053065,0
1711604790003,1711604780728,2053343,0
1711604790003,1711604780768,2052637,0
1711604790003,1711604780808,2051513,0
1711604790003,1711604780848,2050460,0
1711604790003,1711604780888,2049323,0
1711604790003,1711604780928,2047895,0
1711604790003,1711604780968,2048600,0
1711604790003,1711604781008,2049372,0
1711604790003,1711604781048,2050548,0
1711604790003,1711604781088,2050006,0
1711604790003,1711604781128,2048545,0
1711604790003,1711604781168,2044970,0
1711604790003,1711604781208,2040753,0
1711604790003,1711604781248,2036322,0
1711604790003,1711604781288,2031188,0
1711604790003,1711604781328,2029970,0
1711604790003,1711604781368,2031354,0
1711604790003,1711604781408,2033188,0
1711604790003,1711604781448,2034896,0
1711604790003,1711604781488,2035830,0
1711604790003,1711604781528,2034741,0
1711604790003,1711604781568,2035833,0
1711604790003,1711604781608,2036055,0
1711604790003,1711604781648,2038643,0
1711604790003,1711604781688,2038595,0
1711604790003,1711604781728,2043142,0
1711604790003,1711604781768,2045569,0
1711604790003,1711604781808,2049781,0
1711604790003,1711604781848,2051713,0
1711604790003,1711604781888,2055642,0
1711604790003,1711604781928,2058162,0
1711604790003,1711604781968,2059531,0
1711604790003,1711604782008,2062776,0
1711604790003,1711604782048,2063718,0
1711604790003,1711604782088,2064641,0
1711604790003,1711604782128,2064362,0
1711604790003,1711604782168,2058460,0
1711604790003,1711604782208,2053656,0
1711604790003,1711604782248,2050932,0
1711604790003,1711604782288,2050382,0
1711604790003,1711604782328,2049444,0
1711604790003,1711604782368,2049471,0
1711604790003,1711604782408,2049467,0
1711604790003,1711604782448,2049438,0
1711604790003,1711604782488,2049517,0
1711604790003,1711604782528,2049162,0
1711604790003,1711604782568,2049420,0
1711604790003,1711604782608,2049170,0
1711604790003,1711604782648,2048625,0
1711604790003,1711604782688,2050321,0
1711604790003,1711604782728,2050733,0
1711604790003,1711604782768,2051412,0
1711604790003,1711604782808,2053013,0
1711604790003,1711604782848,2055452,0
1711604790003,1711604782888,2058493,0
1711604790003,1711604782928,2061432,0
1711604790003,1711604782968,2064151,0
1711604790003,1711604783008,2066730,0
1711604790003,1711604783048,2069513,0
1711604790003,1711604783088,2072023,0
1711604790003,1711604783128,2074245,0
1711604790003,1711604783168,2076369,0
1711604790003,1711604783208,2078344,0
1711604790003,1711604783248,2080214,0
1711604790003,1711604783288,2081295,0
1711604790003,1711604783328,2082283,0
1711604790003,1711604783368,2082979,0
1711604790003,1711604783408,2084000,0
1711604790003,1711604783448,2084816,0
1711604790003,1711604783488,2085994,0
1711604790003,1711604783528,2086876,0
1711604790003,1711604783568,2087750,0
1711604790003,1711604783608,2088393,0
1711604790003,1711604783648,2089076,0
1711604790003,1711604783688,2089652,0
1711604790003,1711604783728,2090466,0
1711604790003,1711604783768,2090845,0
1711604790003,1711604783808,2091167,0
1711604790003,1711604783848,2091574,0
1711604790003,1711604783888,2092001,0
1711604790003,1711604783928,2092470,0
1711604790003,1711604783968,2092982,0
1711604790003,1711604784008,2093599,0
1711604790003,1711604784048,2094018,0
1711604790003,1711604784088,2094375,0
1711604790003,1711604784128,2094950,0
1711604790003,1711604784168,2095395,0
1711604790003,1711604784208,2095975,0
1711604790003,1711604784248,2096124,0
1711604790003,1711604784288,2096274,0
1711604790003,1711604784328,2096296,0
1711604790003,1711604784368,2096348,0
1711604790003,1711604784408,2096691,0
1711604790003,1711604784448,2097207,0
1711604790003,1711604784488,2097555,0
1711604790003,1711604784528,2097767,0
1711604790003,1711604784568,2098167,0
1711604790003,1711604784608,2098479,0
1711604790003,1711604784648,2098788,0
1711604790003,1711604784688,2099235,0
1711604790003,1711604784728,2099577,0
1711604790003,1711604784768,2099611,0
1711604790003,1711604784808,2099348,0
1711604790003,1711604784848,2099340,0
1711604790003,1711604784888,2099619,0
1711604790003,1711604784928,2099860,0
1711604790003,1711604784968,2100284,0
1711604790003,1711604785008,2100598,0
1711604790003,1711604785048,2100836,0
1711604790003,1711604785088,2101406,0
1711604790003,1711604785128,2101636,0
1711604790003,1711604785168,2101091,0
1711604790003,1711604785208,2100685,0
1711604790003,1711604785248,2100558,0
1711604790003,1711604785288,2100591,0
1711604790003,1711604785328,2100220,0
1711604790003,1711604785368,2098553,0
1711604790003,1711604785408,2095540,0
1711604790003,1711604785448,2091117,0
1711604790003,1711604785488,2084625,0
1711604790003,1711604785528,2078841,0
1711604790003,1711604785568,2073956,0
1711604790003,1711604785608,2070600,0
1711604790003,1711604785648,2069208,0
1711604790003,1711604785688,2068167,0
1711604790003,1711604785728,2067366,0
1711604790003,1711604785768,2068805,0
1711604790003,1711604785808,2070772,0
1711604790003,1711604785848,2071343,0
1711604790003,1711604785888,2072262,0
1711604790003,1711604785928,2072268,0
1711604790003,1711604785968,2071855,0
1711604790003,1711604786008,2071379,0
1711604790003,1711604786048,2072690,0
1711604790003,1711604786088,2074029,0
1711604790003,1711604786128,2076021,0
1711604790003,1711604786168,2075438,0
1711604790003,1711604786208,2073994,0
1711604790003,1711604786248,2074267,0
1711604790003,1711604786288,2075193,0
1711604790003,1711604786328,2077480,0
1711604790003,1711604786368,2079671,0
1711604790003,1711604786408,2082657,0
1711604790003,1711604786448,2085110,0
1711604790003,1711604786488,2086151,0
1711604790003,1711604786528,2087650,0
1711604790003,1711604786568,2088629,0
1711604790003,1711604786608,2089273,0
1711604790003,1711604786648,2090347,0
1711604790003,1711604786688,2090561,0
1711604790003,1711604786728,2090975,0
1711604790003,1711604786768,2091608,0
1711604790003,1711604786808,2092561,0
1711604790003,1711604786848,2092986,0
1711604790003,1711604786888,2094375,0
1711604790003,1711604786928,2094959,0
1711604790003,1711604786968,2095223,0
1711604790003,1711604787008,2096013,0
1711604790003,1711604787048,2096433,0
1711604790003,1711604787088,2097102,0
1711604790003,1711604787128,2097684,0
1711604790003,1711604787168,2098545,0
1711604790003,1711604787208,2099789,0
1711604790003,1711604787248,2100448,0
1711604790003,1711604787288,2101175,0
1711604790003,1711604787328,2101913,0
1711604790003,1711604787368,2102936,0
1711604790003,1711604787408,2103773,0
1711604790003,1711604787448,2104470,0
1711604790003,1711604787488,2104908,0
1711604790003,1711604787528,2105652,0
1711604790003,1711604787568,2105828,0
1711604790003,1711604787608,2105998,0
1711604790003,1711604787648,2106277,0
1711604790003,1711604787688,2106105,0
1711604790003,1711604787728,2105499,0
1711604790003,1711604787768,2105463,0
1711604790003,1711604787808,2105536,0
1711604790003,1711604787848,2105763,0
1711604790003,1711604787888,2106100,0
1711604790003,1711604787928,2106148,0
1711604790003,1711604787968,2106511,0
1711604790003,1711604788008,2106551,0
1711604790003,1711604788048,2107569,0
1711604790003,1711604788088,2108861,0
1711604790003,1711604788128,2110295,0
1711604790003,1711604788168,2111300,0
1711604790003,1711604788208,2111790,0
1711604790003,1711604788248,2111704,0
1711604790003,1711604788288,2111330,0
1711604790003,1711604788328,2114223,0
1711604790003,1711604788368,2112405,0
1711604790003,1711604788408,2110505,0
1711604790003,1711604788448,2108038,0
1711604790003,1711604788488,2106128,0
1711604790003,1711604788528,2104580,0
1711604790003,1711604788568,2103200,0
1711604790003,1711604788608,2102686,0
1711604790003,1711604788648,2102146,0
1711604790003,1711604788688,2102029,0
1711604790003,1711604788728,2100121,0
1711604790003,1711604788768,2098954,0
1711604790003,1711604788808,2099352,0
1711604790003,1711604788848,2100764,0
1711604790003,1711604788888,2102597,0
1711604790003,1711604788928,2104107,0
1711604790003,1711604788968,2105663,0
1711604790003,1711604789008,2107209,0
1711604790003,1711604789048,2108655,0
1711604790003,1711604789088,2109570,0
1711604790003,1711604789128,2110450,0
1711604790003,1711604789168,2110931,0
1711604790003,1711604789208,2111318,0
1711604790003,1711604789248,2111584,0
1711604790003,1711604789288,2111460,0
1711604790003,1711604789328,2110336,0
1711604790003,1711604789368,2109018,0
1711604790003,1711604789408,2108177,0
1711604790003,1711604789448,2107776,0
1711604790003,1711604789488,2107700,0
1711604790003,1711604789528,2107527,0
1711604790003,1711604789568,2107406,0
1711604790003,1711604789608,2107127,0
1711604790003,1711604789648,2107117,0
1711604790003,1711604789688,2107148,0
1711604790003,1711604789728,2107398,0
1711604790003,1711604789768,2107712,0
1711604790003,1711604789808,2107582,0
1711604790003,1711604789848,2106228,0
1711604790003,1711604789888,2103975,0
1711604790003,1711604789928,2102646,0
1711604801996,1711604789966,2102323,0
1711604801996,1711604790007,2102935,0
1711604801996,1711604790046,2103547,0
1711604801996,1711604790086,2103942,0
1711604801996,1711604790126,2104363,0
1711604801996,1711604790166,2104637,0
1711604801996,1711604790207,2105172,0
1711604801996,1711604790247,2105639,0
1711604801996,1711604790287,2106001,0
1711604801996,1711604790327,2105291,0
1711604801996,1711604790367,2102859,0
1711604801996,1711604790408,2100649,0
1711604801996,1711604790447,2100046,0
1711604801996,1711604790487,2100415,0
1711604801996,1711604790527,2101118,0
1711604801996,1711604790567,2101626,0
1711604801996,1711604790608,2101883,0
1711604801996,1711604790648,2102077,0
1711604801996,1711604790688,2102490,0
1711604801996,1711604790728,2102932,0
1711604801996,1711604790768,2103613,0
1711604801996,1711604790809,2104220,0
1711604801996,1711604790848,2104665,0
1711604801996,1711604790888,2103386,0
1711604801996,1711604790928,2101086,0
1711604801996,1711604790968,2099753,0
1711604801996,1711604791009,2099754,0
1711604801996,1711604791049,2100437,0
1711604801996,1711604791089,2101176,0
1711604801996,1711604791129,2101687,0
1711604801996,1711604791169,2101963,0
1711604801996,1711604791210,2102371,0
1711604801996,1711604791249,2102861,0
1711604801996,1711604791289,2103380,0
1711604801996,1711604791329,2103909,0
1711604801996,1711604791369,2104597,0
1711604801996,1711604791410,2104405,0
1711604801996,1711604791450,2102680,0
1711604801996,1711604791490,2100873,0
1711604801996,1711604791530,2100001,0
1711604801996,1711604791570,2100427,0
1711604801996,1711604791611,2101051,0
1711604801996,1711604791650,2101861,0
1711604801996,1711604791690,2102302,0
1711604801996,1711604791730,2102457,0
1711604801996,1711604791770,2102571,0
1711604801996,1711604791811,2102980,0
1711604801996,1711604791851,2103346,0
1711604801996,1711604791891,2103881,0
1711604801996,1711604791931,2104110,0
1711604801996,1711604791971,2102596,0
1711604801996,1711604792012,2098417,0
1711604801996,1711604792051,2095646,0
1711604801996,1711604792091,2095192,0
1711604801996,1711604792131,2096427,0
1711604801996,1711604792172,2097858,0
1711604801996,1711604792212,2098392,0
1711604801996,1711604792252,2098778,0
1711604801996,1711604792292,2099088,0
1711604801996,1711604792332,2099510,0
1711604801996,1711604792372,2100130,0
1711604801996,1711604792413,2100894,0
1711604801996,1711604792452,2100926,0
1711604801996,1711604792492,2098936,0
1711604801996,1711604792532,2096375,0
1711604801996,1711604792572,2095123,0
1711604801996,1711604792613,2095287,0
1711604801996,1711604792653,2096091,0
1711604801996,1711604792693,2096897,0
1711604801996,1711604792733,2097278,0
1711604801996,1711604792773,2097388,0
1711604801996,1711604792814,2097575,0
1711604801996,1711604792853,2098004,0
1711604801996,1711604792893,2098586,0
1711604801996,1711604792933,2099163,0
1711604801996,1711604792973,2099256,0
1711604801996,1711604793014,2096957,0
1711604801996,1711604793054,2093737,0
1711604801996,1711604793094,2092075,0
1711604801996,1711604793134,2091782,0
1711604801996,1711604793174,2092527,0
1711604801996,1711604793215,2093358,0
1711604801996,1711604793254,2093991,0
1711604801996,1711604793294,2094120,0
1711604801996,1711604793335,2094214,0
1711604801996,1711604793375,2094602,0
1711604801996,1711604793416,2095132,0
1711604801996,1711604793455,2096728,0
1711604801996,1711604793495,2097986,0
1711604801996,1711604793535,2098281,0
1711604801996,1711604793575,2097926,0
1711604801996,1711604793616,2098039,0
1711604801996,1711604793656,2098369,0
1711604801996,1711604793696,2099135,0
1711604801996,1711604793736,2099530,0
1711604801996,1711604793776,2099554,0
1711604801996,1711604793817,2099246,0
1711604801996,1711604793856,2098806,0
1711604801996,1711604793896,2098726,0
1711604801996,1711604793936,2098901,0
1711604801996,1711604793976,2099150,0
1711604801996,1711604794017,2099357,0
1711604801996,1711604794057,2097757,0
1711604801996,1711604794097,2094709,0
1711604801996,1711604794137,2092377,0
1711604801996,1711604794177,2091592,0
1711604801996,1711604794218,2091646,0
1711604801996,1711604794257,2092173,0
1711604801996,1711604794297,2092684,0
1711604801996,1711604794338,2092931,0
1711604801996,1711604794377,2093285,0
1711604801996,1711604794418,2093740,0
1711604801996,1711604794458,2094415,0
1711604801996,1711604794498,2095458,0
1711604801996,1711604794538,2096003,0
1711604801996,1711604794578,2094805,0
1711604801996,1711604794619,2092226,0
1711604801996,1711604794658,2091005,0
1711604801996,1711604794698,2091193,0
1711604801996,1711604794738,2091994,0
1711604801996,1711604794779,2092835,0
1711604801996,1711604794820,2093315,0
1711604801996,1711604794859,2093428,0
1711604801996,1711604794899,2093429,0
1711604801996,1711604794939,2093919,0
1711604801996,1711604794979,2094478,0
1711604801996,1711604795020,2095046,0
1711604801996,1711604795059,2094761,0
1711604801996,1711604795099,2091917,0
1711604801996,1711604795140,2088337,0
1711604801996,1711604795180,2086852,0
1711604801996,1711604795221,2087038,0
1711604801996,1711604795260,2088130,0
1711604801996,1711604795300,2088933,0
1711604801996,1711604795340,2089526,0
1711604801996,1711604795380,2089193,0
1711604801996,1711604795421,2089023,0
1711604801996,1711604795461,2088710,0
1711604801996,1711604795501,2088726,0
1711604801996,1711604795541,2088475,0
1711604801996,1711604795581,2086059,0
1711604801996,1711604795622,2080883,0
1711604801996,1711604795661,2076612,0
1711604801996,1711604795701,2074339,0
1711604801996,1711604795742,2073872,0
1711604801996,1711604795782,2073945,0
1711604801996,1711604795822,2073779,0
1711604801996,1711604795862,2073103,0
1711604801996,1711604795902,2072332,0
1711604801996,1711604795942,2071693,0
1711604801996,1711604795982,2071351,0
1711604801996,1711604796023,2070909,0
1711604801996,1711604796062,2070511,0
1711604801996,1711604796103,2066447,0
1711604801996,1711604796143,2060948,0
1711604801996,1711604796183,2057056,0
1711604801996,1711604796224,2055209,0
1711604801996,1711604796263,2055110,0
1711604801996,1711604796303,2055336,0
1711604801996,1711604796343,2055876,0
1711604801996,1711604796384,2056158,0
1711604801996,1711604796424,2056511,0
1711604801996,1711604796464,2056756,0
1711604801996,1711604796504,2057432,0
1711604801996,1711604796544,2058474,0
1711604801996,1711604796584,2059294,0
1711604801996,1711604796625,2056865,0
1711604801996,1711604796664,2053161,0
1711604801996,1711604796705,2051403,0
1711604801996,1711604796745,2051667,0
1711604801996,1711604796785,2053219,0
1711604801996,1711604796826,2054943,0
1711604801996,1711604796865,2056463,0
1711604801996,1711604796905,2057560,0
1711604801996,1711604796945,2058486,0
1711604801996,1711604796986,2059529,0
1711604801996,1711604797027,2060597,0
1711604801996,1711604797069,2061408,0
1711604801996,1711604797106,2060532,0
1711604801996,1711604797146,2055892,0
1711604801996,1711604797186,2050053,0
1711604801996,1711604797227,2046349,0
1711604801996,1711604797266,2045092,0
1711604801996,1711604797306,2045994,0
1711604801996,1711604797346,2048406,0
1711604801996,1711604797386,2050513,0
1711604801996,1711604797427,2052236,0
1711604801996,1711604797467,2053562,0
1711604801996,1711604797507,2055006,0
1711604801996,1711604797547,2056605,0
1711604801996,1711604797587,2058201,0
1711604801996,1711604797628,2057468,0
1711604801996,1711604797667,2053136,0
1711604801996,1711604797707,2049390,0
1711604801996,1711604797747,2047733,0
1711604801996,1711604797787,2047516,0
1711604801996,1711604797828,2047811,0
1711604801996,1711604797867,2048450,0
1711604801996,1711604797907,2049155,0
1711604801996,1711604797948,2050142,0
1711604801996,1711604797988,2051326,0
1711604801996,1711604798028,2052997,0
1711604801996,1711604798068,2055068,0
1711604801996,1711604798108,2056962,0
1711604801996,1711604798148,2057532,0
1711604801996,1711604798188,2054061,0
1711604801996,1711604798229,2050423,0
1711604801996,1711604798268,2049043,0
1711604801996,1711604798309,2048951,0
1711604801996,1711604798349,2049814,0
1711604801996,1711604798389,2050895,0
1711604801996,1711604798430,2051834,0
1711604801996,1711604798469,2052427,0
1711604801996,1711604798509,2053071,0
1711604801996,1711604798549,2053923,0
1711604801996,1711604798589,2055083,0
1711604801996,1711604798630,2056391,0
1711604801996,1711604798669,2057713,0
1711604801996,1711604798709,2056685,0
1711604801996,1711604798749,2051789,0
1711604801996,1711604798790,2047758,0
1711604801996,1711604798830,2046229,0
1711604801996,1711604798870,2046269,0
1711604801996,1711604798910,2047148,0
1711604801996,1711604798950,2047866,0
1711604801996,1711604798990,2048541,0
1711604801996,1711604799031,2049106,0
1711604801996,1711604799070,2049831,0
1711604801996,1711604799110,2050620,0
1711604801996,1711604799150,2052044,0
1711604801996,1711604799191,2053410,0
1711604801996,1711604799231,2054857,0
1711604801996,1711604799274,2056009,0
1711604801996,1711604799311,2053643,0
1711604801996,1711604799351,2049416,0
1711604801996,1711604799391,2047198,0
1711604801996,1711604799432,2047186,0
1711604801996,1711604799471,2048180,0
1711604801996,1711604799511,2049503,0
1711604801996,1711604799551,2050857,0
1711604801996,1711604799591,2051786,0
1711604801996,1711604799632,2052852,0
1711604801996,1711604799672,2053988,0
1711604801996,1711604799712,2055216,0
1711604801996,1711604799752,2056657,0
1711604801996,1711604799792,2058222,0
1711604801996,1711604799833,2059584,0
1711604801996,1711604799872,2059890,0
1711604801996,1711604799912,2057815,0
1711604801996,1711604799952,2055440,0
1711604801996,1711604799992,2054660,0
1711604801996,1711604800033,2055642,0
1711604801996,1711604800072,2057074,0
1711604801996,1711604800113,2058783,0
1711604801996,1711604800153,2060050,0
1711604801996,1711604800193,2061247,0
1711604801996,1711604800234,2062364,0
1711604801996,1711604800273,2063465,0
1711604801996,1711604800313,2064626,0
1711604801996,1711604800353,2065846,0
1711604801996,1711604800393,2067074,0
1711604801996,1711604800434,2067827,0
1711604801996,1711604800474,2066863,0
1711604801996,1711604800514,2065229,0
1711604801996,1711604800554,2064771,0
1711604801996,1711604800594,2065375,0
1711604801996,1711604800635,2066706,0
1711604801996,1711604800674,2067940,0
1711604801996,1711604800714,2068925,0
1711604801996,1711604800754,2069621,0
1711604801996,1711604800794,2070182,0
1711604801996,1711604800835,2071013,0
1711604801996,1711604800874,2071753,0
1711604801996,1711604800915,2072690,0
1711604801996,1711604800955,2073521,0
1711604801996,1711604800995,2074083,0
1711604801996,1711604801036,2072976,0
1711604801996,1711604801075,2070885,0
1711604801996,1711604801115,2069733,0
1711604801996,1711604801155,2070042,0
1711604801996,1711604801196,2071062,0
1711604801996,1711604801236,2072163,0
1711604801996,1711604801276,2073107,0
1711604801996,1711604801316,2073899,0
1711604801996,1711604801356,2074534,0
1711604801996,1711604801396,2075171,0
1711604801996,1711604801437,2075948,0
1711604801996,1711604801479,2076794,0
1711604801996,1711604801516,2077709,0
1711604801996,1711604801557,2078311,0
1711604801996,1711604801596,2077202,0
1711604801996,1711604801637,2075560,0
1711604801996,1711604801677,2074573,0
1711604801996,1711604801717,2074867,0
1711604801996,1711604801757,2076001,0
1711604801996,1711604801797,2076956,0
1711604801996,1711604801838,2077707,0
1711604801996,1711604801877,2078243,0
1711604801996,1711604801917,2078937,0
1711604801996,1711604801957,2079404,0
1711604814073,1711604801999,2080049,0
1711604814073,1711604802040,2080861,0
1711604814073,1711604802080,2081599,0
1711604814073,1711604802120,2081972,0
1711604814073,1711604802160,2080808,0
1711604814073,1711604802200,2079116,0
1711604814073,1711604802241,2078302,0
1711604814073,1711604802280,2078768,0
1711604814073,1711604802320,2079670,0
1711604814073,1711604802360,2080472,0
1711604814073,1711604802401,2081210,0
1711604814073,1711604802441,2081721,0
1711604814073,1711604802481,2082251,0
1711604814073,1711604802521,2082653,0
1711604814073,1711604802561,2083354,0
1711604814073,1711604802601,2084028,0
1711604814073,1711604802642,2084744,0
1711604814073,1711604802681,2084657,0
1711604814073,1711604802722,2083198,0
1711604814073,1711604802762,2081446,0
1711604814073,1711604802802,2080969,0
1711604814073,1711604802843,2081514,0
1711604814073,1711604802882,2082496,0
1711604814073,1711604802922,2083424,0
1711604814073,1711604802962,2083962,0
1711604814073,1711604803003,2084378,0
1711604814073,1711604803043,2084917,0
1711604814073,1711604803083,2085580,0
1711604814073,1711604803123,2086353,0
1711604814073,1711604803163,2087019,0
1711604814073,1711604803203,2087663,0
1711604814073,1711604803244,2087305,0
1711604814073,1711604803283,2085584,0
1711604814073,1711604803324,2084618,0
1711604814073,1711604803364,2084746,0
1711604814073,1711604803404,2085527,0
1711604814073,1711604803445,2086492,0
1711604814073,1711604803484,2087102,0
1711604814073,1711604803524,2087469,0
1711604814073,1711604803564,2087695,0
1711604814073,1711604803604,2088032,0
1711604814073,1711604803645,2088373,0
1711604814073,1711604803685,2088889,0
1711604814073,1711604803725,2089469,0
1711604814073,1711604803765,2089416,0
1711604814073,1711604803805,2087794,0
1711604814073,1711604803846,2085903,0
1711604814073,1711604803885,2085017,0
1711604814073,1711604803925,2085418,0
1711604814073,1711604803966,2086236,0
1711604814073,1711604804006,2087078,0
1711604814073,1711604804046,2087278,0
1711604814073,1711604804086,2087701,0
1711604814073,1711604804126,2088153,0
1711604814073,1711604804166,2088609,0
1711604814073,1711604804206,2089191,0
1711604814073,1711604804247,2089723,0
1711604814073,1711604804286,2090020,0
1711604814073,1711604804327,2088353,0
1711604814073,1711604804367,2085975,0
1711604814073,1711604804407,2084874,0
1711604814073,1711604804448,2084934,0
1711604814073,1711604804487,2085586,0
1711604814073,1711604804527,2086941,0
1711604814073,1711604804567,2087368,0
1711604814073,1711604804607,2087713,0
1711604814073,1711604804648,2088127,0
1711604814073,1711604804688,2088790,0
1711604814073,1711604804728,2089685,0
1711604814073,1711604804768,2090186,0
1711604814073,1711604804808,2089549,0
1711604814073,1711604804849,2087176,0
1711604814073,1711604804888,2085049,0
1711604814073,1711604804928,2084436,0
1711604814073,1711604804968,2085066,0
1711604814073,1711604805008,2085948,0
1711604814073,1711604805049,2086488,0
1711604814073,1711604805089,2086827,0
1711604814073,1711604805129,2087179,0
1711604814073,1711604805169,2087609,0
1711604814073,1711604805209,2088187,0
1711604814073,1711604805250,2088879,0
1711604814073,1711604805289,2089567,0
1711604814073,1711604805329,2090062,0
1711604814073,1711604805369,2088980,0
1711604814073,1711604805409,2086268,0
1711604814073,1711604805450,2084562,0
1711604814073,1711604805489,2084508,0
1711604814073,1711604805530,2085300,0
1711604814073,1711604805570,2086123,0
1711604814073,1711604805610,2086747,0
1711604814073,1711604805651,2087217,0
1711604814073,1711604805690,2087495,0
1711604814073,1711604805730,2087964,0
1711604814073,1711604805770,2088533,0
1711604814073,1711604805810,2089275,0
1711604814073,1711604805851,2090080,0
1711604814073,1711604805891,2090265,0
1711604814073,1711604805930,2088644,0
1711604814073,1711604805971,2086094,0
1711604814073,1711604806011,2084783,0
1711604814073,1711604806051,2084837,0
1711604814073,1711604806091,2085725,0
1711604814073,1711604806131,2086471,0
1711604814073,1711604806171,2087154,0
1711604814073,1711604806211,2087411,0
1711604814073,1711604806252,2087863,0
1711604814073,1711604806291,2088364,0
1711604814073,1711604806331,2089040,0
1711604814073,1711604806372,2089818,0
1711604814073,1711604806411,2090569,0
1711604814073,1711604806452,2091130,0
1711604814073,1711604806492,2090079,0
1711604814073,1711604806532,2087500,0
1711604814073,1711604806572,2085693,0
1711604814073,1711604806612,2085435,0
1711604814073,1711604806653,2086065,0
1711604814073,1711604806692,2087218,0
1711604814073,1711604806732,2087954,0
1711604814073,1711604806772,2088411,0
1711604814073,1711604806812,2088955,0
1711604814073,1711604806853,2089411,0
1711604814073,1711604806893,2090156,0
1711604814073,1711604806933,2090896,0
1711604814073,1711604806973,2091977,0
1711604814073,1711604807013,2092653,0
1711604814073,1711604807054,2092927,0
1711604814073,1711604807093,2091103,0
1711604814073,1711604807133,2088977,0
1711604814073,1711604807173,2088374,0
1711604814073,1711604807214,2088971,0
1711604814073,1711604807254,2090013,0
1711604814073,1711604807294,2091118,0
1711604814073,1711604807334,2091689,0
1711604814073,1711604807374,2092301,0
1711604814073,1711604807414,2092785,0
1711604814073,1711604807455,2093393,0
1711604814073,1711604807494,2094317,0
1711604814073,1711604807534,2094947,0
1711604814073,1711604807575,2095783,0
1711604814073,1711604807615,2095893,0
1711604814073,1711604807656,2094253,0
1711604814073,1711604807695,2092373,0
1711604814073,1711604807735,2091526,0
1711604814073,1711604807775,2091913,0
1711604814073,1711604807815,2092866,0
1711604814073,1711604807856,2093698,0
1711604814073,1711604807895,2094063,0
1711604814073,1711604807936,2094277,0
1711604814073,1711604807976,2094555,0
1711604814073,1711604808016,2094966,0
1711604814073,1711604808057,2095509,0
1711604814073,1711604808096,2095904,0
1711604814073,1711604808136,2096362,0
1711604814073,1711604808176,2095584,0
1711604814073,1711604808216,2093085,0
1711604814073,1711604808257,2090615,0
