Timestamp,Cleaned_PPG
1711091961239,0.0
1711091961277,0.0
1711091961317,0.0
1711091961358,0.0
1711091961397,0.0
1711091961437,0.0
1711091961477,0.0
1711091961517,0.0
1711091961558,0.0
1711091961598,0.0
1711091961638,0.0
1711091961678,0.0
1711091961718,0.0
1711091961759,0.0
1711091961798,0.0
1711091961838,0.0
1711091961878,0.0
1711091961918,0.0
1711091961959,0.0
1711091961999,0.0
1711091962039,0.0
1711091962079,0.0
1711091962119,0.0
1711091962160,0.0
1711091962199,0.0
1711091962239,0.0
1711091962279,0.0
1711091962319,0.0
1711091962360,0.0
1711091962400,0.0
1711091962439,0.0
1711091962480,0.0
1711091962520,2092757.0
1711091962561,1963079.0301858988
1711091962600,1841810.6285631452
1711091962640,1728174.6350152355
1711091962680,1621234.5827971562
1711091962720,1521363.3992890138
1711091962761,1428622.4198442572
1711091962800,1335881.4975505546
1711091962841,1253127.6252095706
1711091962881,1174151.2964003726
1711091962921,1098131.5054469407
1711091962962,1022402.0437608943
1711091963001,950945.3799422923
1711091963041,884611.3569059032
1711091963081,823473.1829011126
1711091963121,766403.46501821
1711091963162,712525.8873968504
1711091963202,660723.2460214405
1711091963242,611736.6199419722
1711091963282,567098.0667820824
1711091963322,525165.3234188799
1711091963363,487154.29720970616
1711091963402,451179.42454397725
1711091963445,418334.9347356623
1711091963483,387998.52752009453
1711091963522,360006.9981377283
1711091963564,332694.4640568886
1711091963603,308682.1149453318
1711091963643,286214.5495564721
1711091963683,266111.25283170305
1711091963723,247315.78641236876
1711091963764,228961.76060008933
1711091963803,215928.20877162786
1711091963844,199039.90687611746
1711091963884,181851.86077845562
1711091963924,160674.20986108016
1711091963965,137869.4903493924
1711091964004,118289.43125116476
1711091964044,100078.89058324345
1711091964084,98814.33260419103
1711091964124,86178.80649145134
1711091964165,76392.63029967598
1711091964205,64244.40948665375
1711091964245,53183.83263256913
1711091964285,43771.45776750473
1711091964325,35896.501286751125
1711091964366,29069.40545671177
1711091964405,23418.625144561287
1711091964445,18265.52820915333
1711091964485,14170.919189008651
1711091964526,10144.263364484534
1711091964567,6316.144908379996
1711091964606,3073.697011737153
1711091964646,394.5776489148848
1711091964686,-1727.262643987313
1711091964726,-3645.3234064802527
1711091964767,-5381.891648313962
1711091964807,-7032.111629382707
1711091964847,-7624.392755221343
1711091964887,-8254.203869428253
1711091964927,-11696.426801185822
1711091964968,-20194.896568792406
1711091965007,-30419.037719357293
1711091965047,-38211.342219115235
1711091965087,-43002.78510514391
1711091965127,-45658.1514013689
1711091965169,-46705.27049923688
1711091965208,-48280.168326885905
1711091965248,-50116.18991450197
1711091965288,-52855.70879178913
1711091965328,-54337.693493443774
1711091965369,-54629.88439619937
1711091965408,-54197.97643959732
1711091965448,-52941.99446781073
1711091965488,-51090.45697508706
1711091965529,-49337.62314363918
1711091965570,-47308.23049265379
1711091965609,-45191.67925580684
1711091965652,-43004.477854766184
1711091965689,-40717.86451707035
1711091965729,-38565.29807089153
1711091965770,-36079.53259122651
1711091965809,-34059.8427840746
1711091965849,-31317.993020604365
1711091965890,-28697.953696320532
1711091965930,-28891.973280902486
1711091965971,-34373.95867849677
1711091966010,-41661.48064688081
1711091966050,-46222.71101146238
1711091966090,-47631.063344337046
1711091966131,-48098.80714720441
1711091966172,-47281.62086461717
1711091966211,-46881.951688703615
1711091966251,-46949.52354709292
1711091966291,-47381.30410773028
1711091966331,-47295.19716446707
1711091966372,-46193.756055844715
1711091966411,-44178.245739618316
1711091966452,-42038.098619162105
1711091966492,-39428.65518511599
1711091966532,-36782.915167478845
1711091966573,-34116.86651509558
1711091966612,-31353.792296696454
1711091966652,-29026.28863565717
1711091966692,-26627.179273597896
1711091966733,-24177.59519614745
1711091966774,-21586.251042166725
1711091966813,-19157.376416104613
1711091966853,-16682.288505473873
1711091966893,-14087.637845420511
1711091966933,-13676.377434879076
1711091966974,-17943.616677639773
1711091967013,-24078.61735812784
1711091967053,-28810.57283872785
1711091967093,-30832.175481544575
1711091967133,-30957.944747785106
1711091967174,-30549.143046664074
1711091967213,-30446.461797273718
1711091967253,-30393.550051037688
1711091967294,-30524.698420189554
1711091967334,-30236.290289877215
1711091967375,-29556.19686052832
1711091967414,-28093.48290296085
1711091967454,-26312.56655083131
1711091967494,-24122.616866387893
1711091967534,-22063.673768356442
1711091967575,-19820.906274611596
1711091967614,-17503.722011432983
1711091967654,-15478.337318063248
1711091967695,-13398.77002953738
1711091967735,-11066.935673969332
1711091967776,-8706.226088561118
1711091967815,-6426.734837565571
1711091967855,-4042.329732520506
1711091967895,-1974.8119764155708
1711091967935,-1546.647348719649
1711091967976,-5280.191266649868
1711091968015,-10925.077735173982
1711091968055,-15167.3766247991
1711091968095,-16352.8380503105
1711091968136,-16405.92706200527
1711091968177,-15801.80693000881
1711091968216,-15348.530553799588
1711091968256,-15342.867443681927
1711091968296,-15554.904035528656
1711091968336,-15118.769054877805
1711091968377,-14014.500150701962
1711091968416,-12367.755299587268
1711091968456,-10349.871244557202
1711091968496,-8303.590904896148
1711091968536,-6418.710589347873
1711091968577,-4530.185310338857
1711091968617,-2355.847206030274
1711091968657,-718.4971790635027
1711091968697,1420.6878251335584
1711091968737,3434.394542314112
1711091968778,5021.820100590587
1711091968817,6949.168753931066
1711091968857,8694.536487813573
1711091968897,10440.782542503439
1711091968937,9384.379350025207
1711091968978,4744.905612746021
1711091969018,-605.9959561992437
1711091969058,-3831.9957683719695
1711091969098,-5238.4160278765485
1711091969138,-5391.528730450431
1711091969179,-5634.704124972224
1711091969218,-5402.215600002091
1711091969258,-6025.401638176525
1711091969298,-6014.126217547804
1711091969338,-5517.147591883317
1711091969379,-4896.448309935164
1711091969419,-3632.804399373941
1711091969459,-1787.9532630685717
1711091969499,-139.11468989891
1711091969539,1262.7110645184293
1711091969580,2976.197963040555
1711091969619,4248.480672609527
1711091969659,5453.816892183386
1711091969699,6430.463541453937
1711091969739,7552.065308505669
1711091969780,9215.1413537357
1711091969819,10902.824795905966
1711091969860,11994.910344260745
1711091969900,13475.964734636713
1711091969940,13125.527533972869
1711091969981,9425.417491703294
1711091970020,4400.920166868484
1711091970060,1200.8631550963037
1711091970100,-403.43362466897815
1711091970140,-739.9423072985373
1711091970181,-831.0532634030096
1711091970221,-1294.549332122784
1711091970260,-1818.3468842438888
1711091970301,-2018.6382848317735
1711091970341,-2362.7479734700173
1711091970382,-1828.3027233923785
1711091970421,-919.2119619278237
1711091970461,687.8494219826534
1711091970501,1607.763911311049
1711091970541,2855.053031284362
1711091970583,4298.968488713726
1711091970622,5842.919114757562
1711091970662,7316.664246223634
1711091970702,8704.487015017308
1711091970742,9800.029267773964
1711091970783,11203.2449252964
1711091970822,12768.447779226117
1711091970862,14004.160293987952
1711091970902,14929.181294755079
1711091970943,12508.206157749286
1711091970984,7966.7810080500785
1711091971023,4412.328200750984
1711091971063,2696.522110622376
1711091971103,1938.1037367605604
1711091971143,2682.626550407149
1711091971184,2464.3289089344908
1711091971223,2382.2647512196563
1711091971263,1517.5020310659893
1711091971304,1649.987888425123
1711091971344,2315.5023306945805
1711091971385,3060.289610972861
1711091971424,4675.26523993304
1711091971464,3063.8690144533757
1711091971504,3738.489878617227
1711091971544,3908.442936331732
1711091971585,5523.86264927499
1711091971624,6760.241374688689
1711091971665,8271.479364654282
1711091971705,9120.56644474552
1711091971745,10516.295675222296
1711091971786,11984.729116119677
1711091971825,13490.062293049414
1711091971865,24140.832072230056
1711091971906,24363.591295498423
1711091971946,21417.555556695443
1711091971987,16252.68331386242
1711091972026,12514.707938381704
1711091972066,10383.176355022239
1711091972106,9632.60259227734
1711091972146,9559.020864248276
1711091972187,9130.697684062645
1711091972226,8519.462875247002
1711091972267,7934.021309422562
1711091972307,7333.681785317138
1711091972347,7531.571912881453
1711091972388,7809.383220358286
1711091972427,8458.332810533931
1711091972467,9746.545640270924
1711091972507,10467.03577844752
1711091972547,11495.052313700318
1711091972588,12357.485558934277
1711091972628,13302.868296762696
1711091972668,14295.708276306512
1711091972708,15298.875054794364
1711091972748,19364.570709365653
1711091972789,21365.217311328743
1711091972828,23266.989447898464
1711091972869,23860.0031534906
1711091972909,24638.274339133874
1711091972949,24619.645780485123
1711091972990,21633.380952957086
1711091973029,17542.1366433925
1711091973069,14025.563478476368
1711091973109,12357.630394654348
1711091973149,2446.0686420639977
1711091973190,2062.9937189379707
1711091973230,2041.8172811057884
1711091973325,1756.7072379016317
1711091973365,901.755994376028
1711091973405,1008.4633659883402
1711091973446,1134.9449440087192
1711091973485,1521.8855155280326
1711091973525,2550.7331281942315
1711091973565,3277.6659760857
1711091973606,4359.233488263097
1711091973647,5551.073246139102
1711091973686,6442.169301834889
1711091973726,7152.276354696136
1711091973766,8096.982912184205
1711091973806,9053.158028231934
1711091973847,10444.157025083667
1711091973887,11686.165235899389
1711091973927,12760.449422097998
1711091973967,13196.513662465848
1711091974007,14663.898094854085
1711091974048,14223.093705372652
1711091974087,11179.161290637916
1711091974127,7533.824287949596
1711091974167,5235.279417424928
1711091974207,4615.99097079318
1711091974249,4550.893989465199
1711091974288,4877.444390591234
1711091974328,5188.227175820619
1711091974368,4739.774428227218
1711091974408,4586.557040988468
1711091974449,4690.992082549492
1711091974488,5396.73081209464
1711091974528,6319.66339729866
1711091974568,7023.874131354503
1711091974609,8015.187531863339
1711091974649,9331.618768323213
1711091974689,9938.839121075347
1711091974729,11005.461356570479
1711091974769,12226.10411509825
1711091974809,13230.19142608298
1711091974850,14237.464251358295
1711091974889,15148.830924988724
1711091974929,15993.037704944145
1711091974969,17125.26142654731
1711091975009,18034.947920399252
1711091975050,19218.7974250298
1711091975090,17659.32541537052
1711091975130,13944.14631464472
1711091975170,10839.051201603375
1711091975210,9196.857978624292
1711091975251,9086.158125668298
1711091975290,9236.605927985627
1711091975330,9573.630706308875
1711091975370,10121.694248544052
1711091975410,9627.864855695982
1711091975452,9184.751872976543
1711091975491,9252.230835948605
1711091975531,10297.10926274769
1711091975571,10977.991301739588
1711091975611,11688.441159168258
1711091975652,12418.00382600585
1711091975691,13335.26454728609
1711091975731,14135.517495049397
1711091975771,15321.883192395326
1711091975812,16036.610934499186
1711091975853,16801.421588191297
1711091975892,17856.302002528915
1711091975932,18849.483909240924
1711091975972,20182.47381353518
1711091976012,20835.390555375256
1711091976053,21496.0115514833
1711091976092,22010.913911653217
1711091976132,20595.7202330851
1711091976173,17271.63395717647
1711091976213,14047.291543670464
1711091976253,11931.300387730822
1711091976293,12080.86901484779
1711091976333,11889.060801090905
1711091976373,11890.867553194286
1711091976413,12255.925939575303
1711091976454,11803.990713408682
1711091976493,11498.586855099536
1711091976534,11560.62520250585
1711091976574,11705.31580376951
1711091976614,11957.862715298543
1711091976655,12234.185106813908
1711091976694,13124.300158168888
1711091976734,13909.281599848066
1711091976774,14439.378853176255
1711091976814,14889.222832850879
1711091976855,15271.0692763892
1711091976895,15070.514898174908
1711091976935,15220.055982532911
1711091976975,15806.827312083915
1711091977016,16661.215474275406
1711091977056,16623.283821682213
1711091977096,17534.151717832312
1711091977136,17780.800548530184
1711091977176,17058.913027551724
1711091977216,14007.587287784088
1711091977258,10708.450401315931
1711091977297,9184.177310114726
1711091977337,8693.329836167628
1711091977378,8673.823488442693
1711091977418,8679.698736241786
1711091977459,8307.045972499298
1711091977499,8204.181341572898
1711091977539,7916.869279975072
1711091977580,7006.920337585732
1711091977620,7077.621757334564
1711091977661,7508.775116582634
1711091977700,8202.264639911707
1711091977741,9258.084222484846
1711091977781,8377.148330358556
1711091977821,10458.216804830125
1711091977862,12182.134986805264
1711091977902,14127.127790026832
1711091977942,14970.047943753656
1711091977982,15376.528850901406
1711091978022,15622.230197923258
1711091978063,16082.23331365548
1711091978103,16704.876503920183
1711091978143,16911.174926814158
1711091978183,15442.967984921765
1711091978224,12552.803347527515
1711091978265,9307.801972410642
1711091978304,7402.55878619384
1711091978345,7322.434104022104
1711091978385,6738.748516092077
1711091978425,6788.55011936184
1711091978466,6014.045787441079
1711091978505,5032.888869874179
1711091978546,4240.477169564925
1711091978586,3995.7696598903276
1711091978626,4398.128359125927
1711091978667,4762.530056222109
1711091978707,5620.723115601577
1711091978747,6081.594713800587
1711091978787,6444.2282222975045
1711091978828,7385.383401669562
1711091978869,8095.302957892418
1711091978910,8928.849064596696
1711091978950,9395.616903060582
1711091978990,10086.645174099132
1711091979030,10468.625230980804
1711091979071,12631.461886865553
1711091979111,11632.44568336429
1711091979151,8772.215072721941
1711091979191,4450.46486655483
1711091979231,605.0538167250343
1711091979272,-1014.8642372209579
1711091979312,-1583.45969934389
1711091979352,-1426.0954435640015
1711091979392,-1560.5392934889533
1711091979432,-1761.1525425449945
1711091979473,-2233.6176672694273
1711091979512,-2733.7722067558207
1711091979553,-2532.1822524871677
1711091979593,-2428.0838201669976
1711091979633,-1887.8631527884863
1711091979674,-1167.2794900664594
1711091979713,37.24119998048991
1711091979754,793.6885764212348
1711091979794,1673.2389624014031
1711091979834,2974.689262902364
1711091979875,3393.055871869903
1711091979915,3600.194824332837
1711091979955,4336.641635574866
1711091979995,4823.604324505664
1711091980035,6083.329863377381
1711091980077,7255.099013677565
1711091980116,5255.026361639844
1711091980157,1712.7242484488524
1711091980197,-1491.987999849487
1711091980237,-3209.2125310846604
1711091980278,-4209.677296256181
1711091980318,-4725.136055997107
1711091980358,-4622.001955382759
1711091980398,-5035.665731516667
1711091980438,-5727.531266832491
1711091980479,-6219.812458667671
1711091980519,-6123.669243990909
1711091980559,-5538.862893747166
1711091980599,-4709.73517154716
1711091980640,-3992.8157814578153
1711091980681,-2722.8262283399235
1711091980720,-2066.561591546051
1711091980761,-1616.6369079058059
1711091980801,-687.0015417109244
1711091980841,-176.35060979658738
1711091980882,1075.0251977723092
1711091980921,1656.5917098440696
1711091980962,2702.037547819782
1711091981002,3762.1642907401547
1711091981042,3138.367799660191
1711091981083,697.7327719898894
1711091981123,-3004.817800053861
1711091981163,-4990.030444433214
1711091981203,-5503.335960035212
1711091981243,-4989.563803805038
1711091981284,-4677.34732475155
1711091981324,-5225.298818174284
1711091981364,-5704.133072734578
1711091981404,-6284.72145323921
1711091981444,-6145.2599086142145
1711091981486,-5868.1965247213375
1711091981525,-5270.834782863036
1711091981565,-4278.9623737595975
1711091981606,-3393.110948213376
1711091981646,-2558.447958907811
1711091981687,-2039.1162584058475
1711091981726,-1336.5155074503273
1711091981767,-495.7638618624769
1711091981807,774.4670428594109
1711091981847,1524.9797256174497
1711091981888,2083.619864168577
1711091981927,2985.5423057740554
1711091981968,2777.007564256899
1711091982008,213.16024540457875
1711091982048,-2825.6851207548752
1711091982089,-5440.5561825116165
1711091982128,-6638.971548004542
1711091982169,-7103.604109045351
1711091982209,-7107.788478141185
1711091982249,-7079.54341932619
1711091982290,-7960.478711816482
1711091982329,-8203.208979705349
1711091982369,-8277.01777809998
1711091982410,-7409.230391576653
1711091982450,-6789.355863262899
1711091982491,-5733.838723007822
1711091982530,-5289.049775447696
1711091982570,-4280.145595226437
1711091982610,-3170.9689755430445
1711091982651,-2586.4447650702205
1711091982692,-1547.0505871991627
1711091982731,-560.3539207093418
1711091982771,661.9856900232844
1711091982811,1359.1336704371497
1711091982852,2932.7552704361733
1711091982892,4161.1527922535315
1711091982932,2833.687548900023
1711091982972,-83.47866240958683
1711091983012,-3190.098433041014
1711091983053,-4467.862545587122
1711091983093,-5411.980862707365
1711091983133,-5885.937614122871
1711091983173,-5243.031430124305
1711091983213,-5249.2505944562145
1711091983254,-5515.115934021538
1711091983295,-5768.259238083148
1711091983334,-5726.259696152993
1711091983374,-5179.499998435378
1711091983415,-4133.146924685454
1711091983455,-3351.6326863931026
1711091983496,-2188.2060911480803
1711091983536,-1390.6121897746343
1711091983576,-238.60982999834232
1711091983616,1012.7211269303225
1711091983656,1614.0842133932747
1711091983697,2244.109676647
1711091983737,3056.971547758905
1711091983777,3881.029198058415
1711091983817,5474.684893990634
1711091983857,5389.356277537765
1711091983899,2795.1394826648757
1711091983938,-191.1080317706801
1711091983978,-3328.56996631925
1711091984019,-4357.559190828353
1711091984059,-4959.754893185338
1711091984100,-4371.816971867811
1711091984139,-4507.784606097732
1711091984180,-4825.100586987566
1711091984220,-5042.19564370485
1711091984260,-5326.575957770459
1711091984301,-4969.6810699088965
1711091984340,-4766.915990119334
1711091984381,-4086.86763563985
1711091984421,-2914.72463504551
1711091984461,-1920.2384256743826
1711091984502,-478.895849482622
1711091984542,500.5982067747973
1711091984582,1660.402610490797
1711091984622,2798.943865747424
1711091984663,3945.227667359868
1711091984704,4473.439155641943
1711091984743,5750.998267829418
1711091984783,7220.517572717741
1711091984824,6356.892577602528
1711091984864,3365.193798805587
1711091984905,-13.320084306411445
1711091984944,-1404.5190422055312
1711091984985,-1838.504048903007
1711091985025,-1533.7073916308582
1711091985065,-1031.1853422939312
1711091985106,-1039.1218254989944
1711091985146,-1325.436193880625
1711091985186,-833.5592520856299
1711091985226,-556.2809213567525
1711091985266,1518.659745606361
1711091985307,2466.0899290556554
1711091985347,3510.6921107559465
1711091985381,4359.0119802756235
1711091985421,5463.057312042918
1711091985461,6124.317013995256
1711091985502,7257.880902469624
1711091985541,7895.6957877997775
1711091985581,8979.438863324234
1711091985621,9713.936673667748
1711091985661,10351.384006715147
1711091985702,10397.493031739723
1711091985741,7917.225830801297
1711091985782,3599.1492926161736
1711091985822,843.917287214892
1711091985862,-352.41022724448703
1711091985902,-1221.7769579633605
1711091985942,-1727.0432614176534
1711091985982,-1279.845810774481
1711091986022,-1875.8972116294317
1711091986062,-2511.396448745858
1711091986103,-2599.1656211148947
1711091986142,-2516.466135018505
1711091986183,-1613.7635466367938
1711091986223,-1080.381850992795
1711091986263,-262.82318257074803
1711091986304,408.86571705318056
1711091986343,1463.6042178133503
1711091986383,2271.800130580552
1711091986423,3114.4246799033135
1711091986463,3705.0599149351474
1711091986504,4543.767219655216
1711091986543,5041.721472274512
1711091986583,5890.680952155264
1711091986623,7035.630135587882
1711091986664,6218.033227517735
1711091986704,3515.4534537792206
1711091986744,202.44798257108778
1711091986784,-1885.5290859958623
1711091986824,-2262.6943311127834
1711091986864,-2985.8642324511893
1711091986905,-2686.271314245183
1711091986944,-2597.9402714557946
1711091986984,-3170.287643615622
1711091987024,-3507.1368301557377
1711091987064,-2805.6627435768023
1711091987105,-2942.505025050137
1711091987145,-2480.0929565089755
1711091987185,-1671.8451885376126
1711091987225,-332.5456711887382
1711091987265,763.0295859952457
1711091987306,1863.3711887462996
1711091987345,2807.959590663202
1711091987385,3358.4086735509336
1711091987425,4146.994012592593
1711091987465,5121.201627622126
1711091987506,5468.676390550332
1711091987546,6677.092474467354
1711091987586,6492.008619985776
1711091987626,4014.2601303679403
1711091987666,1142.3232148212846
1711091987707,-979.148856228916
1711091987746,-2146.673534110887
1711091987786,-2061.3243803158402
1711091987826,-1421.6861033043824
1711091987867,-1262.2994704006705
1711091987907,-1785.2307242937386
1711091987947,-1800.299456330249
1711091987987,-2276.5880024475046
1711091988027,-1720.163128921762
1711091988067,-1023.7435900617857
1711091988108,-192.5806696419604
1711091988147,1208.2231979924254
1711091988187,1974.265330675058
1711091988227,2844.164104471216
1711091988267,4029.7957691510674
1711091988308,4727.5667363216635
1711091988348,5514.250381307676
1711091988388,6860.6746200460475
1711091988428,7626.309677821817
1711091988468,8204.449116790434
1711091988509,9081.022059829673
1711091988548,6690.4218574527185
1711091988588,3234.5008833571337
1711091988628,-27.012640122091398
1711091988668,-1788.4509085509926
1711091988709,-2158.967679091729
1711091988749,-2517.0199245621916
1711091988789,-1855.646475874586
1711091988829,-1739.5229900958948
1711091988869,-2475.1498379404657
1711091988910,-2936.9060631592292
1711091988949,-3101.3670553225093
1711091988989,-2899.292197705712
1711091989029,-2104.3957718084566
1711091989070,-1024.5925284435507
1711091989110,-442.30231681093574
1711091989150,729.7279555948917
1711091989190,1363.1460874993354
1711091989230,1550.1344316229224
1711091989270,2480.468933674274
1711091989311,3196.582486338215
1711091989350,3890.116994108539
1711091989390,4327.949039650848
1711091989431,5406.558459053282
1711091989471,5955.367998838425
1711091989511,3727.3672040314414
1711091989551,442.4005508478731
1711091989591,-2191.805247021839
1711091989631,-3568.047772276448
1711091989671,-3999.256451668218
1711091989712,-3438.1233080774546
1711091989751,-2847.6820620244835
1711091989792,-3256.4645875389688
1711091989832,-3441.8077300586738
1711091989872,-3245.752303035464
1711091989913,-2839.3433260740712
1711091989952,-2460.2406295270193
1711091989992,-1302.6439910596237
1711091990032,-76.48696238663979
1711091990072,449.3801329105627
1711091990113,1683.4785870541818
1711091990153,2211.391117241932
1711091990193,3844.620624715928
1711091990233,5235.9132414634805
1711091990273,6213.347020584624
1711091990314,7476.164113718551
1711091990353,8922.245560323587
1711091990393,9276.366887169657
1711091990433,6866.9361801953055
1711091990474,3903.3952441872098
1711091990515,2011.9771192693152
1711091990554,1199.901919127442
1711091990594,884.4727776676882
1711091990634,1104.0953969021793
1711091990674,1149.0076153525151
1711091990715,513.0146386073902
1711091990755,-1188.604880897561
1711091990795,-1632.0227544135414
1711091990835,-2370.553314439254
1711091990875,-2836.5438744686544
1711091990916,-1557.5933062932454
1711091990955,-1591.7029927799013
1711091990995,-1441.8412594413385
1711091991035,-551.0408118106425
1711091991076,472.6110226889141
1711091991117,1219.8470190633088
1711091991156,2384.73065654072
1711091991196,3350.1579446527176
1711091991236,5245.852225132985
1711091991276,6898.89921073569
1711091991317,7451.632772373036
1711091991357,6549.326178623596
1711091991397,4297.236318128649
1711091991438,2696.469727937132
1711091991478,1774.474616764579
1711091991519,1979.1860794937238
1711091991558,2420.2264345111325
1711091991598,2005.2931386767887
1711091991638,1139.341485204408
1711091991678,734.7510699927807
1711091991719,-243.96463862457313
1711091991759,-317.58298080274835
1711091991799,-1522.41743397573
1711091991839,-2761.867189052049
1711091991879,-4035.2657334697433
1711091991920,-4690.18247319106
1711091991959,-5234.024626972852
1711091991999,-5382.314671596279
1711091992040,-4557.437311416725
1711091992080,-4270.904808548978
1711091992120,-3725.1761174446438
1711091992160,-2642.813059710432
1711091992200,-2251.472594389459
1711091992240,-973.1016221013851
1711091992280,-2538.196928575635
1711091992321,-6423.116570621729
1711091992360,-10298.907941829413
1711091992400,-12254.87980844779
1711091992441,-12693.236210536677
1711091992481,-13159.852318412159
1711091992521,-13487.620383725967
1711091992561,-13497.562302374048
1711091992601,-14173.401397132315
1711091992641,-13635.645984400064
1711091992681,-13213.296682398533
1711091992722,-12009.485782820731
1711091992761,-10653.269329734147
1711091992801,-9499.433712091297
1711091992841,-8585.447960752994
1711091992881,-7252.028656347189
1711091992922,-6465.871640310157
1711091992962,-5785.51263519167
1711091993002,-4958.003234501928
1711091993042,-4062.93799071759
1711091993082,-3069.3420075410977
1711091993123,-1574.58057371201
1711091993162,647.9709073435515
1711091993202,-414.8389212163165
1711091993242,-4018.6496052148286
1711091993283,-8704.67484386568
1711091993323,-11974.244011867326
1711091993363,-13134.718960299157
1711091993403,-13851.150917430874
1711091993443,-13404.23158885073
1711091993483,-13144.349754665047
1711091993524,-13593.587886729743
1711091993563,-14302.597754717804
1711091993603,-14407.303146267775
1711091993643,-13691.241715827491
1711091993683,-12812.273389291484
1711091993724,-12371.370994311525
1711091993764,-10968.213392812526
1711091993804,-9713.696460123872
1711091993844,-8121.505048633786
1711091993884,-6605.029679778963
1711091993925,-5236.967091260012
1711091993964,-3893.195197240915
1711091994004,-2680.4970534406602
1711091994044,-1546.953138904646
1711091994084,-37.42200381541625
1711091994125,-1518.505151196383
1711091994165,-4772.341532800114
1711091994205,-7976.650534445187
1711091994245,-10272.850288571324
1711091994285,-10562.253739046399
1711091994326,-10298.951336719561
1711091994365,-9473.905504011549
1711091994405,-9736.197804769501
1711091994445,-10300.4650592939
1711091994485,-10286.544002458919
1711091994526,-10046.68922694563
1711091994566,-9240.49473523302
1711091994606,-8977.095512629952
1711091994646,-8164.537967483746
1711091994686,-7148.843728181906
1711091994727,-6832.198119581211
1711091994766,-6310.781103215646
1711091994806,-5275.43674582988
1711091994847,-3661.330442239996
1711091994887,-2386.521202757256
1711091994927,-643.1303279711865
1711091994967,342.6240213501733
1711091995007,-1664.4306092667393
1711091995047,-5981.888300238876
1711091995087,-9781.517354721436
1711091995128,-11965.809261783725
1711091995167,-12449.393188877031
1711091995208,-12193.943905731197
1711091995248,-11482.838003557175
1711091995288,-11131.328369191848
1711091995329,-11266.592905268539
1711091995368,-11414.672993445769
1711091995408,-11096.193596221041
1711091995448,-10257.438734781463
1711091995488,-9182.229720394826
1711091995529,-7606.101298931288
1711091995569,-6439.177941113245
1711091995608,-4895.024322701385
1711091995649,-3745.6323916986585
1711091995689,-2519.3374337917194
1711091995730,-1740.4473368232138
1711091995769,-622.7422546693124
1711091995809,663.0064157363959
1711091995849,2016.0402594092302
1711091995889,1794.0626032068394
1711091995930,-1828.246919919271
1711091995969,-6293.47345963004
1711091996010,-9470.1270899761
1711091996050,-10684.788649855182
1711091996090,-11229.516382428585
1711091996131,-11073.092799271457
1711091996170,-11373.907279731706
1711091996210,-11932.286223425064
1711091996250,-12594.444334827363
1711091996291,-12854.132291412912
1711091996331,-12205.552038561553
1711091996371,-11123.734929448692
1711091996411,-10318.479564723559
1711091996451,-8871.470250304788
1711091996491,-7928.504828160163
1711091996532,-7077.579775813967
1711091996571,-5718.900187446037
1711091996612,-4559.358351792442
1711091996652,-3348.228148879716
1711091996692,-2411.850265073823
1711091996733,-1197.7434761920013
1711091996772,566.6071176989935
1711091996812,-848.9853216956835
1711091996852,-4541.385065428447
1711091996893,-8788.517432169756
1711091996934,-11299.22486137785
1711091996973,-12034.338506474625
1711091997013,-12118.716208730359
1711091997053,-11818.721468837233
1711091997094,-11907.584134532604
1711091997135,-12579.630914647598
1711091997174,-12830.439436419867
1711091997214,-12741.035696099512
1711091997255,-12395.499229348497
1711091997295,-11074.571574134286
1711091997336,-9730.279347735457
1711091997376,-8489.495154559147
1711091997418,-7410.902640503133
1711091997458,-5878.9712785787415
1711091997498,-5063.587401512312
1711091997539,-3807.6561895511113
1711091997578,-2698.1556584779173
1711091997618,-2004.9863702771254
1711091997658,-1056.2171754590236
1711091997699,658.7407172091771
1711091997739,636.223785537295
1711091997779,-1691.7693610247225
1711091997819,-5301.438097564504
1711091997859,-8394.334857882
1711091997899,-9690.520490424708
1711091997940,-10193.563511792105
1711091997980,-9814.186835345346
1711091998020,-9513.202390311519
1711091998060,-9889.119792042766
1711091998100,-9915.71963385446
1711091998141,-9785.81928185164
1711091998180,-9214.45081953751
1711091998221,-8316.496655961266
1711091998261,-7209.696401619818
1711091998301,-5771.55638450617
1711091998342,-4226.5633661779575
1711091998381,-2118.4737078757025
1711091998421,-1079.5127074015327
1711091998461,-2.9238170380704105
1711091998501,1238.2883002569433
1711091998542,2802.9513176828623
1711091998581,4155.158834582195
1711091998621,3995.18562702043
1711091998661,1031.6405519591644
1711091998702,-3014.7049467391334
1711091998742,-5659.653121538693
1711091998782,-6672.433725593146
1711091998822,-6709.384741724934
1711091998862,-6057.874521837337
1711091998902,-5312.871605234221
1711091998943,-5231.374825625448
1711091998982,-5792.145007651765
1711091999022,-5634.3012268194
1711091999062,-4968.69806894986
1711091999102,-4290.161774414359
1711091999143,-3454.2330876104534
1711091999183,-1856.3173131635413
1711091999223,-504.49340568552725
1711091999263,802.4071807230357
1711091999303,2193.745199756231
1711091999344,3314.4174468114506
1711091999383,4399.335385701386
1711091999423,5590.782975067152
1711091999463,6759.000741357915
1711091999503,8501.278155452572
1711091999544,7790.533716481645
1711091999584,4334.46228587674
1711091999624,101.07368936180137
1711091999664,-2235.5041091872845
1711091999704,-2993.747260105796
1711091999745,-3659.8091248951387
1711091999784,-3641.2682276898995
1711091999824,-3631.0300750413444
1711091999864,-4141.277874372201
1711091999904,-5142.013847231399
1711091999945,-5073.108821977628
1711091999985,-4412.853300022427
1711092000025,-3774.784161482472
1711092000065,-2704.29044979997
1711092000105,-1690.8649957296439
1711092000146,-196.55279101757333
1711092000185,786.9337773288134
1711092000225,2336.7311238017865
1711092000265,3748.706396185793
1711092000305,5052.599910283927
1711092000346,6583.229709345382
1711092000386,8146.283613081556
1711092000426,9449.220118890516
1711092000466,10560.069878572365
1711092000506,8870.035305699334
1711092000547,5237.694339755923
1711092000586,1790.703630911652
1711092000626,168.08736101095565
1711092000666,-422.44128021551296
1711092000706,-675.0210423036478
1711092000747,-409.84175534103997
1711092000787,-765.030728566926
1711092000827,-766.2421672490891
1711092000867,-640.9113616272807
1711092000907,-1046.371316511184
1711092000948,-602.7326795258559
1711092000987,804.4498097496107
1711092001027,2145.6845479931217
1711092001067,3483.0528331808746
1711092001107,4551.435070747975
1711092001148,5881.653652897105
1711092001187,6991.721980806207
1711092001228,7894.924546129303
1711092001268,8385.516004835255
1711092001308,9598.091761737596
1711092001349,10342.156021262752
1711092001388,11530.44578291662
1711092001428,12639.301129546016
1711092001468,11238.238670701627
1711092001508,8031.34058299195
1711092001549,4842.184612960089
1711092001589,3202.938371607801
1711092001629,2537.549030534923
1711092001669,2862.4497081674635
1711092001709,3305.8434549085796
1711092001750,3232.862219163915
1711092001789,3260.076129492838
1711092001829,2871.8761588556226
1711092001869,3280.277909809258
1711092001909,3861.035223595798
1711092001950,4852.797758985311
1711092001990,5704.190789035987
1711092002030,6701.041201824322
1711092002070,7514.505777289625
1711092002110,8473.183494525962
1711092002151,9000.658427535789
1711092002190,10265.066708135884
1711092002230,11577.316731528146
1711092002270,12301.547555712052
1711092002310,12719.90848519979
1711092002351,13690.42478036927
1711092002391,14310.104161219904
1711092002431,11996.263567391085
1711092002471,8607.105271641864
1711092002511,6030.407923486549
1711092002552,5206.658695681952
1711092002591,5121.76373650739
1711092002631,5767.28206250607
1711092002671,6166.969350825995
1711092002711,5699.504473350942
1711092002752,5244.1709464914165
1711092002792,5138.536170284031
1711092002832,5436.71343735652
1711092002872,6051.054399505025
1711092002912,6852.1941404475365
1711092002953,8088.5083193802275
1711092002992,9222.26603561826
1711092003033,9716.288910202216
1711092003073,10179.780083152233
1711092003113,11170.794577982277
1711092003154,11900.469473890029
1711092003193,12446.96865661256
1711092003233,13097.58095132513
1711092003273,13585.395658391993
1711092003313,14382.481268378906
1711092003354,14848.154285924044
1711092003394,12064.667973515578
1711092003434,8256.428335355828
1711092003474,5267.190515440656
1711092003514,3801.7198852808215
1711092003555,3402.8486897407565
1711092003595,2996.8132434948348
1711092003635,3137.906966750277
1711092003675,2817.3532076932024
1711092003716,1986.5238212600816
1711092003757,1818.575677251909
1711092003796,2190.8622038108297
1711092003837,2865.863081211224
1711092003877,3238.3587673681322
1711092003917,4127.843852010788
1711092003958,4614.981744694058
1711092003998,5864.298398469575
1711092004038,7018.044678386534
1711092004078,7999.723560883896
1711092004118,9263.260849002982
1711092004159,10403.287570399232
1711092004199,11660.657862912863
1711092004239,12102.855983732734
1711092004279,12765.428239325061
1711092004319,13630.577971819323
1711092004361,11818.506972386967
1711092004400,8612.423425811809
1711092004440,5364.07731537777
1711092004481,3805.271613942692
1711092004521,3248.4518462684937
1711092004562,3607.8243097884115
1711092004601,3785.0013370676897
1711092004641,3348.4452632111497
1711092004681,3189.86274479609
1711092004722,2949.138410503976
1711092004763,2890.882909923559
1711092004802,3090.0660408651456
1711092004842,3125.7687482968904
1711092004882,4315.367385235615
1711092004923,4773.992660008138
1711092004963,5417.898384714266
1711092005003,6499.875607072841
1711092005043,7114.628889287589
1711092005083,7333.969995827414
1711092005123,7906.636232827092
1711092005164,8561.908480651211
1711092005204,8663.245731376112
1711092005244,10095.232805326115
1711092005284,10653.716997195734
1711092005324,8423.741649295669
1711092005365,5036.588128316216
1711092005404,2157.1472545827273
1711092005445,256.20488064014353
1711092005485,-716.282842046814
1711092005525,-526.4175698889885
1711092005566,5.5822825180366635
1711092005605,19.5004048300907
1711092005645,-471.668672273634
1711092005686,-686.8667131345719
1711092005726,-516.6199481049553
1711092005767,-153.59510742174461
1711092005807,645.4724589367397
1711092005847,1816.0954498439096
1711092005887,2625.5767196235247
1711092005927,3624.957364810165
1711092005968,4639.754387672758
1711092006007,5749.17825499177
1711092006048,6748.138123933226
1711092006088,6736.924778686138
1711092006128,7640.154184073675
1711092006169,8632.722520392388
1711092006209,7673.961116797756
1711092006249,4868.798965455266
1711092006289,1546.3905405676924
1711092006329,-708.3621472194791
1711092006370,-1414.0790505283512
1711092006410,-1472.4112142845988
1711092006450,-895.1016406537965
1711092006490,-614.6289923624136
1711092006531,-1538.2339130016044
1711092006572,-2087.7522724885494
1711092006611,-2199.1617294191383
1711092006652,-1652.006210057065
1711092006692,-1330.9281285575125
1711092006732,-526.9735586827155
1711092006773,354.6403662203811
1711092006813,1327.8605498084798
1711092006853,2051.019942764193
1711092006893,3014.771062306594
1711092006933,3920.5164143471047
1711092006974,4814.713783081155
1711092007014,5591.545995019376
1711092007054,6280.09145285259
1711092007094,7271.81017832295
1711092007135,5212.092047313694
1711092007176,1965.3845861016307
1711092007215,-2043.5106917498633
1711092007255,-4624.8269808064215
1711092007296,-5565.306438454427
1711092007336,-6042.442237576004
1711092007377,-5262.876446050825
1711092007416,-5730.440984167624
1711092007457,-6609.797897232231
1711092007497,-7191.50794640556
1711092007537,-8086.365029713139
1711092007578,-7725.754606604809
1711092007618,-7199.026188247837
1711092007658,-6358.59469814552
1711092007698,-5479.043549427763
1711092007739,-4723.65475544706
1711092007779,-3436.699024560163
1711092007819,-2150.4761750872713
1711092007859,-1359.5739248532336
1711092007899,37.30606678407639
1711092007940,1260.3574549022596
1711092007981,2183.5942533551715
1711092008021,1905.4353861040436
1711092008061,-1650.9827735214494
1711092008101,-6130.227927156724
1711092008141,-9293.0989027943
1711092008182,-10958.673171029426
1711092008222,-11484.297548358329
1711092008262,-12202.391707652714
1711092008302,-12154.63004325144
1711092008342,-12954.311779112322
1711092008383,-13905.78507618606
1711092008422,-13726.102633832488
1711092008463,-13864.066302439198
1711092008503,-13106.41745328228
1711092008543,-12257.041314754868
1711092008584,-11139.05595821538
1711092008623,-10353.843952135183
1711092008663,-9888.205950172152
1711092008703,-8606.05546985846
1711092008744,-7669.1359887979925
1711092008785,-6634.1958552128635
1711092008824,-4773.521311725024
1711092008864,-4186.70935738273
1711092008904,-2726.1586017520167
1711092008945,-2780.101529260399
1711092008985,-5929.943799556233
1711092009025,-9706.591951726004
1711092009065,-12440.81812606752
1711092009105,-13707.923088014359
1711092009146,-13609.245712614153
1711092009187,-13405.26562589407
1711092009226,-12991.197537094587
1711092009266,-12993.771595758852
1711092009307,-13738.028065450955
1711092009347,-13713.577591917012
1711092009388,-13362.933860420715
1711092009427,-12339.504769686377
1711092009470,-11343.992434354033
1711092009510,-10054.465325751808
1711092009550,-8667.982439058833
1711092009591,-7633.1104410281405
1711092009631,-5871.235603087349
1711092009671,-4716.737731473055
1711092009711,-3476.30775559647
1711092009751,-2110.868558376562
1711092009792,-903.5597507390194
1711092009831,313.6741537153721
1711092009871,1466.7973757784348
1711092009912,210.983569518663
1711092009952,-3674.187330803834
1711092009992,-8068.239803047385
1711092010032,-10080.131092424504
1711092010072,-11389.381735544652
1711092010112,-12027.319941630587
1711092010152,-11859.367961288197
1711092010193,-12230.475469894707
1711092010232,-13147.54158790037
1711092010273,-13528.022119693924
1711092010313,-13318.31557887746
1711092010353,-12666.800865153084
1711092010394,-11590.407687425846
1711092010433,-10399.678756210487
1711092010473,-9292.816856258083
1711092010513,-7783.5178630515
1711092010553,-6699.317625213647
1711092010594,-5253.530646665487
1711092010634,-3755.553462093463
1711092010674,-2463.0570498683956
1711092010714,-1230.5402236403897
1711092010754,397.272903626319
1711092010795,1729.3460001917556
1711092010834,3278.555257569067
1711092010874,3258.072614731267
1711092010914,96.85644106054679
1711092010955,-3707.930515749147
1711092010996,-6621.462247845251
1711092011035,-8130.44424834894
1711092011075,-8714.647226729896
1711092011115,-8431.773154891562
1711092011155,-8370.565602049464
1711092011196,-8812.378281432204
1711092011236,-8887.696674060542
1711092011276,-8824.914429350523
1711092011316,-8396.022238448728
1711092011356,-7600.651655862341
1711092011396,-6632.352471103892
1711092011436,-5744.2661303307395
1711092011476,-4393.303506099386
1711092011516,-3298.5979271864053
1711092011556,-2079.1466772223357
1711092011597,-1155.843049608171
1711092011637,225.18999575823545
1711092011677,1709.8317452175543
1711092011717,3265.9587351274677
1711092011757,4288.177485568216
1711092011798,5313.442796139047
1711092011837,5996.022837728495
1711092011877,3145.9818529100157
1711092011917,-942.6564656973351
1711092011958,-3961.867972577689
1711092011998,-5234.61948423693
1711092012038,-5583.471278684912
1711092012078,-5333.015497539192
1711092012118,-5629.9089859407395
1711092012158,-5580.603232731111
1711092012199,-5627.002041032538
1711092012238,-5743.797063564649
1711092012279,-5304.774767331779
1711092012319,-4179.063694970217
1711092012359,-3081.3150501765776
1711092012400,-1530.5503895352595
1711092012439,-193.06963403709233
1711092012479,1056.9724780216347
1711092012519,1908.5768304618541
1711092012560,3250.7241894206963
1711092012600,4121.146388358669
1711092012640,5414.86351362546
1711092012680,6750.273589221062
1711092012720,7999.252810075413
1711092012760,9266.335612623487
1711092012801,10714.52191334078
1711092012840,10126.364617108833
1711092012881,6477.442943990231
1711092012921,2393.2879312448204
1711092012961,-197.87216073274612
1711092013002,-1506.6946137370542
1711092013041,-1929.2701189760119
1711092013081,-2049.7367872884497
1711092013121,-2200.5051149548963
1711092013162,-2372.2439677775837
1711092013202,-2851.6287553403527
1711092013242,-3041.6728642513044
1711092013282,-2792.470477058785
1711092013322,-2468.002800425049
1711092013362,-1363.7283611078747
1711092013403,114.53572970908135
1711092013442,1572.3558986014687
1711092013482,2572.3454897706397
1711092013522,3832.9302648273297
1711092013562,4692.9279349916615
1711092013603,5467.210725540761
1711092013643,6554.245139180915
1711092013683,7173.347562630195
1711092013723,7787.91658067517
1711092013763,8933.45343124657
1711092013804,10265.686021649744
1711092013843,9052.17909084633
1711092013883,5885.127436911222
1711092013923,2617.98765098257
1711092013963,118.72838711040094
1711092014004,-425.98556678695604
1711092014043,-1076.6347542090807
1711092014084,-999.4476516987197
1711092014124,-1063.8101389254443
1711092014164,-1384.566958682146
1711092014205,-2026.005388182588
1711092014244,-2491.385317428503
1711092014284,-2232.950616633054
1711092014324,-1609.217653754633
1711092014364,-321.6020994896535
1711092014405,663.5835925573483
1711092014444,1791.035608369857
1711092014485,2557.013397406554
1711092014525,3901.45194956474
1711092014565,4775.196137180552
1711092014606,6293.306734683458
1711092014645,7098.83523204294
1711092014685,8420.578231482767
1711092014725,8886.002190585481
1711092014765,10107.05476460699
1711092014806,10926.16578232171
1711092014845,9634.369800613727
1711092014885,6655.970330636948
1711092014926,3139.48818770051
1711092014966,1584.3567957337946
1711092015006,1248.3704636767507
1711092015046,1190.5705316374078
1711092015086,1662.8882902143523
1711092015126,1945.9038164056838
1711092015166,1463.697481817333
1711092015207,732.8210730215069
1711092015246,696.1370023842901
1711092015287,1058.0515713151544
1711092015327,1975.3969595080707
1711092015367,2648.6330186831765
1711092015408,3377.4868595909793
1711092015447,4886.510392194148
1711092015487,5403.7807545783
1711092015528,6475.950226042187
1711092015568,7321.913211204577
1711092015609,8233.346917738672
1711092015648,9535.86643087701
1711092015689,10491.195341141894
1711092015729,11312.764815475792
1711092015769,12884.046014552005
1711092015810,13780.647015873343
1711092015849,11762.262494226918
1711092015890,7729.439223169582
1711092015930,4223.880883877166
1711092015970,1872.4489962174557
1711092016011,1022.723115995992
1711092016051,868.0995976976119
1711092016091,825.3478895700537
1711092016131,354.0429903785698
1711092016172,-398.6429913812317
1711092016212,-838.4174205106683
1711092016252,-962.5613644267432
1711092016292,-482.5623036287725
1711092016332,437.398864202667
1711092016376,1132.6537895051297
1711092016417,1625.729394135531
1711092016456,2860.9718680079095
1711092016499,3595.226962493267
1711092016537,4949.656331746839
1711092016577,5790.870726985624
1711092016618,6870.710783640621
1711092016658,7510.586701525841
1711092016698,8775.944020627066
1711092016738,9207.888212305028
1711092016778,10316.263841136592
1711092016819,11264.461927926634
1711092016859,10019.608161198907
1711092016899,5850.371544043999
1711092016939,881.7651580970269
1711092016980,-2127.041868241504
1711092017022,-3245.583801089786
1711092017061,-4009.9432204375044
1711092017101,-4570.582019411493
1711092017142,-4712.249487032881
1711092017182,-5259.053989083273
1711092017223,-5494.694499045378
1711092017262,-5108.913141838508
1711092017302,-4203.573720865417
1711092017343,-2988.4568298538215
1711092017383,-1892.3815283812582
1711092017424,-907.8432708592154
1711092017463,-44.440785388695076
1711092017503,957.0512488866225
1711092017543,1979.5495124091394
1711092017583,3082.945736553753
1711092017625,4141.912907815073
1711092017664,5095.631433226401
1711092017704,6324.7729534895625
1711092017744,6975.846636702772
1711092017784,8335.703608508222
1711092017825,8728.420800706372
1711092017865,6459.050528034102
1711092017905,2837.6329670317937
1711092017945,-611.6525915758684
1711092017985,-2739.1309797519352
1711092018026,-3417.26191100548
1711092018066,-3382.35449019284
1711092018106,-3356.9108899880666
1711092018146,-4111.798463318497
1711092018186,-5052.955167620676
1711092018227,-5539.000814293046
1711092018267,-5383.381221104413
1711092018307,-4940.671605556272
1711092018347,-4249.078731988557
1711092018387,-3300.9654133538716
1711092018428,-2660.821154729463
1711092018468,-1306.9799511984456
1711092018508,-149.31417278386652
1711092018548,932.6962554031052
1711092018588,2174.210148532875
1711092018629,2656.534540364053
1711092018669,3268.794492909219
1711092018712,3773.3858413468115
1711092018749,4917.323723172303
1711092018790,4879.578190843109
1711092018831,2018.6954419543035
1711092018870,-1876.8552992062178
1711092018910,-5300.513244521804
1711092018952,-6190.006024317816
1711092018992,-6332.701556741726
1711092019033,-5567.492495691171
1711092019073,-5627.808055006899
1711092019113,-6138.424174694344
1711092019153,-6883.272189595038
1711092019194,-7255.011189880548
1711092019235,-6989.432612450793
1711092019274,-6738.776450518519
1711092019314,-5842.713585579768
1711092019354,-4985.064707741607
1711092019395,-4323.583607044537
1711092019436,-3241.835353757255
1711092019475,-1820.6531976223923
1711092019515,-1103.0406270460226
1711092019556,-639.5464342965279
1711092019596,573.8417686803732
1711092019637,1457.0227600380313
1711092019677,2370.284468539525
1711092019717,3727.6494444953278
1711092019757,2317.847816495225
1711092019798,-1324.6368855531327
1711092019838,-6069.562678672373
1711092019878,-8632.642818931956
1711092019918,-9126.03053766163
1711092019958,-9350.541751432233
1711092019999,-8803.493059830042
1711092020040,-8587.747718997765
1711092020079,-9204.357528026681
1711092020119,-9707.301808187272
1711092020160,-10099.772074649576
1711092020200,-9709.017276568338
1711092020241,-9071.593885380309
1711092020281,-8103.000480743824
1711092020321,-7564.355750227347
1711092020361,-6450.837897088844
1711092020401,-5544.055683271959
1711092020442,-4578.212903019739
1711092020482,-3598.7896180627868
1711092020522,-2569.943130938802
1711092020562,-1093.5454218569212
1711092020602,-37.460347129264846
1711092020643,1609.6468585818075
1711092020682,3182.3713846302126
1711092020723,2053.7503007722553
1711092020763,-2100.8910503778607
1711092020803,-6624.2031213245355
1711092020844,-9068.504865885712
1711092020884,-10266.293303307379
1711092020926,-10329.168197280262
1711092020964,-10027.499339001253
1711092021004,-10160.473545379937
1711092021045,-10538.34668986313
1711092021084,-11709.931896410417
1711092021125,-11566.642797617707
1711092021165,-10869.301800102461
1711092021205,-10517.994807748124
1711092021246,-9386.0773404059
1711092021285,-7801.874969454948
1711092021325,-6934.341268439777
1711092021366,-5947.34240031871
1711092021406,-4780.199218192138
1711092021447,-3618.7376055335626
1711092021486,-2482.3448676338885
1711092021529,-1339.313731632894
1711092021569,-488.95904946513474
1711092021609,1486.5778031004593
1711092021650,2677.1322159294505
1711092021690,807.7040010024793
1711092021730,-2828.9831933681853
1711092021770,-6922.754213725915
1711092021810,-9483.600258336868
1711092021851,-10621.866735063726
1711092021890,-9910.70321037434
1711092021930,-9839.13843856752
1711092021970,-10383.079961268697
1711092022010,-11007.318466303637
1711092022051,-11885.853653859813
1711092022091,-11834.152907009237
1711092022131,-11550.688938988838
1711092022171,-11277.80539372703
1711092022211,-9770.325424644398
1711092022252,-8142.516718286555
1711092022291,-6437.943817543099
1711092022332,-5711.79375656764
1711092022372,-4166.329463649541
1711092022412,-2811.37290145061
1711092022453,-2091.541731003206
1711092022492,-1348.900572014274
1711092022532,-291.1898987367749
1711092022572,570.5835386365652
1711092022612,1767.3415291439742
1711092022653,-215.37890123110265
1711092022693,-4134.1583570232615
1711092022733,-7967.380734648788
1711092022773,-9766.593100331025
1711092022813,-10051.00937015796
1711092022854,-9670.08127360046
1711092022893,-9584.665748503292
1711092022933,-9528.295604926767
1711092022973,-9502.862179278862
1711092023013,-9976.727294268552
1711092023054,-9653.066726813093
1711092023093,-9316.865973758046
1711092023134,-8227.227132958826
1711092023174,-7230.517842092086
1711092023214,-6228.8242567665875
1711092023255,-4621.7441833310295
1711092023294,-3182.8015648834407
1711092023334,-2293.8384836744517
1711092023375,-1031.6515278459992
1711092023415,-193.22956018848345
1711092023455,1957.4431773899123
1711092023495,3239.738873825874
1711092023535,2902.133468785789
1711092023575,-778.6016743928194
1711092023615,-5025.6324782338925
1711092023656,-8178.0346517399885
1711092023696,-9908.013037287164
1711092023736,-10613.04237487074
1711092023776,-10438.844483652152
1711092023816,-10390.806411977392
1711092023857,-10660.175997542683
1711092023896,-11873.381954757031
1711092023936,-12145.344270081492
1711092023976,-11485.62186391768
1711092024017,-10364.016347687459
1711092024057,-9484.659786450677
1711092024097,-8301.10296898405
1711092024137,-6994.105103414971
1711092024177,-5774.926960109966
1711092024217,-4038.4732851271983
1711092024258,-2918.7358089927584
1711092024298,-1224.7670843228698
1711092024338,-73.37884433986619
1711092024378,1706.9490617264528
1711092024418,3455.737470347667
1711092024459,2359.924345877487
1711092024498,-1377.6179174138233
1711092024538,-5942.087801312562
1711092024579,-8406.368725500302
1711092024619,-9299.266239271266
1711092024660,-9786.002619172912
1711092024699,-9854.10297085112
1711092024739,-10235.23973050015
1711092024779,-10585.300108227879
1711092024820,-10734.151345464867
1711092024860,-10552.613227290567
1711092024900,-9772.210406973492
1711092024940,-8847.783669205382
1711092024980,-7597.8936640298925
1711092025020,-6219.011130702682
1711092025061,-5179.402598418295
1711092025101,-3595.306856164243
1711092025141,-2699.4208659876604
1711092025181,-1499.6460909049492
1711092025221,-183.90836299513467
1711092025262,1215.4390167952515
1711092025301,2843.675759286154
1711092025342,4533.685352175264
1711092025382,6347.5663775256835
1711092025422,6995.812354677357
1711092025463,3967.954808718059
1711092025502,-646.3843539454974
1711092025542,-4038.6243601876777
1711092025583,-6265.3501980432775
1711092025622,-7053.436127556488
1711092025663,-7355.003952312516
1711092025703,-8371.453952627024
1711092025743,-8639.171480201418
1711092025783,-8748.430367056746
1711092025823,-8291.60334731033
1711092025864,-8044.906031466788
1711092025903,-7000.133949988056
1711092025943,-5975.165778304217
1711092025983,-4916.572563035879
1711092026023,-3547.2121628727764
1711092026064,-2313.315508595435
1711092026104,-1284.6636245795526
1711092026144,327.9772974110674
1711092026184,1519.9025654145516
1711092026224,2625.325602607336
1711092026265,3740.6498064356856
1711092026304,5141.618867322104
1711092026344,5354.713022723794
1711092026384,2043.2653283013497
1711092026424,-1550.982954888139
1711092026465,-4150.622305399273
1711092026504,-5243.566859629471
1711092026545,-5504.616143092047
1711092026585,-5068.79544252879
1711092026625,-4591.172658896539
1711092026666,-4850.869797669118
1711092026705,-5450.929144147318
1711092026745,-4928.91651381366
1711092026785,-4385.884622555692
1711092026825,-3590.740543305408
1711092026866,-2055.779072585283
1711092026906,-764.6236200379208
1711092026946,668.6215690062381
1711092026986,2133.325075109722
1711092027026,3109.4979567863047
1711092027067,4129.259788706899
1711092027106,5327.682486322708
1711092027146,6515.945256260689
1711092027185,7719.601240616292
1711092027225,8926.99108980596
1711092027266,9876.619272788288
1711092027305,8668.949307804927
1711092027346,4947.162221184932
1711092027386,631.3431543451734
1711092027426,-2510.2538344613276
1711092027468,-3955.169447454158
1711092027507,-4576.444177078782
1711092027547,-4756.604067998705
1711092027587,-4853.308905002661
1711092027628,-5377.206217620755
1711092027668,-4810.820001848973
1711092027708,-4250.03099545138
1711092027748,-4057.4525774158537
1711092027788,-2865.8273676563986
1711092027828,-1631.2734618098475
1711092027869,-635.0520548548084
1711092027908,96.62543723336421
1711092027948,1224.9715930123348
1711092027988,2560.7957974411547
1711092028028,3678.7367285410874
1711092028069,4974.228077939246
1711092028109,6011.600299345795
1711092028149,7475.076007807627
1711092028189,8747.219150913646
1711092028229,9983.010640524095
1711092028270,10445.746298505692
1711092028309,8029.121422704775
1711092028349,3722.5152732338756
1711092028389,232.18875965685584
1711092028429,-1645.5576910027303
1711092028470,-2389.8587486869656
1711092028510,-2347.368240770884
1711092028550,-2166.536162948003
1711092028590,-2305.3861932717264
1711092028630,-2998.0628090247046
1711092028671,-3128.5502906595357
1711092028710,-3151.601349172648
1711092028750,-2419.2675556452014
1711092028790,-1360.5454154433683
1711092028831,-334.9140256824903
1711092028871,761.314490233548
1711092028911,1741.9644178897142
1711092028951,2481.9952424431685
1711092028991,2754.7950145634823
1711092029031,4019.489065158181
1711092029072,5237.827422323637
1711092029111,6281.832558990223
1711092029151,7314.58935609553
1711092029191,8630.687235453166
1711092029231,9570.929898499511
1711092029272,7883.162733152742
1711092029312,4210.1453969124705
1711092029351,980.7348233752418
1711092029392,-280.1379015343264
1711092029432,-1013.0275598361623
1711092029473,-1008.669735448435
1711092029512,-838.5914839149918
1711092029552,-1526.1138856611215
1711092029592,-2280.696641789982
1711092029632,-2439.4898150747176
1711092029673,-1787.102232958423
1711092029712,-688.6744988218416
1711092029753,105.90567510575056
1711092029793,988.0994216506369
1711092029833,1928.9405167843215
1711092029874,2900.641480930615
1711092029913,4129.876752113458
1711092029953,5191.50584213133
1711092029993,6538.154421231011
1711092030033,7995.907520689303
1711092030074,9181.378368596546
1711092030114,10315.22455085814
1711092030154,11387.238839450758
1711092030194,12897.984948464436
1711092030234,12869.549336648546
1711092030275,10507.59709343547
1711092030314,6841.988451762591
1711092030354,3802.2541032303125
1711092030394,2391.4544608951546
1711092030434,2024.7643737867475
1711092030475,2535.2054808107205
1711092030515,2302.2754051587544
1711092030555,1742.5895175714977
1711092030595,1363.9752777493559
1711092030635,1148.1150022922084
1711092030676,850.4970141677186
1711092030715,1531.1238685585558
1711092030755,2383.186021177564
1711092030795,3554.6754242116585
1711092030835,4732.986805311404
1711092030876,5886.137583919801
1711092030916,6761.172589249676
1711092030956,7458.803727002349
1711092030996,7902.289682845818
1711092031036,9087.833691813983
1711092031077,10841.437064228114
1711092031116,11588.052198962076
1711092031156,13511.615752744256
1711092031196,13779.239607172552
1711092031237,11875.941110051004
1711092031277,8167.175347974524
1711092031317,4569.379679181613
1711092031357,2699.3794281976297
1711092031397,1722.722169808345
1711092031437,1775.3205667887814
1711092031478,1975.4525148742832
1711092031517,2000.036689830944
1711092031557,1362.444262161618
1711092031598,1058.3544470863417
1711092031638,908.9533687112853
1711092031679,1334.9249230844434
1711092031718,1864.822081736289
1711092031758,2235.562957995571
1711092031798,3196.2686370606534
1711092031838,4415.920328343753
1711092031879,5574.865526194219
1711092031918,6251.015697615454
1711092031959,7356.465762318578
1711092031999,8327.37215056247
1711092032039,8718.03265066375
1711092032080,9846.984182395507
1711092032119,10941.754428005079
1711092032159,9497.577696944121
1711092032200,5927.50877752807
1711092032240,1691.3648602371104
1711092032281,-934.0156009588391
1711092032320,-2012.2685454706661
1711092032360,-2311.5581631409004
1711092032400,-1702.8385979179293
1711092032440,-2414.884138322901
1711092032481,-3169.4172001369298
1711092032521,-3806.2716232992243
1711092032561,-4310.987726712599
1711092032601,-3873.5885474691167
1711092032641,-3214.476057867054
1711092032682,-2189.5448154541664
1711092032721,-990.1862099370919
1711092032761,436.05747036542743
1711092032802,892.1320018104743
1711092032842,1732.5698132845573
1711092032883,2619.209205760155
1711092032922,3659.6678184361663
1711092032963,4560.7424687016755
1711092033003,5730.126352183521
1711092033043,7249.698608497158
1711092033084,7797.2977623869665
1711092033123,5557.643717807718
1711092033164,1105.6825868785381
1711092033204,-2689.956375784939
1711092033244,-4482.163031222532
1711092033285,-5250.804055531044
1711092033324,-4719.772382545518
1711092033364,-4757.159580908017
1711092033404,-5688.519856962375
1711092033444,-6090.045372545719
1711092033485,-6771.293960238341
1711092033525,-6621.650231559994
1711092033560,-5983.723254719283
1711092033600,-4836.601592455758
1711092033640,-4040.194601877127
1711092033681,-3160.026461949805
1711092033720,-2051.425715372432
1711092033761,-1147.8724151507486
1711092033801,-48.07374054403044
1711092033841,1235.5783632653765
1711092033882,1933.9522318379022
1711092033921,2987.0870235702023
1711092033961,3885.56128010829
1711092034001,5138.820180627983
1711092034041,5938.910111228703
1711092034082,3600.793602558784
1711092034122,-963.1377009637654
1711092034162,-4583.00688268384
1711092034202,-7081.806355271023
1711092034242,-7717.512694659177
1711092034283,-7782.870670568664
1711092034323,-8026.47081650584
1711092034363,-8530.420736919856
1711092034403,-9879.860533279367
1711092034443,-10125.1816184395
1711092034484,-9984.956190236378
1711092034524,-9652.759588229936
1711092034564,-8707.780231196899
1711092034604,-7906.216822461691
1711092034645,-6535.860027577961
1711092034686,-5414.668653315399
1711092034725,-4534.737084142398
1711092034765,-3406.3263236489147
1711092034805,-1865.2615993663203
1711092034846,-910.6182642360218
1711092034887,338.4514975985512
1711092034926,1173.7199541023
1711092034967,2583.0837452129927
1711092035007,3871.216443142621
1711092035047,3389.2740983206313
1711092035088,-544.9217140339315
1711092035127,-5203.074533350067
1711092035168,-8314.49264909653
1711092035208,-9671.315999883227
1711092035248,-9465.00268026162
1711092035289,-9370.839431779925
1711092035329,-9568.175648951204
1711092035369,-10473.256644740235
1711092035411,-11063.212475863751
1711092035451,-11385.533575977897
1711092035492,-10958.791691710008
1711092035532,-10013.996407683007
1711092035573,-8507.126225791872
1711092035613,-7282.034192180727
1711092035653,-5920.446878632996
1711092035694,-4682.552663050126
1711092035733,-3554.0370653958526
1711092035774,-2500.045445524156
1711092035814,-1495.1981725590304
1711092035854,191.6768135810271
1711092035895,1454.377696395386
1711092035935,2771.4933276143856
1711092035975,4500.091612759512
1711092036015,4266.912311606575
1711092036056,898.2551541347057
1711092036096,-3715.8963760912884
1711092036136,-7998.27309189341
1711092036176,-7986.970768993488
1711092036216,-7427.846396581503
1711092036257,-7247.316057441756
1711092036298,-7688.943686446175
1711092036337,-7765.9511745262425
1711092036377,-7694.698999422602
1711092036417,-6938.480527088046
1711092036457,-5776.631090354407
1711092036498,-4570.03436923679
1711092036538,-3262.6207396839745
1711092036578,-1752.7858384014107
1711092036618,-1009.893448764924
1711092036658,429.3727704586927
1711092036699,1802.5832963609137
1711092036739,3042.9311114195734
1711092036779,4813.596959431656
1711092036819,5728.164147529285
1711092036859,7025.944659433328
1711092036900,8197.494927618653
1711092036940,7663.595189282205
1711092036980,4378.715247777989
1711092037020,-40.6756073567085
1711092037060,-2921.7191164500546
1711092037101,-4227.168729465222
1711092037140,-5145.191415528767
1711092037180,-4945.547906016698
1711092037221,-4870.046535272384
1711092037261,-5397.20826307009
1711092037302,-5892.911845517345
1711092037341,-5699.346520960564
1711092037382,-5225.708553045988
1711092037423,-4297.642400153447
1711092037463,-3525.051586747635
1711092037504,-2507.675919375848
1711092037543,-1394.491626115283
1711092037584,-107.56512989103794
1711092037624,1486.28367378423
1711092037664,3244.181826560758
1711092037705,4270.719443936832
1711092037745,5064.028800626751
1711092037785,6844.355478469282
1711092037825,7583.462315732613
1711092037866,8981.458420572802
1711092037907,9757.529600570444
1711092037946,7127.064058931777
1711092037987,3292.3623734940775
1711092038027,-559.1437656104099
1711092038067,-2515.7771098993253
1711092038108,-3050.3482154621743
1711092038147,-2765.740449871868
1711092038188,-2171.2568060762715
1711092038228,-2207.2725451085716
1711092038268,-2736.742182977032
1711092038309,-3212.4782369432505
1711092038349,-2803.481108791195
1711092038389,-1830.5831345915794
1711092038429,-642.9318556301296
1711092038470,615.2538977686781
1711092038510,1767.4818021224346
1711092038550,2615.26323189307
1711092038590,3856.216268269578
1711092038630,4796.873835969018
1711092038671,5784.483038308565
1711092038712,6462.962088576052
1711092038751,7419.194150386378
1711092038791,8871.324480318232
1711092038832,10432.353808637243
1711092038872,11361.721641624346
1711092038913,8847.97889042995
1711092038953,5035.226097134175
1711092038993,1182.6959994276986
1711092039033,-268.6370155592449
1711092039073,-1463.643901976291
1711092039114,-597.3385236128233
1711092039154,106.39584632078186
1711092039194,194.65132820932195
1711092039234,-204.144912783755
1711092039274,-917.7431006229017
1711092039316,-578.4559451118112
1711092039355,-298.776427578181
1711092039395,437.8868573389482
1711092039436,1573.1112328381278
1711092039476,2447.5586003074422
1711092039517,3283.039194351062
1711092039556,4209.310331304325
1711092039596,5414.20203737542
1711092039636,6377.788775413763
1711092039677,7313.714561641915
1711092039718,8178.107746750349
1711092039757,8921.162875060458
1711092039797,10304.819018427748
1711092039837,10495.340557998745
1711092039878,8028.058783713495
1711092039919,4145.1925995568745
1711092039958,479.6221093107015
1711092039998,-1101.1145410670433
1711092040038,-1646.6226859325543
1711092040078,-1418.2622977285646
1711092040119,-1205.9073601134587
1711092040159,-1891.3713679434732
1711092040199,-1969.6642772792839
1711092040239,-1744.2761221153196
1711092040279,-1559.8051206199452
1711092040320,-2021.1813464011066
1711092040360,-994.5713774184696
1711092040400,-174.4425036313478
1711092040440,420.10680027585477
1711092040480,1341.2250663705636
1711092040521,1914.9794929439668
1711092040560,2873.8351424194407
1711092040601,3647.885070436634
1711092040641,4770.661872045137
1711092040681,5839.1155638555065
1711092040722,6971.506413540803
1711092040762,8371.102151797852
1711092040802,7706.4077790626325
1711092040842,4484.026096269488
1711092040882,-360.3731836748775
1711092040923,-3778.522069626488
1711092040963,-5705.310255582444
1711092041003,-6406.624577538576
1711092041043,-6169.570710917469
1711092041083,-6920.7237361539155
1711092041125,-7032.307243876625
1711092041164,-7809.11398532195
1711092041204,-8408.420940308366
1711092041245,-8712.247972634155
1711092041285,-8396.97325207456
1711092041326,-7629.628700055182
1711092041365,-6484.524985526223
1711092041405,-5717.457499233773
1711092041446,-4684.789519666694
1711092041486,-3735.4811461572535
1711092041527,-2867.3511994429864
1711092041566,-1747.9451824203134
1711092041607,-121.81805336405523
1711092041647,617.3327330467291
1711092041687,1816.5343686596025
1711092041728,3147.0307712671347
1711092041768,1856.9680208053906
1711092041808,-2085.6326029929332
1711092041848,-6571.134155737236
1711092041888,-9246.646824561525
1711092041929,-10673.94346826151
1711092041969,-10580.978318076814
1711092042009,-10779.935810164548
1711092042049,-11269.931449186523
1711092042090,-12501.013807814568
1711092042131,-13383.085200492991
1711092042170,-13509.239489840344
1711092042211,-13247.075077658752
1711092042251,-12273.587326399516
1711092042291,-10807.5114860069
1711092042332,-9640.215140407206
1711092042371,-8069.8943553054705
1711092042413,-6912.028467773693
1711092042453,-6131.384391670348
1711092042493,-4802.292788316496
1711092042534,-3552.271864741342
1711092042574,-2725.3487908986863
1711092042614,-1071.1618164381944
1711092042654,425.2816755196545
1711092042694,-415.5062822252512
1711092042735,-9725.921646504197
1711092042775,-12292.193407142768
1711092042815,-13589.232792435214
1711092042855,-13743.77190686646
1711092042896,-13403.544087668648
1711092042937,-12663.748343918473
1711092042976,-13320.096692766529
1711092043016,-13687.965729161631
1711092043056,-13750.91760756215
1711092043096,-13400.400105140638
1711092043137,-12516.573426407529
1711092043177,-11437.909737996524
1711092043217,-9891.865163654555
1711092043257,-8520.248547101393
1711092043297,-6942.162466148613
1711092043338,-5225.532103591599
1711092043378,-3380.7018815279007
1711092043418,-2380.6270162509754
1711092043458,-1333.238961872179
1711092043498,-67.70945541886613
1711092043539,1635.0900951898657
1711092043578,-175.34097850788385
1711092043619,-5071.760449364781
1711092043659,-10438.880758104613
1711092043699,-14365.297097028
1711092043740,-15889.415073497687
1711092043779,-17001.31320886803
1711092043819,-16441.15634105075
1711092043859,-16381.448286579689
1711092043900,-17415.772477735532
1711092043941,-18475.2837051854
1711092043980,-18474.32815146353
1711092044021,-17287.015214436688
1711092044061,-16678.594165001996
1711092044101,-15731.969544243533
1711092044142,-14297.454528317554
1711092044181,-12763.120545369107
1711092044221,-11621.63082094863
1711092044262,-10230.539335507434
1711092044302,-9165.279595856555
1711092044343,-7679.803199430695
1711092044382,-6401.743966185488
1711092044423,-4710.152126580244
1711092044463,-3074.2555537733715
1711092044503,-5148.881628277246
1711092044544,-10066.635498886928
1711092044583,-15202.34060694091
1711092044624,-18340.742522331188
1711092044664,-19778.633822498377
1711092044704,-19826.333139312454
1711092044745,-19518.750798721798
1711092044785,-19389.0064689673
1711092044825,-20512.36655174638
1711092044865,-20646.285875406815
1711092044906,-20040.774636436254
1711092044947,-19557.392712537665
1711092044987,-17809.116722259438
1711092045027,-16409.058338578325
1711092045067,-14256.981118789874
1711092045107,-12367.554759963648
1711092045148,-10627.399694481399
1711092045188,-8878.132257374236
1711092045228,-7792.205407297239
1711092045268,-6088.119818699313
1711092045308,-5040.479885435663
1711092045350,-3154.643195684068
1711092045389,-1275.0952597863507
1711092045429,-3220.60648422502
1711092045470,-7947.848779770313
1711092045510,-13282.443838245934
1711092045551,-16012.96781890653
1711092045590,-17397.35118161002
1711092045634,-17289.599281219067
1711092045674,-16768.454797558486
1711092045715,-16535.293153553503
1711092045755,-17489.427926372737
1711092045795,-17554.188097289298
1711092045835,-17270.726938840235
1711092045875,-16294.975602211896
1711092045915,-14748.944340662565
1711092045956,-12877.625521245878
1711092045995,-11151.113207384245
1711092046036,-9364.658520827768
1711092046076,-7586.351946679875
1711092046116,-5523.900326157454
1711092046157,-3541.576000886271
1711092046196,-1663.123887406662
1711092046236,618.9827165480237
1711092046276,2592.8806073300075
1711092046317,1446.892529106699
1711092046357,-3293.6863802052103
1711092046397,-8241.115185859147
1711092046437,-11431.40700613195
1711092046477,-12085.78678130405
1711092046517,-11736.008769262116
1711092046558,-11204.664738884661
1711092046597,-10564.222208999097
1711092046637,-10908.647549927933
1711092046678,-11488.026424110401
1711092046718,-10706.810000959318
1711092046758,-9328.309409511276
1711092046798,-7719.452145946678
1711092046838,-6115.104977305513
1711092046878,-3937.014746176079
1711092046918,-2314.1357697558124
1711092046959,-465.72870290698484
1711092046998,1318.8065504513215
1711092047038,3029.628531337483
1711092047078,4432.136551326839
1711092047118,6270.919350374024
1711092047159,7949.769249220379
1711092047199,7439.682486315258
1711092047239,2690.62407382275
1711092047279,-2978.9939071531408
1711092047319,-6975.274003584869
1711092047359,-8799.251027828082
1711092047399,-9580.769134817878
1711092047439,-9840.592081626412
1711092047479,-9942.963889375096
1711092047519,-10509.394128883025
1711092047560,-10885.983786982484
1711092047599,-10608.4875770309
1711092047640,-9536.555105856154
1711092047680,-8389.63246657746
1711092047720,-6509.67901268648
1711092047761,-4962.817131127231
1711092047800,-3454.795329311397
1711092047840,-1915.0845171483234
1711092047880,-531.1710147499107
1711092047920,1674.3164944979362
1711092047961,3377.3513627452776
1711092048000,4702.656638378743
1711092048040,6392.907676989911
1711092048081,6637.919141498627
1711092048121,2950.026016003918
1711092048161,-2733.992831955664
1711092048201,-6820.267748990562
1711092048241,-8729.258916288149
1711092048281,-9899.002223685617
1711092048321,-10068.693013319978
1711092048362,-9944.516438335879
1711092048401,-10691.350477772998
1711092048441,-11136.343880328583
1711092048482,-11435.1022079736
1711092048521,-10176.890607625712
1711092048562,-8580.257594752591
1711092048602,-6691.090715379454
1711092048642,-4888.798398198094
1711092048682,-3275.826614258811
1711092048722,-1285.236523325555
1711092048763,637.844695804175
1711092048802,2365.2544745823834
1711092048842,3757.329727389384
1711092048882,4921.385364428395
1711092048922,7042.443385526072
1711092048963,7380.689309506444
1711092049002,3778.06053029513
1711092049043,-1254.844238637248
1711092049083,-4561.270380520495
1711092049123,-5915.2313042311
1711092049164,-6194.554399115499
1711092049203,-5921.481975207571
1711092049243,-5387.468685660511
1711092049283,-5228.833794459701
1711092049323,-5765.574300606735
1711092049364,-5261.524694828782
1711092049403,-4613.818345714128
1711092049444,-2931.863610778004
1711092049484,-1477.2444969404023
1711092049524,23.891689187847078
1711092049565,1475.2142604822293
1711092049604,2945.9859169609845
1711092049644,4540.657491058577
1711092049684,6171.815105770715
1711092049724,7992.381662732689
1711092049765,9714.168180624489
1711092049805,11304.327643956523
1711092049845,10833.639768906636
1711092049885,6589.101477695862
1711092049925,1864.322241810616
1711092049966,-1359.5420101061463
1711092050005,-3099.907376367133
1711092050045,-3461.741842401447
1711092050085,-3295.5499977895524
1711092050125,-2954.555985115003
1711092050166,-3034.268192931544
1711092050206,-3419.575718668988
1711092050246,-2896.740866524633
1711092050286,-1697.2616783932317
1711092050326,-317.2247970751487
1711092050367,1139.1083886548877
1711092050406,2945.9074155548587
1711092050446,4444.239643520676
1711092050486,5738.90007873578
1711092050526,7493.689424208831
1711092050567,8996.135191963054
1711092050607,10621.494554362725
1711092050647,12125.042738282122
1711092050687,14108.415429311339
1711092050727,14028.742289160611
1711092050768,10478.078894804697
1711092050807,5687.855713769328
1711092050847,2095.178624557797
1711092050887,961.4779436443932
1711092050927,604.6485274485312
1711092050968,435.3559578419663
1711092051008,557.6114333597943
1711092051048,416.1181505618151
1711092051088,28.46003658650443
1711092051128,333.851684470661
1711092051169,845.0859078248031
1711092051208,1873.2673566511367
1711092051249,3395.378691880498
1711092051289,5302.541967920028
1711092051329,6253.21880620392
1711092051370,7792.011141865514
1711092051409,9569.44724017242
1711092051449,11236.096954311244
1711092051490,12621.377983360086
1711092051530,13988.534401140176
1711092051571,15256.702395371627
1711092051611,16224.494954406284
1711092051652,13429.022410837002
1711092051692,8916.65768189379
1711092051733,5474.223079948453
1711092051774,3989.161270421464
1711092051813,2950.454454737017
1711092051853,2889.703247123398
1711092051893,3306.9369486905634
1711092051934,3483.0100441200193
1711092051975,3270.635083517991
1711092052014,3713.7767070159316
1711092052055,4183.5469571929425
1711092052095,5231.256577340653
1711092052135,6749.2620965298265
1711092052176,7877.559095112374
1711092052216,9352.321618658025
1711092052256,10846.125335380435
1711092052296,11978.105092853773
1711092052336,13600.453040578635
1711092052377,14854.547134438995
1711092052417,18709.221958977636
1711092052457,20376.697672349866
1711092052497,19526.33086479921
1711092052538,16005.463289253414
1711092052579,12755.66965918662
1711092052618,11166.816795035265
1711092052658,10013.985192778055
1711092052698,10305.495108012343
1711092052738,10984.817667439114
1711092052779,11059.852781525115
1711092052819,10807.577579101548
1711092052859,10646.350150260609
1711092052899,11108.38130249083
1711092052939,12141.379387043882
1711092052980,12924.733605061192
1711092053019,13534.389739053324
1711092053060,14994.440331035294
1711092053100,16262.150689901784
1711092053140,17775.548532008892
1711092053181,18789.1084292694
1711092053220,19473.50250213081
1711092053261,20395.898682620376
1711092053301,21237.626550703077
1711092053341,22336.415146523155
1711092053382,20916.149625232443
1711092053421,17356.805733440444
1711092053461,14139.890050384216
1711092053502,12089.578451477922
1711092053542,11465.71152213891
1711092053583,11405.054314333014
1711092053622,11553.861781543586
1711092053663,11676.035694551887
1711092053703,11326.20068845572
1711092053743,10851.696713258978
1711092053784,10782.037340600975
1711092053823,11248.831467047334
1711092053863,11606.331834230106
1711092053904,12923.070072418544
1711092053944,14248.899632794084
1711092053985,15338.298810665961
1711092054025,16527.987558931112
1711092054065,18037.546490228502
1711092054105,19237.84586443426
1711092054146,20457.686780846678
1711092054186,21133.24778633099
1711092054226,22048.92182890745
1711092054266,20676.682798246155
1711092054306,17479.753127880627
1711092054347,13708.021886890754
1711092054388,11657.995027474593
1711092054427,10997.089435067493
1711092054467,10959.931387356715
1711092054508,11293.48073670431
1711092054548,10909.597511804663
1711092054589,10705.98006527545
1711092054629,10198.530058450066
1711092054669,10508.326654109638
1711092054709,10959.562834319891
1711092054749,11354.702950460603
1711092054790,11728.63011007011
1711092054830,12296.982736398466
1711092054870,13145.030533258338
1711092054910,13951.661569989752
1711092054950,14462.535769133829
1711092054992,15121.382019045763
1711092055031,15801.659295641351
1711092055071,16892.669831372797
1711092055112,17560.350449610967
1711092055152,17027.6641633173
1711092055193,14067.413527985569
1711092055232,11116.801057212055
1711092055273,9383.744475661078
1711092055313,8300.478372761747
1711092055353,8049.212023349246
1711092055394,7777.841376956785
1711092055433,8152.154102408094
1711092055474,7402.284067852888
1711092055514,6877.665575020015
1711092055555,7482.023249488324
1711092055596,7381.321595726768
1711092055635,8052.8690067203715
1711092055675,8606.376976728905
1711092055716,9111.732870866079
1711092055756,9861.705511301756
1711092055797,10471.703594305553
1711092055836,11609.07994272327
1711092055877,12217.899792893557
1711092055917,12688.078450741945
1711092055957,13231.021162129473
1711092055998,12736.241670832038
1711092056037,9735.691176381428
1711092056078,6500.21099661896
1711092056118,4657.585958202835
1711092056158,3769.6430285163224
1711092056199,3417.730182192754
1711092056238,4088.6400643498637
1711092056278,4467.4825712996535
1711092056319,4054.6473895062227
1711092056360,3276.419994028285
1711092056401,3118.8469448606484
1711092056441,3358.0229145952035
1711092056481,3692.461936306674
1711092056521,4587.829772091936
1711092056561,5245.368474086514
1711092056602,6611.162202518433
1711092056641,7942.820841025095
1711092056682,8993.092018343974
1711092056722,9534.553942493396
1711092056762,10298.438662017696
1711092056803,10987.955146179302
1711092056842,11324.164312190842
1711092056883,9815.026644038036
1711092056923,6139.823168920586
1711092056963,2530.014129068237
1711092057004,598.0668230745941
1711092057044,-164.95277933450416
1711092057084,-704.6065224586055
1711092057124,-1150.9086255379952
1711092057165,-1627.772986406926
1711092057205,-2091.7715523689985
1711092057245,-2572.51640299242
1711092057285,-2408.2789890558925
1711092057325,-1834.5061783825513
1711092057366,-1139.0324569568038
1711092057407,43.910017704125494
1711092057446,812.6611342364922
1711092057486,1945.6474893046543
1711092057527,3006.651584835956
1711092057567,3446.6039977571927
1711092057608,4984.682882408146
1711092057648,5627.10482733557
1711092057687,6511.929974257015
1711092057726,7706.640295730438
1711092057765,5534.816451237304
1711092057804,1187.9286742941476
1711092057843,-2636.3746425372083
1711092057882,-4542.307265974581
1711092057921,-5478.749906708486
1711092057960,-5411.713902413379
1711092057999,-5548.433919882169
1711092058038,-5822.317373761209
1711092058077,-6147.524663830642
1711092058116,-6761.126891692402
1711092058155,-6664.459192048758
1711092058194,-6449.4968640124425
1711092058233,-5587.059658955084
1711092058272,-4551.786851265933
1711092058311,-3723.974543196615
1711092058350,-2555.7991708889604
1711092058389,-1615.9583186367527
1711092058428,-450.5095028800424
1711092058467,330.82241813163273
1711092058506,1529.6337610175833
1711092058546,2764.6526501616463
1711092058586,4003.914098470472
1711092058626,3398.9517745620105
1711092058666,469.5045381509699
1711092058706,-3501.7680987932254
1711092058746,-5170.443088718457
1711092058786,-6388.033539263532
1711092058826,-5937.516053992324
1711092058866,-5732.091845151037
1711092058906,-5371.255496327765
1711092058946,-5593.810277274344
1711092058986,-6142.328219371382
1711092059026,-5913.754336346174
1711092059066,-5353.574482349446
1711092059106,-3992.851563719334
1711092059146,-3525.4789545419626
1711092059186,-2283.441549713025
1711092059226,-1425.979665068211
1711092059266,-117.60019085090607
1711092059306,1410.6277918883134
1711092059346,2563.6244345826562
1711092059386,4144.447917224839
1711092059426,5092.99762510322
1711092059466,4217.485706243664
1711092059506,896.4625849651638
1711092059546,-2279.7454824403394
1711092059586,-4157.120331730694
1711092059626,-5112.473749079509
1711092059666,-5130.230221301084
1711092059706,-4806.044428421417
1711092059746,-4619.528591366019
1711092059786,-4925.323054765351
1711092059826,-5130.821464812849
1711092059866,-4785.3876128871925
1711092059906,-3997.5451678298414
1711092059946,-3706.513474932639
1711092059986,-2201.9426963999867
1711092060026,-1470.3029898009263
1711092060066,1740.7352862562984
1711092060106,2857.136225871276
1711092060146,3995.486492648488
1711092060186,5364.443384427112
1711092060226,6550.024485946633
1711092060266,6333.798159715487
1711092060306,2801.0153361018747
1711092060346,-1253.177617664449
1711092060386,-4031.807900813874
1711092060426,-5270.113431826932
1711092060466,-5817.8746609138325
1711092060506,-5915.7968397683
1711092060546,-5869.207156813238
1711092060586,-6722.541214085184
1711092060626,-6917.1812499288935
1711092060666,-6986.426025057677
1711092060706,-6107.521216043737
1711092060746,-5063.25440517813
1711092060786,-4004.990771383047
1711092060826,-3198.2455615103245
1711092060866,-1952.6045700302348
1711092060906,-270.8049692348577
1711092060946,1110.1261234451085
1711092060986,2532.8660532697104
1711092061026,3711.2234845657367
1711092061066,5037.930219296366
1711092061106,4849.72068071086
1711092061146,1231.0273279079702
1711092061186,-3274.499662793707
1711092061226,-5839.158568877727
1711092061266,-7447.518570460845
1711092061306,-8497.701124733547
1711092061346,-9103.661519641522
1711092061386,-9023.509360167664
1711092061426,-9181.307596219005
1711092061466,-9036.656335386215
1711092061506,-9280.9742162982
1711092061546,-8623.002796436194
1711092061586,-7793.589118824573
1711092061626,-6468.804670449579
1711092061666,-5016.729065267369
1711092061706,-3448.6974248173647
1711092061746,-2135.87078718259
1711092061786,-664.0755348068196
1711092061826,526.3767584431916
1711092061866,1907.8801636102144
1711092061906,3303.167752603069
1711092061946,4449.878962218761
1711092061986,3365.289487055503
1711092062026,-308.79760328587145
1711092062066,-3936.9509075062815
1711092062106,-5777.167117480654
1711092062146,-6434.989525666693
1711092062186,-7111.629252862185
1711092062226,-6715.484148001298
1711092062266,-6682.998299236875
1711092062306,-6467.693288800772
1711092062346,-6651.487013297854
1711092062386,-6502.753855738789
1711092062426,-5661.182197658811
1711092062466,-4491.761057979194
1711092062506,-3118.428133008303
1711092062546,-1856.7707968701143
1711092062586,-94.98535305075347
1711092062626,1686.526261514984
1711092062666,3067.438628074713
1711092062706,4479.378463960253
1711092062746,5041.702832029201
1711092062786,6980.806754499208
1711092062826,8169.243009368423
1711092062866,6148.24512241804
1711092062906,2406.2953844498843
1711092062946,-958.852459296817
1711092062986,-2379.3844887635205
1711092063026,-2774.1515012914315
1711092063066,-2321.963297965005
1711092063106,-1976.2310876392294
1711092063146,-2043.8320386772975
1711092063186,-2126.3860745273996
1711092063226,-2040.7408320591785
1711092063266,-1106.4887752635404
1711092063306,-283.6970218643546
1711092063346,889.2733502220362
1711092063386,2233.4168943990953
1711092063426,3422.4532350767404
1711092063466,5265.770079263253
1711092063506,6444.573390511796
1711092063546,7583.1529279584065
1711092063586,8175.24281381676
1711092063626,9184.496653042035
1711092063666,10268.099113691598
1711092063706,10890.772599332267
1711092063746,7977.100490730023
1711092063786,4031.6813723039813
1711092063826,1439.6121912891977
1711092063866,284.7290541608818
1711092063906,-551.891592677217
1711092063946,-319.1022747904062
1711092063986,220.4460897713434
1711092064026,422.22634501196444
1711092064066,471.73344828770496
1711092064106,257.921314957086
1711092064146,875.7784834140912
1711092064186,1659.6445292728022
1711092064226,2898.5906280605122
1711092064266,4267.974276956171
1711092064306,5333.565983359935
1711092064346,6338.159326947294
1711092064386,7460.5515112611465
1711092064426,8695.847857643384
1711092064466,9883.549438938033
1711092064506,11010.714557238389
1711092064546,11633.097120514605
1711092064586,12430.244371999288
1711092064626,9818.742374840425
1711092064666,6075.35598086426
1711092064706,2391.717958684312
1711092064746,501.69142761523835
1711092064786,-262.35722083458677
1711092064826,-700.9997672662139
1711092064866,-430.50003164820373
1711092064906,-249.49477268126793
1711092064946,-293.752227738034
1711092064986,-873.573625813704
1711092065026,-889.4691281188279
1711092065066,-426.3476807551924
1711092065106,384.40859178546816
1711092065146,1544.5546716754325
1711092065186,2859.7378762685694
1711092065226,3787.0575351447333
1711092065266,4212.57368771825
1711092065306,5416.8615092705
1711092065346,6326.26133349631
1711092065386,7096.663378573023
1711092065426,7921.774396913359
1711092065466,9295.397409290541
1711092065506,8999.47172468109
1711092065546,5679.896838258021
1711092065586,1737.1752379154786
1711092065626,-1650.2553638322279
1711092065666,-3045.505328183761
1711092065706,-3435.4404785418883
1711092065746,-2943.460957397241
1711092065786,-2877.9092614543624
1711092065826,-3313.1694626396056
1711092065866,-3502.7188541467767
1711092065906,-3407.9365181839094
1711092065946,-3240.5823886706494
1711092065986,-2908.258398826001
1711092066026,-2424.7162962858565
1711092066066,-1607.4961769434158
1711092066106,-397.3213111318182
1711092066146,874.7700765337795
1711092066186,2004.1750694848597
1711092066226,2970.2330325960647
1711092066266,3955.5898827095516
1711092066306,4754.915365280816
1711092066346,5893.676266245544
1711092066386,5900.97242701496
1711092066426,2594.568027301226
1711092066466,-1709.9359082255978
1711092066506,-5135.525852362858
1711092066546,-6528.174104952253
1711092066586,-6772.240864794236
1711092066626,-6537.8280004179105
1711092066666,-6031.327688154299
1711092066706,-6110.803438430186
1711092066746,-6341.56913958583
1711092066786,-6501.123222169001
1711092066826,-6183.159872151446
1711092066866,-5895.8248810688965
1711092066906,-4627.033296298236
1711092066946,-3277.7234778485727
1711092066986,-2061.3956331410445
1711092067026,-923.0062474571168
1711092067066,279.89990476262756
1711092067106,1525.9837747584097
1711092067146,2190.226582140196
1711092067186,3190.098328158725
1711092067226,4537.675195293268
1711092067266,6042.551016149577
1711092067306,4288.920295514166
1711092067346,303.1223988449201
1711092067386,-4098.835668757791
1711092067426,-6874.81034234562
1711092067466,-8146.907891548937
1711092067506,-7975.490375992376
1711092067546,-7326.082292063627
1711092067586,-7393.829563924111
1711092067626,-8189.54121338902
1711092067666,-8749.327830719529
1711092067706,-8649.296038791537
1711092067746,-8312.188855599146
1711092067786,-7348.849602763075
1711092067826,-6501.27183735813
1711092067866,-5335.764248616295
1711092067906,-4284.826886802446
1711092067946,-2926.6912417861167
1711092067986,-1289.103560187621
1711092068026,-101.14434253470972
1711092068066,1324.4194178299513
1711092068106,2816.1607719217427
1711092068146,3179.435999956215
1711092068186,91.15824459679425
1711092068226,-4504.753385771997
1711092068266,-8205.479545672424
1711092068306,-10162.513034951407
1711092068346,-10485.63341380516
1711092068386,-10131.439474720275
1711092068426,-9900.05487693008
1711092068466,-9894.660964714363
1711092068506,-10345.204701836687
1711092068546,-10730.015123791061
1711092068586,-10388.882531431038
1711092068626,-9180.869318584213
1711092068666,-7713.732543986291
1711092068706,-6307.708694610978
1711092068746,-4839.241706866771
1711092068786,-3562.4093528478406
1711092068826,-2513.7701284335926
1711092068866,-912.5154509353451
1711092068906,295.7973027427215
1711092068946,1350.1873448998667
1711092068986,3012.660408768337
1711092069026,1491.585656019859
1711092069066,-2861.6273458981887
1711092069106,-8018.104089665227
1711092069146,-10738.51195817301
1711092069186,-12041.939627782907
1711092069226,-12411.73155849427
1711092069266,-12244.398435977055
1711092069306,-12444.968152987305
1711092069346,-13122.108368630055
1711092069386,-13585.818660996389
1711092069426,-13838.707718792604
1711092069466,-12902.002485964447
1711092069506,-11518.98170695547
1711092069546,-10261.277789755724
1711092069586,-8831.482325815829
1711092069626,-7477.351614148356
1711092069665,-5723.892389838118
1711092069706,-4316.858283738606
1711092069746,-2571.296321670525
1711092069786,-1502.2273124682251
1711092069826,-341.05636086594313
1711092069866,546.2450551523361
1711092069906,-2748.3347477549687
1711092069946,-7973.7489209140185
1711092069987,-12474.665583781898
1711092070027,-14550.513275729492
1711092070067,-15339.224586768076
1711092070107,-14839.613815445453
1711092070147,-14791.880470588803
1711092070188,-14784.20266533224
1711092070227,-15602.212315588258
1711092070267,-16593.147854450624
1711092070307,-15971.493177820463
1711092070347,-15223.40738324495
1711092070388,-13672.14705031761
1711092070428,-12860.525060164044
1711092070468,-11399.218248784076
1711092070508,-9755.02580201719
1711092070548,-8023.66683261795
1711092070589,-6521.613325607963
1711092070628,-5442.106797973625
1711092070668,-3661.7693535871804
1711092070708,-2319.4160141269676
1711092070748,-4913.335243547335
1711092070789,-9587.881124936044
1711092070829,-13623.508157679578
1711092070869,-15735.676438138122
1711092070909,-16052.579506177455
1711092070949,-15450.985949755646
1711092070990,-14632.723404939286
1711092071029,-14368.2075702718
1711092071069,-14996.7630607537
1711092071109,-15041.285796436016
1711092071149,-14445.706733935978
1711092071190,-13092.7994739844
1711092071230,-11513.073228235124
1711092071270,-9955.080868276069
1711092071310,-8361.280660981312
1711092071350,-6362.803897011792
1711092071391,-5001.3643510313705
1711092071430,-3478.84307989059
1711092071470,-2109.533802884165
1711092071510,-518.545624922961
1711092071551,-214.6245773367118
1711092071591,-3988.041613397654
1711092071631,-9167.361244525062
1711092071671,-13247.006931539392
1711092071711,-14778.502035300015
1711092071751,-15002.253931460204
1711092071792,-14682.461515444564
1711092071831,-14972.313873531763
1711092071872,-15390.450283349492
1711092071912,-15799.837968124542
1711092071952,-15921.169829516904
1711092071993,-15055.714006107766
1711092072032,-13563.032806082629
1711092072072,-11961.592042740202
1711092072112,-10855.75140516623
1711092072153,-9092.382639469346
1711092072193,-7607.941198417917
1711092072233,-5930.6128034302965
1711092072273,-4636.317512414185
1711092072313,-3327.7750117671676
1711092072353,-1022.6961744362488
1711092072394,319.2068104762584
1711092072434,-2201.110636536032
1711092072474,-7168.195906483568
1711092072514,-12033.262448814232
1711092072554,-14633.12558781309
1711092072595,-15977.257533268537
1711092072634,-16440.038287825882
1711092072674,-16414.978900658432
1711092072714,-16435.93729641568
1711092072755,-16807.227804931346
1711092072795,-16820.15751723945
1711092072835,-16251.417911469936
1711092072875,-14729.768195698503
1711092072915,-13616.163850045297
1711092072955,-12334.185083548073
1711092072996,-10892.84148348542
1711092073035,-9414.04671925027
1711092073075,-8372.640288087074
1711092073116,-6672.37420510035
1711092073156,-5214.1661591310985
1711092073196,-3483.6800896204077
1711092073236,-1424.8337348201312
1711092073276,-1560.9837669595145
1711092073316,-5461.96193052968
1711092073356,-10237.552706227638
1711092073397,-13160.743886665907
1711092073437,-15628.724536102498
1711092073477,-14865.894232009072
1711092073517,-14321.832424211316
1711092073557,-14290.249157118378
1711092073598,-14423.318162399111
1711092073637,-14187.295416093431
1711092073677,-12786.79916528496
1711092073717,-11237.561094324104
1711092073757,-9600.236585573293
1711092073798,-8123.62506829761
1711092073838,-6096.957458104007
1711092073877,-4342.41629019985
1711092073918,-2811.454606084153
1711092073958,-1053.8316725494806
1711092073999,361.2675028955564
1711092074038,2258.86128751887
1711092074078,1833.4436388055328
1711092074118,-2149.8746390272863
1711092074158,-6931.116430633701
1711092074199,-9674.60388526204
1711092074239,-10505.467415649677
1711092074279,-10632.21229351242
1711092074319,-9790.418371067382
1711092074359,-9176.529136120342
1711092074400,-9452.997002569493
1711092074439,-9452.075544679305
1711092074479,-8422.255413471023
1711092074519,-7452.1191847622395
1711092074559,-5918.760563898832
1711092074600,-4152.8697644372005
1711092074639,-2514.2314088521525
1711092074679,-763.122909320984
1711092074719,1045.6691134991124
1711092074760,2818.7535613169894
1711092074800,4269.830263084266
1711092074840,5648.351999764098
1711092074880,7454.540061719017
1711092074920,9050.476995242294
1711092074960,6685.474805432139
1711092075001,2186.902819508221
1711092075040,-1895.1984088895842
1711092075080,-3729.314282101812
1711092075120,-4936.605086794589
1711092075161,-4880.503374806372
1711092075201,-4385.12810298102
1711092075241,-4524.160389427794
1711092075281,-4561.8162739994
1711092075321,-4842.670392544474
1711092075361,-4452.7097377041355
1711092075402,-3309.3914328985848
1711092075441,-1811.9245920218527
1711092075481,-241.63529948168434
1711092075521,1279.0846617543139
1711092075561,3021.9140054464806
1711092075602,4681.07209193008
1711092075642,6073.513023738051
1711092075682,7982.051951833535
1711092075722,10256.694965552539
1711092075762,11692.50656941114
1711092075803,13226.570213386789
1711092075842,12274.797074645292
1711092075882,8192.418726107804
1711092075922,4254.95265549887
1711092075962,1404.6488735680468
1711092076003,145.03756603552029
1711092076042,-320.94195117871277
1711092076083,-149.33349317475222
1711092076123,169.7485777111724
1711092076163,-134.66091432701796
1711092076204,-71.76247905148193
1711092076243,723.0193970145192
1711092076283,1203.3162800099235
1711092076323,2087.932012937963
1711092076363,3207.144683521241
1711092076404,5113.043635766022
1711092076444,6135.666932093445
1711092076484,7677.56741405814
1711092076524,9062.84903458925
1711092076564,10474.459524382371
1711092076605,11817.839860921958
1711092076644,12909.978573111584
1711092076687,14407.105175061617
1711092076724,15837.082787443884
1711092076764,14143.101836422458
1711092076805,10490.105231554713
1711092076845,7057.513629163848
1711092076885,5305.107380662812
1711092076925,4764.93083837023
1711092076965,4452.296636308543
1711092077006,4603.549735405482
1711092077045,4457.6013267985545
1711092077085,3985.903210098855
1711092077125,3908.8935673474334
1711092077165,4529.530184078962
1711092077206,4949.677994863596
1711092077246,6009.168552927906
1711092077286,7490.666079536546
1711092077326,8565.38587711472
1711092077366,10228.12745710113
1711092077407,11133.148149105022
1711092077446,12585.851246402133
1711092077486,13748.68352925824
1711092077526,14728.501792741008
1711092077567,16151.128910095198
1711092077607,17394.701645930763
1711092077647,15541.803936929442
1711092077687,11454.249723077286
1711092077727,8347.69699156098
1711092077767,6492.076070731506
1711092077808,6310.054683403112
1711092077847,6432.882387767546
1711092077888,6371.22636545077
1711092077928,6791.052031012718
1711092077968,6324.948988802964
1711092078009,6001.096736477222
1711092078048,6506.725760772359
1711092078088,7393.343577100895
1711092078128,8219.92835189565
1711092078168,9320.042574631749
1711092078209,10708.150363731897
1711092078248,12082.041252462193
1711092078289,13254.559975614538
1711092078329,14878.985954106785
1711092078369,16063.401799297892
1711092078410,16942.553381269332
1711092078449,17802.81966039585
1711092078489,19185.449576552957
1711092078529,18925.17924139113
1711092078569,15725.722758124815
1711092078610,11616.706994517706
1711092078650,8797.153863362968
1711092078690,7673.192249897169
1711092078730,6896.86485841684
1711092078770,6997.908286816906
1711092078811,6905.7630581057165
1711092078850,6726.812076986069
1711092078893,6253.010727167595
1711092078930,6106.740372207016
1711092078971,6582.651965176221
1711092079012,7339.0656748681795
1711092079051,7799.777029628865
1711092079091,8385.390186738223
1711092079131,9500.999862996629
1711092079171,10873.53209810378
1711092079212,11600.991589528974
1711092079251,12646.43359714048
1711092079291,13860.909524210962
1711092079332,14290.31738062203
1711092079372,15106.71433287207
1711092079413,16818.099545779172
1711092079452,15596.05908593256
1711092079492,11401.624808991328
1711092079532,7689.27883123653
1711092079572,5428.419783170335
1711092079613,4271.803054271033
1711092079653,4196.404576848261
1711092079693,4321.3048206786625
1711092079733,4506.352126067039
1711092079773,3865.316425457131
1711092079814,3675.453199391719
1711092079854,3511.4448697855696
1711092079894,3886.622895319015
1711092079934,4331.880109928083
1711092079974,5449.27552165743
1711092080015,6760.963621338829
1711092080054,7571.135770184454
1711092080094,8189.148277009372
1711092080135,9178.094760751817
1711092080175,10224.651457667816
1711092080216,10984.089501168579
1711092080255,11609.063923806883
1711092080295,12835.859391359147
1711092080335,14379.198938010493
1711092080375,13531.955935225124
1711092080416,10050.077370876214
1711092080456,6278.302627305733
1711092080496,4494.802780971397
1711092080536,3834.2432108242065
1711092080576,3595.03769301204
1711092080617,4413.556374760345
1711092080656,4130.397699645255
1711092080696,3174.626574086258
1711092080736,2513.8844155347906
1711092080776,2616.968584070448
1711092080817,2894.526526046451
1711092080856,2724.782048325287
1711092080896,3946.2422082615085
1711092080936,4862.627852404956
1711092080976,5827.138081585523
1711092081017,6688.164967731107
1711092081057,7589.478081737179
1711092081100,8391.130082034972
1711092081137,9137.2593795422
1711092081177,9885.193280576263
1711092081218,11229.207896348555
1711092081257,10956.304905563826
1711092081297,7913.057489863131
1711092081337,3589.4015570720658
1711092081377,1387.594509149203
1711092081418,-63.91207210486755
1711092081458,-331.9436106442008
1711092081498,-140.62853326881304
1711092081538,180.89669077983126
1711092081578,-436.4164180434309
1711092081619,-1032.08583235275
1711092081658,-1016.5648621928412
1711092081697,-65.68313118815422
1711092081737,43.54642395488918
1711092081777,523.8829118935391
1711092081818,1984.9409627385903
1711092081858,2866.904083092697
1711092081898,3976.4448520382866
1711092081938,4948.920996900182
1711092081978,5993.457137862453
1711092082019,6867.260023776442
1711092082058,7995.5351996007375
1711092082098,9281.839970351197
1711092082138,9157.087988092098
1711092082178,5793.524135814281
1711092082219,2033.6547935297713
1711092082259,-733.517344036838
1711092082299,-1808.3703613104299
1711092082339,-2164.0367420879193
1711092082379,-1943.883676995756
1711092082420,-1569.1527423085645
1711092082459,-1864.2002326813526
1711092082499,-2396.480189323891
1711092082539,-2284.8988696106244
1711092082579,-1841.972651825752
1711092082620,-654.6087218157481
1711092082659,240.78346182592213
1711092082699,1188.3656342900358
1711092082740,2295.2539830026217
1711092082780,3463.674691088265
1711092082821,4700.239763699938
1711092082860,5562.7450053058565
1711092082900,6190.191975036869
1711092082940,6970.83018994634
1711092082980,7726.276560504222
1711092083021,6355.467571020126
1711092083060,2747.6554703351576
1711092083101,-1400.5800416986458
1711092083141,-3477.4479701034725
1711092083181,-4579.181739523774
1711092083222,-4723.392274232116
1711092083261,-4802.698246538872
1711092083301,-4938.491406157147
1711092083341,-5472.1997263533995
1711092083381,-5793.128174314741
1711092083422,-5794.843159943121
1711092083462,-5388.080332853366
1711092083501,-4723.9586793631315
1711092083542,-3886.6016452510376
1711092083582,-2911.849318983499
1711092083623,-1962.9658484100364
1711092083662,-1034.9875762811862
1711092083702,-267.3540018950589
1711092083742,554.2690370073542
1711092083782,1618.0601518671028
1711092083823,2442.546561872121
1711092083862,2506.2711429763585
1711092083903,-854.1272372377571
1711092083943,-5051.435458623804
1711092083983,-7831.891752107302
1711092084024,-9306.14449413796
1711092084063,-9139.9566038372
1711092084103,-8401.114022542257
1711092084143,-8516.277847326826
1711092084183,-8623.306707314216
1711092084224,-8356.073159449268
1711092084264,-8015.91099116439
1711092084304,-7109.299079820747
1711092084344,-6469.503880625358
1711092084384,-5710.834981186083
1711092084425,-4282.023232189473
1711092084464,-2473.7405626266263
1711092084504,-1582.929104403127
1711092084545,-87.38696352019906
1711092084584,1085.975614798721
1711092084625,2071.686614832375
1711092084665,3359.393100939691
1711092084705,3061.2361917556264
1711092084745,-542.8865950172767
1711092084785,-4143.772472681012
1711092084826,-6414.808057566406
1711092084865,-7376.794122684281
1711092084906,-7292.82007925678
1711092084946,-6761.321882571559
1711092084986,-6435.746207437245
1711092085027,-6206.280921984231
1711092085066,-6422.86417082767
1711092085106,-6006.557945132023
1711092085146,-5022.77715263865
1711092085186,-3662.3523652721196
1711092085227,-2473.188411283307
1711092085267,-1319.4294821214862
1711092085307,279.1279949003365
1711092085347,1505.5327514465898
1711092085387,2477.5839349795133
1711092085428,3908.171167112887
1711092085467,5333.927741044899
1711092085507,6648.000777243637
1711092085547,6285.094803058077
1711092085588,3141.6688636392355
1711092085629,-812.9536707815714
1711092085668,-3481.0066719085444
1711092085708,-4742.010413475335
1711092085748,-5451.531300516333
1711092085788,-5183.548547247658
1711092085829,-5435.31755110668
1711092085869,-5785.5893433629535
1711092085909,-5758.573183282046
1711092085949,-5679.3619979447685
1711092085989,-5082.368820037693
1711092086030,-3789.2838244903833
1711092086069,-2984.710385362385
1711092086109,-1997.9587743869051
1711092086149,-477.7907620347105
1711092086189,833.3411103929393
1711092086230,2144.553595340345
1711092086270,3099.8899396862835
1711092086310,4184.256230758969
1711092086350,5613.7569213020615
1711092086390,6786.888900945894
1711092086431,5182.664944455028
1711092086470,1537.5697271092795
1711092086510,-1791.8723468289245
1711092086550,-3330.4698033276945
1711092086591,-4282.550764368614
1711092086631,-4795.427347260062
1711092086671,-4439.580765124876
1711092086711,-4337.111413533334
1711092086751,-4202.5001427871175
1711092086791,-4457.674209225457
1711092086832,-4115.63809181191
1711092086871,-3145.4605899229646
1711092086912,-2452.877997672884
1711092086952,-1336.404212422669
1711092086992,39.14779534097761
1711092087033,1226.2862282777205
1711092087072,2372.073501464911
1711092087112,3559.5732613566797
1711092087152,4504.696070524631
1711092087193,5682.117831523996
1711092087233,7217.383585121483
1711092087273,3954.839001905406
1711092087313,1120.7840118850581
1711092087353,-761.60203086189
1711092087393,-1378.4757711174898
1711092087434,-1496.3893896720838
1711092087473,-795.6537648253143
1711092087513,-868.7709006275982
1711092087553,-1019.476970604388
1711092087593,-1112.174716165755
1711092087634,-787.3564658961259
1711092087674,-303.17055178713053
1711092087714,1482.458748568315
1711092087754,2801.4961670078337
1711092087794,3823.7257920177653
1711092087835,5155.560208593728
1711092087874,6391.321606715443
1711092087914,7597.507790659089
1711092087954,8817.76419309806
1711092087994,9952.924777878448
1711092088035,10934.653687185142
1711092088074,9260.025251841638
1711092088115,5561.230734185083
1711092088155,2192.995949690696
1711092088195,317.21004002541304
1711092088236,-372.2700718543492
1711092088275,-691.3767055133358
1711092088315,-636.0079513429664
1711092088355,-1020.6233053184114
1711092088395,-1413.291917571798
1711092088436,-1214.4981163782068
1711092088475,-808.8980639418587
1711092088516,-41.49729079264216
1711092088556,899.3163613541983
1711092088596,2006.2732943193987
1711092088637,3283.820594496792
1711092088676,4366.87435645191
1711092088716,5591.685089539969
1711092088756,6265.060315801762
1711092088796,7263.487184271682
1711092088837,8527.781956658931
1711092088876,8802.18584474083
1711092088916,6257.989278330933
1711092088956,2311.112106903456
1711092088997,-1249.7347602238879
1711092089037,-2970.5439467087854
1711092089077,-3665.6223018798046
1711092089117,-3989.378355730325
1711092089157,-3858.3932675495744
1711092089197,-3987.6189561111387
1711092089238,-4240.396392839262
1711092089277,-4184.012778095901
1711092089317,-4089.461116882041
1711092089358,-3053.54980381974
1711092089398,-1830.5777244023047
1711092089438,-908.0050619060639
1711092089478,373.9708833603654
1711092089518,1794.9899415085092
1711092089558,2896.966052894946
1711092089598,4142.636731187813
1711092089639,5356.717862810008
1711092089678,6342.190334158018
1711092089718,7419.643359045498
1711092089758,5079.680693644565
1711092089799,1032.1707639195956
1711092089839,-2257.4784374162555
1711092089879,-3879.677079593297
1711092089919,-4932.384858028265
1711092089959,-4557.186331718229
1711092089999,-4213.77241548337
1711092090040,-4332.562570317648
1711092090079,-4889.056249949615
1711092090119,-5076.017092384864
1711092090159,-4593.894317783648
1711092090200,-4105.731065597618
1711092090240,-2770.250659998972
1711092090280,-1708.580297703389
1711092090320,-870.2282157994341
1711092090360,43.72725486964919
1711092090400,1354.1498698692303
1711092090441,2159.620457948651
1711092090480,3345.322197301779
1711092090520,4307.519327383256
1711092090561,3252.6834967930336
1711092090601,-12.276529371505603
1711092090641,-4347.751685226569
1711092090681,-6887.135564496508
1711092090721,-7683.279919965891
1711092090761,-7974.156236445066
1711092090801,-7473.225595830008
1711092090842,-7280.579591760179
1711092090882,-7997.9702917451505
1711092090922,-7478.414595248876
1711092090962,-7137.3414317872375
1711092091002,-6562.624208838446
1711092091043,-5666.266569536645
1711092091082,-4401.653636445291
1711092091122,-2205.4167248420417
1711092091162,-1017.1556106740609
1711092091202,790.8164223674685
1711092091243,2159.2723129382357
1711092091283,3407.2173833777197
1711092091323,4717.5744960568845
1711092091363,6138.2788177835755
1711092091403,7271.682144018821
1711092091444,4629.910503003979
1711092091483,783.3780477801338
1711092091523,-3003.193735848181
1711092091563,-4447.714342019521
1711092091603,-5176.2099968753755
1711092091644,-5103.293814867502
1711092091684,-5025.761874059914
1711092091724,-4989.879880011082
1711092091764,-5366.1402645027265
1711092091804,-5577.769750749692
1711092091845,-5052.140461701201
1711092091884,-4219.160537275486
1711092091924,-2827.992235889891
1711092091964,-1480.6244753070641
1711092092005,-375.09427818097174
1711092092045,920.0790063978638
1711092092085,1966.5893805171363
1711092092125,3321.0444259601645
1711092092165,4683.724198818672
1711092092205,5512.30244386429
1711092092246,6955.612543549854
1711092092285,7696.787892630789
1711092092326,5718.915169364773
1711092092366,1668.1595965102315
1711092092406,-2626.2819295616355
1711092092447,-4315.410015211208
1711092092486,-4966.449687404092
1711092092526,-5133.568180452334
1711092092566,-5405.179322467651
1711092092607,-5572.196126364637
1711092092647,-5709.716597513761
1711092092687,-6010.354048778303
1711092092727,-5613.08402183326
1711092092767,-4578.601413071388
1711092092807,-3446.496225667186
1711092092848,-2644.9460147637874
1711092092887,-1399.3934020432644
1711092092928,-93.7529193602968
1711092092968,1231.3343351040967
1711092093008,2465.110552395694
1711092093049,3680.859633907443
1711092093088,5183.405324015301
1711092093128,6689.343048015144
1711092093168,6924.184136600234
1711092093209,4569.702195073944
1711092093249,1240.037468521623
1711092093289,-1598.641392041929
1711092093329,-2794.4102684352547
1711092093369,-2749.6110408466775
1711092093409,-2587.02668127208
1711092093450,-2393.263255230617
1711092093490,-1839.8234724809881
1711092093530,-2238.6641158743296
1711092093570,-1976.733384651132
1711092093610,-1150.3285677784588
1711092093651,-111.01332194637507
1711092093690,1047.4208025545813
1711092093732,2065.76013527764
1711092093772,3184.053823675029
1711092093813,4451.970350311138
1711092093854,5749.67848805408
1711092093893,6722.886024438078
1711092093933,8077.380098249763
1711092093973,8941.628919321112
1711092094013,8934.371371833375
1711092094054,6325.937990632374
1711092094093,2493.315966367256
1711092094134,369.71476621343754
1711092094174,-503.1558649861254
1711092094214,-831.6905326091219
1711092094255,-63.49689605575986
1711092094294,-530.8189625721425
1711092094334,-377.61107439082116
1711092094374,-693.5383291020989
1711092094414,-818.7475864961743
1711092094455,-368.02857110160403
1711092094494,621.695995358983
1711092094535,1581.2654551949818
1711092094575,2895.5093881266657
1711092094615,4105.54499367252
1711092094656,4965.191673993599
1711092094695,6232.78783808928
1711092094735,7575.686496075476
1711092094775,8280.56761535583
1711092094815,9553.791046437575
1711092094856,9323.060919505078
1711092094895,6274.555952220224
1711092094935,2063.1192312685307
1711092094975,-902.6892109126784
1711092095016,-2489.8243250180967
1711092095056,-3300.500171656953
1711092095096,-3277.2897498444654
1711092095136,-3469.4576183618046
1711092095176,-4084.6359665440395
1711092095216,-4370.588485320564
1711092095257,-4304.103625123389
1711092095296,-4104.599313988583
1711092095336,-3496.949416110292
1711092095377,-2582.6380204968154
1711092095417,-1378.6061434657313
1711092095457,-239.16903715627268
1711092095497,854.9018029966392
1711092095537,1608.622500283178
1711092095577,3162.0310510396957
1711092095617,3435.8109388602898
1711092095658,5073.365943414625
1711092095697,6334.0971076460555
1711092095738,4715.880857769167
1711092095778,721.9482649634592
1711092095818,-2923.539325306192
1711092095859,-5336.493133120239
1711092095898,-6225.032850179123
1711092095938,-6088.452017842559
1711092095978,-6354.506457240554
1711092096019,-6299.982758080354
1711092096059,-6777.351624418516
1711092096099,-7046.81536426628
1711092096139,-6884.322099715937
1711092096179,-6313.281549809501
1711092096219,-5264.186690735398
1711092096260,-4156.327908323146
1711092096299,-2919.472755812574
1711092096339,-2172.3610676261596
1711092096379,-1470.2047976669855
1711092096420,-200.5181649774313
1711092096460,548.9519183496013
1711092096500,1621.3573775766417
1711092096540,2942.8106470417697
1711092096580,1084.0954027117696
1711092096620,-3213.3768222737126
1711092096661,-7135.615995774046
1711092096700,-9615.147918179631
1711092096740,-10724.342943072319
1711092096780,-10527.334073584992
1711092096821,-9947.692091465928
1711092096861,-10119.797549478244
1711092096901,-10502.474290688522
1711092096941,-11000.849053300917
1711092096981,-10779.441828830633
1711092097021,-9811.447817946319
1711092097062,-9113.261897363001
1711092097102,-7689.649762316374
1711092097142,-6690.916668488411
1711092097182,-4992.52176669403
1711092097222,-4080.651472793659
1711092097263,-2659.6591958610807
1711092097302,-1771.805591817014
1711092097342,-494.7301297527738
1711092097382,566.6646894100122
1711092097423,-999.4339233189821
1711092097463,-5868.113569783745
1711092097503,-10436.190013510175
1711092097543,-12897.300913258689
1711092097583,-13867.28837534599
1711092097623,-13648.233704791171
1711092097664,-13409.048022506293
1711092097703,-13648.50265866099
1711092097744,-14061.934076884529
1711092097784,-14524.383827004815
1711092097824,-14293.694934821455
1711092097865,-13123.66476966138
1711092097904,-11732.224892900325
1711092097944,-10434.260390178999
1711092097984,-8954.39657604741
1711092098024,-7204.362893269863
1711092098065,-5736.007581694284
1711092098105,-4560.3524615466595
1711092098145,-3259.989189050393
1711092098185,-1614.8788989316672
1711092098225,-511.79948441311717
1711092098266,-1726.4830020535737
1711092098305,-6424.046905509429
1711092098345,-11278.95088637527
1711092098386,-14726.751752946293
1711092098425,-15533.123221078422
1711092098466,-15828.373441363685
1711092098506,-15097.833833668148
1711092098546,-15052.612518996932
1711092098586,-15589.210050944239
1711092098626,-15791.334470813861
1711092098667,-15925.446145825554
1711092098706,-15247.743955629878
1711092098747,-13932.15349726798
1711092098787,-12338.53655358241
1711092098827,-10447.235343733802
1711092098868,-8815.601711606374
1711092098907,-7514.027727884008
1711092098947,-5577.90562126413
1711092098987,-4219.793515586294
1711092099027,-2611.0129857994616
1711092099068,-523.3210574886762
1711092099108,748.207622773014
1711092099148,-1285.4827366722748
1711092099188,-5286.9443878354505
1711092099228,-9476.3966950248
1711092099269,-11292.49352411204
1711092099308,-12210.67507197801
1711092099348,-11468.511681682896
1711092099388,-11042.313912362792
1711092099429,-11012.680512300692
1711092099470,-11193.115942948498
1711092099509,-10931.841149480082
1711092099549,-10624.816761139315
1711092099589,-9282.214598143706
1711092099629,-7852.245978687191
1711092099670,-6232.579648402287
1711092099710,-4303.449660371523
1711092099750,-3027.986456339946
1711092099790,-1827.1992076528259
1711092099830,-284.0708647125866
1711092099871,1234.4691716386005
1711092099910,2909.868285703473
1711092099950,4999.785042908974
1711092099990,4971.292846494587
1711092100031,1831.784519084962
1711092100072,-2852.36552248057
1711092100111,-5942.28836527653
1711092100151,-7170.721255363431
1711092100191,-7279.860081419814
1711092100231,-6865.236926303944
1711092100272,-6334.582873789594
1711092100311,-6217.559355828213
1711092100351,-6300.136992022861
1711092100392,-5990.519795272732
1711092100432,-5009.366055251798
1711092100473,-3928.991171941627
1711092100512,-1166.3028380076867
1711092100552,323.25591361662373
1711092100592,1994.9449296004605
1711092100632,3441.233027336886
1711092100673,4893.47282939963
1711092100712,6423.523499639938
1711092100752,8175.157082964666
1711092100792,9255.5797259002
1711092100832,6640.714292632183
1711092100873,2835.7558537255973
1711092100913,-698.5549510437995
1711092100953,-1518.4233725401573
1711092100993,-1855.2765990996268
1711092101033,-1810.1610461578239
1711092101073,-970.5782512840815
1711092101113,-1190.5638854596764
1711092101153,-1275.054006026592
1711092101193,-1534.2443717932329
1711092101233,-930.6685865048785
1711092101274,35.566145659890026
1711092101313,1197.7448069443926
1711092101353,2768.916900952114
1711092101394,4207.162434706464
1711092101433,5646.770326821599
1711092101474,7401.0587058365345
1711092101514,8444.930500934832
1711092101554,9816.448350837221
1711092101594,10785.627480790019
1711092101634,11949.506215016823
1711092101675,12278.712641204242
1711092101714,9401.232728949282
1711092101754,5384.6269886051305
1711092101794,2463.790268280776
1711092101834,1383.6782975322567
1711092101875,1112.7251069559716
1711092101915,1546.7557568138
1711092101955,2080.1893880306743
1711092101995,1826.0309700346552
1711092102035,1030.9665266741067
1711092102076,977.5034324973822
1711092102115,1853.6850280247163
1711092102155,2481.5379170910455
1711092102195,3874.7110011882614
1711092102235,4649.33842274081
1711092102276,5710.779863261618
1711092102316,7744.422410986852
1711092102356,8500.072835383005
1711092102396,9967.728437242098
1711092102436,11662.150748104788
1711092102477,12787.177184592932
1711092102516,14513.517523802118
1711092102556,14768.370184085099
1711092102596,12312.8808663846
1711092102636,8371.204940553522
1711092102677,5471.283957628068
1711092102717,4849.243159836391
1711092102756,4471.161328056827
1711092102797,5347.0835699616
1711092102837,5766.0459437433165
1711092102877,5833.815057215048
1711092102917,5542.320239702705
1711092102957,4960.050208264962
1711092102997,5407.85018378403
1711092103037,6212.6541698705405
1711092103078,7643.9469115508255
1711092103117,8975.163667764282
1711092103157,10087.661685658619
1711092103198,11057.751295666676
1711092103238,11602.441973578185
1711092103278,12316.207261369098
1711092103318,13107.730850639753
1711092103358,14284.779482810758
1711092103398,14701.08269394748
1711092103438,13016.576505600242
1711092103479,9459.021315078018
1711092103518,6162.852573204553
1711092103558,4637.628753653262
1711092103598,3941.414533891715
1711092103638,3908.518825488165
1711092103679,3967.972873531282
1711092103719,3635.952610053122
1711092103759,3364.6373542260844
1711092103799,2685.818547828123
1711092103839,3093.676276003942
1711092103880,4081.3114808620885
1711092103919,4886.923867223319
1711092103959,6161.063520098571
1711092103999,6753.904749444919
1711092104039,7929.088490552269
1711092104080,8600.23584984988
1711092104119,9899.38192559965
1711092104160,10905.054008455481
1711092104200,11738.088914224645
1711092104240,13007.917787084356
1711092104281,13796.597450442612
1711092104320,11281.260967479553
1711092104360,7166.940718211699
1711092104400,3538.961435665842
1711092104440,2213.4949156772345
1711092104481,1701.4868148525711
1711092104521,1817.135460649617
1711092104561,2292.9726698573213
1711092104601,1992.1805668487214
1711092104641,1501.7232294464484
1711092104682,1412.5001945744734
1711092104721,1547.9568716741633
1711092104761,1962.2670991746709
1711092104801,2522.114562580362
1711092104841,3320.1786430440843
1711092104882,3786.751473206561
1711092104921,4868.06829605042
1711092104962,6163.31593407155
1711092105002,7095.750690306537
1711092105042,8315.888441093732
1711092105083,9090.475234145531
1711092105122,9479.739044694928
1711092105162,10865.800848759012
1711092105202,10614.873750347644
1711092105243,7105.438033789396
1711092105283,3538.9870501228143
1711092105323,988.227918169694
1711092105363,25.40608114702627
1711092105403,-762.1589368684217
1711092105443,-1044.5310254879296
1711092105484,-636.6062504947186
1711092105523,-1746.0711897318251
1711092105563,-2606.0630089880433
1711092105604,-2188.8976086732
1711092105643,-1998.0629162311088
1711092105684,-914.2697554707993
1711092105724,-346.10820824373513
1711092105763,440.9169541420415
1711092105803,1968.3676982433535
1711092105843,3117.1394686505664
1711092105884,4255.687430103775
1711092105923,4985.0554056535475
1711092105963,5951.681937002344
1711092106003,7277.234169018455
1711092106044,8620.990254941396
1711092106084,8276.642037502024
1711092106124,5280.215927899815
1711092106164,1590.7243310119957
1711092106204,-1142.3466518307105
1711092106244,-2169.948819029145
1711092106285,-2606.0639090565965
1711092106324,-2686.548644317314
1711092106364,-2450.5402511754073
1711092106405,-2404.4248540420085
1711092106445,-3075.318793783663
1711092106486,-3253.0638096048497
1711092106525,-2599.632248255424
1711092106565,-1893.615585168125
1711092106605,-939.6376535263844
1711092106646,242.97883579391055
1711092106686,1773.9638536602724
1711092106726,2765.8073531915434
1711092106766,3609.5629835675936
1711092106806,4821.308517946396
1711092106846,5800.969835724216
1711092106887,6279.037391230464
1711092106926,7239.222541773226
1711092106966,7634.32696040906
1711092107006,5213.548743552528
1711092107047,760.1246507766191
1711092107087,-2725.339694537688
1711092107127,-4595.0674373623915
1711092107167,-5579.612906878348
1711092107207,-5693.349093349185
1711092107247,-5709.817670463584
1711092107288,-6467.4847956199665
1711092107327,-7225.365489275195
1711092107368,-7466.649357485818
1711092107408,-7170.60027390765
1711092107448,-6414.026160647627
1711092107489,-5227.340099713998
1711092107528,-4209.105331927072
1711092107568,-3113.340316161979
1711092107608,-1946.4629951308016
1711092107649,-1017.0259763880167
1711092107689,73.94677474116907
1711092107729,1381.082866627723
1711092107769,2388.9064497589134
1711092107809,3554.757404741831
1711092107849,5102.849666283932
1711092107890,4409.675214210525
1711092107929,1239.6180586165283
1711092107969,-3210.756397998426
1711092108010,-5745.963062927825
1711092108050,-6692.879189485218
1711092108090,-7256.028229245916
1711092108130,-7315.043736606371
1711092108170,-7377.0212925157975
1711092108210,-7901.106739082374
1711092108250,-8691.202944492223
1711092108291,-8497.512441672385
1711092108330,-8012.85101862764
1711092108370,-7427.385273945518
1711092108410,-6362.0499837733805
