dataReceived,timestamp,ppg,status
1711091973298,1711091961239,2097152,0
1711091973298,1711091961277,2471180,0
1711091973298,1711091961317,2471240,0
1711091973298,1711091961358,2471379,0
1711091973298,1711091961397,2471517,0
1711091973298,1711091961437,2471615,0
1711091973298,1711091961477,2471757,0
1711091973298,1711091961517,2471817,0
1711091973298,1711091961558,2471946,0
1711091973298,1711091961598,2471999,0
1711091973298,1711091961638,2140045,0
1711091973298,1711091961678,2140191,0
1711091973298,1711091961718,2140225,0
1711091973298,1711091961759,2140389,0
1711091973298,1711091961798,2140520,0
1711091973298,1711091961838,2120990,0
1711091973298,1711091961878,2120855,0
1711091973298,1711091961918,2120669,0
1711091973298,1711091961959,2120627,0
1711091973298,1711091961999,2120512,0
1711091973298,1711091962039,2082795,0
1711091973298,1711091962079,2082908,0
1711091973298,1711091962119,2083215,0
1711091973298,1711091962160,2083771,0
1711091973298,1711091962199,2084329,0
1711091973298,1711091962239,2084820,0
1711091973298,1711091962279,2085832,0
1711091973298,1711091962319,2087095,0
1711091973298,1711091962360,2088355,0
1711091973298,1711091962400,2090667,0
1711091973298,1711091962439,2092067,0
1711091973298,1711091962480,2092952,0
1711091973298,1711091962520,2092757,0
1711091973298,1711091962561,2091599,0
1711091973298,1711091962600,2090921,0
1711091973298,1711091962640,2090532,0
1711091973298,1711091962680,2089894,0
1711091973298,1711091962720,2089945,0
1711091973298,1711091962761,2090366,0
1711091973298,1711091962800,2090755,0
1711091973298,1711091962841,2091504,0
1711091973298,1711091962881,2091892,0
1711091973298,1711091962921,2089309,0
1711091973298,1711091962962,2082595,0
1711091973298,1711091963001,2075638,0
1711091973298,1711091963041,2069727,0
1711091973298,1711091963081,2064698,0
1711091973298,1711091963121,2060031,0
1711091973298,1711091963162,2055023,0
1711091973298,1711091963202,2048892,0
1711091973298,1711091963242,2041990,0
1711091973298,1711091963282,2036255,0
1711091973298,1711091963322,2031319,0
1711091973298,1711091963363,2027282,0
1711091973298,1711091963402,2023641,0
1711091973298,1711091963445,2020473,0
1711091973298,1711091963483,2017550,0
1711091973298,1711091963522,2015024,0
1711091973298,1711091963564,2012525,0
1711091973298,1711091963603,2009919,0
1711091973298,1711091963643,2007307,0
1711091973298,1711091963683,2004737,0
1711091973298,1711091963723,2002376,0
1711091973298,1711091963764,2000547,0
1711091973298,1711091963803,1998875,0
1711091973298,1711091963844,1997596,0
1711091973298,1711091963884,1993995,0
1711091973298,1711091963924,1984413,0
1711091973298,1711091963965,1972273,0
1711091973298,1711091964004,1961285,0
1711091973298,1711091964044,1952817,0
1711091973298,1711091964084,1945743,0
1711091973298,1711091964124,1939574,0
1711091973298,1711091964165,1933311,0
1711091973298,1711091964205,1926676,0
1711091973298,1711091964245,1919801,0
1711091973298,1711091964285,1913444,0
1711091973298,1711091964325,1908103,0
1711091973298,1711091964366,1903279,0
1711091973298,1711091964405,1899569,0
1711091973298,1711091964445,1896051,0
1711091973298,1711091964485,1893017,0
1711091973298,1711091964526,1889865,0
1711091973298,1711091964567,1887088,0
1711091973298,1711091964606,1884272,0
1711091973298,1711091964646,1881795,0
1711091973298,1711091964686,1879496,0
1711091973298,1711091964726,1877444,0
1711091973298,1711091964767,1875647,0
1711091973298,1711091964807,1874010,0
1711091973298,1711091964847,1872661,0
1711091973298,1711091964887,1871566,0
1711091973298,1711091964927,1867551,0
1711091973298,1711091964968,1858105,0
1711091973298,1711091965007,1846545,0
1711091973298,1711091965047,1836566,0
1711091973298,1711091965087,1829357,0
1711091973298,1711091965127,1823729,0
1711091973298,1711091965169,1818954,0
1711091973298,1711091965208,1814141,0
1711091973298,1711091965248,1808838,0
1711091973298,1711091965288,1803443,0
1711091973298,1711091965328,1798738,0
1711091973298,1711091965369,1795019,0
1711091973298,1711091965408,1792176,0
1711091973298,1711091965448,1790164,0
1711091973298,1711091965488,1788286,0
1711091973298,1711091965529,1786873,0
1711091973298,1711091965570,1785591,0
1711091973298,1711091965609,1784591,0
1711091973298,1711091965652,1783859,0
1711091973298,1711091965689,1783378,0
1711091973298,1711091965729,1782962,0
1711091973298,1711091965770,1782962,0
1711091973298,1711091965809,1783056,0
1711091973298,1711091965849,1783522,0
1711091973298,1711091965890,1784165,0
1711091973298,1711091965930,1782070,0
1711091973298,1711091965971,1775023,0
1711091973298,1711091966010,1765987,0
1711091973298,1711091966050,1758782,0
1711091973298,1711091966090,1753930,0
1711091973298,1711091966131,1750560,0
1711091973298,1711091966172,1748224,0
1711091973298,1711091966211,1745808,0
1711091973298,1711091966251,1742826,0
1711091973298,1711091966291,1739609,0
1711091973298,1711091966331,1737113,0
1711091973298,1711091966372,1735343,0
1711091973298,1711091966411,1734396,0
1711091973298,1711091966452,1733923,0
1711091973298,1711091966492,1733789,0
1711091973298,1711091966532,1734104,0
1711091973298,1711091966573,1734418,0
1711091973298,1711091966612,1734852,0
1711091973298,1711091966652,1735347,0
1711091973298,1711091966692,1735860,0
1711091973298,1711091966733,1736572,0
1711091973298,1711091966774,1737521,0
1711091973298,1711091966813,1738740,0
1711091973298,1711091966853,1739852,0
1711091973298,1711091966893,1741460,0
1711091973298,1711091966933,1740941,0
1711091973298,1711091966974,1735772,0
1711091973298,1711091967013,1728550,0
1711091973298,1711091967053,1722129,0
1711091973298,1711091967093,1718066,0
1711091973298,1711091967133,1715668,0
1711091973298,1711091967174,1714095,0
1711091973298,1711091967213,1712561,0
1711091973298,1711091967253,1710477,0
1711091973298,1711091967294,1708289,0
1711091973298,1711091967334,1706727,0
1711091973298,1711091967375,1705692,0
1711091973298,1711091967414,1705325,0
1711091973298,1711091967454,1705625,0
1711091973298,1711091967494,1706169,0
1711091973298,1711091967534,1707022,0
1711091973298,1711091967575,1707770,0
1711091973298,1711091967614,1708812,0
1711091973298,1711091967654,1709712,0
1711091973298,1711091967695,1710775,0
1711091973298,1711091967735,1711932,0
1711091973298,1711091967776,1713371,0
1711091973298,1711091967815,1714948,0
1711091973298,1711091967855,1716808,0
1711091973298,1711091967895,1718691,0
1711091973298,1711091967935,1718738,0
1711091973298,1711091967976,1714702,0
1711091973298,1711091968015,1709045,0
1711091973298,1711091968055,1704511,0
1711091973298,1711091968095,1702284,0
1711091973298,1711091968136,1701202,0
1711091973298,1711091968177,1700909,0
1711091973298,1711091968216,1700505,0
1711091973298,1711091968256,1699550,0
1711091973298,1711091968296,1698267,0
1711091973298,1711091968336,1697696,0
1711091973298,1711091968377,1697687,0
1711091973298,1711091968416,1698169,0
1711091973298,1711091968456,1699170,0
1711091973298,1711091968496,1700396,0
1711091973298,1711091968536,1701703,0
1711091973298,1711091968577,1703056,0
1711091973298,1711091968617,1704749,0
1711091973298,1711091968657,1706289,0
1711091973298,1711091968697,1708194,0
1711091973298,1711091968737,1710016,0
1711091973298,1711091968778,1712081,0
1711091973298,1711091968817,1714126,0
1711091973298,1711091968857,1716458,0
1711091973298,1711091968897,1718650,0
1711091973298,1711091968937,1717901,0
1711091973298,1711091968978,1713770,0
1711091973298,1711091969018,1708867,0
1711091973298,1711091969058,1705593,0
1711091973298,1711091969098,1704164,0
1711091973298,1711091969138,1703390,0
1711091973298,1711091969179,1703032,0
1711091973298,1711091969218,1702691,0
1711091973298,1711091969258,1701829,0
1711091973298,1711091969298,1701270,0
1711091973298,1711091969338,1701114,0
1711091973298,1711091969379,1701443,0
1711091973298,1711091969419,1702253,0
1711091973298,1711091969459,1703458,0
1711091973298,1711091969499,1704860,0
1711091973298,1711091969539,1706328,0
1711091973298,1711091969580,1707848,0
1711091973298,1711091969619,1709529,0
1711091973298,1711091969659,1711207,0
1711091973298,1711091969699,1712800,0
1711091973298,1711091969739,1714647,0
1711091973298,1711091969780,1716599,0
1711091973298,1711091969819,1718761,0
1711091973298,1711091969860,1720888,0
1711091973298,1711091969900,1723110,0
1711091973298,1711091969940,1723413,0
1711091973298,1711091969981,1720410,0
1711091973298,1711091970020,1716010,0
1711091973298,1711091970060,1712855,0
1711091973298,1711091970100,1711421,0
1711091973298,1711091970140,1711086,0
1711091973298,1711091970181,1711159,0
1711091973298,1711091970221,1711124,0
1711091973298,1711091970260,1710550,0
1711091973298,1711091970301,1709954,0
1711091973298,1711091970341,1709743,0
1711091973298,1711091970382,1710101,0
1711091973298,1711091970421,1711002,0
1711091973298,1711091970461,1712213,0
1711091973298,1711091970501,1713579,0
1711091973298,1711091970541,1714973,0
1711091973298,1711091970583,1716445,0
1711091973298,1711091970622,1718105,0
1711091973298,1711091970662,1719902,0
1711091973298,1711091970702,1721771,0
1711091973298,1711091970742,1723648,0
1711091973298,1711091970783,1725803,0
1711091973298,1711091970822,1727988,0
1711091973298,1711091970862,1730488,0
1711091973298,1711091970902,1731941,0
1711091973298,1711091970943,1730355,0
1711091973298,1711091970984,1726757,0
1711091973298,1711091971023,1723554,0
1711091973298,1711091971063,1722129,0
1711091973298,1711091971103,1721635,0
1711091973298,1711091971143,1722145,0
1711091973298,1711091971184,1722328,0
1711091973298,1711091971223,1722441,0
1711091973298,1711091971263,1722173,0
1711091973298,1711091971304,1722094,0
1711091973298,1711091971344,1722615,0
1711091973298,1711091971385,1723528,0
1711091973298,1711091971424,1725014,0
1711091973298,1711091971464,1726484,0
1711091973298,1711091971504,1728126,0
1711091973298,1711091971544,1729727,0
1711091973298,1711091971585,1731469,0
1711091973298,1711091971624,1733099,0
1711091973298,1711091971665,1735105,0
1711091973298,1711091971705,1736839,0
1711091973298,1711091971745,1738867,0
1711091973298,1711091971786,1740906,0
1711091973298,1711091971825,1743202,0
1711091973298,1711091971865,1745761,0
1711091973298,1711091971906,1746921,0
1711091973298,1711091971946,1744957,0
1711091973298,1711091971987,1741385,0
1711091973298,1711091972026,1738400,0
1711091973298,1711091972066,1736989,0
1711091973298,1711091972106,1736675,0
1711091973298,1711091972146,1736700,0
1711091973298,1711091972187,1736916,0
1711091973298,1711091972226,1736629,0
1711091973298,1711091972267,1736236,0
1711091973298,1711091972307,1736164,0
1711091973298,1711091972347,1736494,0
1711091973298,1711091972388,1737070,0
1711091973298,1711091972427,1738292,0
1711091973298,1711091972467,1739551,0
1711091973298,1711091972507,1740917,0
1711091973298,1711091972547,1742394,0
1711091973298,1711091972588,1743913,0
1711091973298,1711091972628,1745386,0
1711091973298,1711091972668,1747132,0
1711091973298,1711091972708,1748797,0
1711091973298,1711091972748,1750590,0
1711091973298,1711091972789,1752636,0
1711091973298,1711091972828,1754585,0
1711091973298,1711091972869,1756801,0
1711091973298,1711091972909,1759110,0
1711091973298,1711091972949,1760032,0
1711091973298,1711091972990,1757929,0
1711091973298,1711091973029,1754540,0
1711091973298,1711091973069,1752034,0
1711091973298,1711091973109,1750947,0
1711091973298,1711091973149,1750848,0
1711091973298,1711091973190,1751136,0
1711091973298,1711091973230,1751389,0
1711091985384,1711091973325,1751180,0
1711091985384,1711091973365,1750922,0
1711091985384,1711091973405,1751036,0
1711091985384,1711091973446,1751515,0
1711091985384,1711091973485,1752472,0
1711091985384,1711091973525,1753651,0
1711091985384,1711091973565,1754978,0
1711091985384,1711091973606,1756295,0
1711091985384,1711091973647,1757695,0
1711091985384,1711091973686,1759219,0
1711091985384,1711091973726,1760863,0
1711091985384,1711091973766,1762464,0
1711091985384,1711091973806,1764227,0
1711091985384,1711091973847,1766192,0
1711091985384,1711091973887,1767970,0
1711091985384,1711091973927,1770162,0
1711091985384,1711091973967,1772261,0
1711091985384,1711091974007,1774625,0
1711091985384,1711091974048,1775268,0
1711091985384,1711091974087,1773522,0
1711091985384,1711091974127,1770860,0
1711091985384,1711091974167,1769153,0
1711091985384,1711091974207,1768797,0
1711091985384,1711091974249,1769126,0
1711091985384,1711091974288,1770076,0
1711091985384,1711091974328,1770741,0
1711091985384,1711091974368,1770898,0
1711091985384,1711091974408,1771130,0
1711091985384,1711091974449,1771530,0
1711091985384,1711091974488,1772380,0
1711091985384,1711091974528,1773687,0
1711091985384,1711091974568,1775182,0
1711091985384,1711091974609,1776753,0
1711091985384,1711091974649,1778427,0
1711091985384,1711091974689,1779916,0
1711091985384,1711091974729,1781698,0
1711091985384,1711091974769,1783451,0
1711091985384,1711091974809,1785256,0
1711091985384,1711091974850,1786987,0
1711091985384,1711091974889,1789083,0
1711091985384,1711091974929,1790995,0
1711091985384,1711091974969,1793026,0
1711091985384,1711091975009,1795240,0
1711091985384,1711091975050,1797283,0
1711091985384,1711091975090,1796921,0
1711091985384,1711091975130,1794885,0
1711091985384,1711091975170,1792754,0
1711091985384,1711091975210,1791912,0
1711091985384,1711091975251,1792300,0
1711091985384,1711091975290,1792906,0
1711091985384,1711091975330,1793921,0
1711091985384,1711091975370,1794627,0
1711091985384,1711091975410,1794869,0
1711091985384,1711091975452,1795396,0
1711091985384,1711091975491,1796120,0
1711091985384,1711091975531,1797338,0
1711091985384,1711091975571,1798648,0
1711091985384,1711091975611,1800308,0
1711091985384,1711091975652,1801821,0
1711091985384,1711091975691,1803342,0
1711091985384,1711091975731,1805045,0
1711091985384,1711091975771,1806837,0
1711091985384,1711091975812,1808455,0
1711091985384,1711091975853,1810151,0
1711091985384,1711091975892,1812039,0
1711091985384,1711091975932,1813897,0
1711091985384,1711091975972,1815817,0
1711091985384,1711091976012,1817731,0
1711091985384,1711091976053,1819881,0
1711091985384,1711091976092,1821699,0
1711091985384,1711091976132,1821721,0
1711091985384,1711091976173,1819592,0
1711091985384,1711091976213,1817506,0
1711091985384,1711091976253,1816541,0
1711091985384,1711091976293,1816603,0
1711091985384,1711091976333,1817174,0
1711091985384,1711091976373,1818049,0
1711091985384,1711091976413,1818538,0
1711091985384,1711091976454,1818858,0
1711091985384,1711091976493,1819112,0
1711091985384,1711091976534,1819586,0
1711091985384,1711091976574,1820539,0
1711091985384,1711091976614,1821685,0
1711091985384,1711091976655,1822984,0
1711091985384,1711091976694,1824559,0
1711091985384,1711091976734,1825940,0
1711091985384,1711091976774,1827355,0
1711091985384,1711091976814,1828879,0
1711091985384,1711091976855,1830422,0
1711091985384,1711091976895,1831811,0
1711091985384,1711091976935,1833548,0
1711091985384,1711091976975,1835189,0
1711091985384,1711091977016,1836875,0
1711091985384,1711091977056,1838674,0
1711091985384,1711091977096,1840501,0
1711091985384,1711091977136,1842276,0
1711091985384,1711091977176,1842422,0
1711091985384,1711091977216,1840721,0
1711091985384,1711091977258,1838544,0
1711091985384,1711091977297,1837286,0
1711091985384,1711091977337,1837139,0
1711091985384,1711091977378,1837777,0
1711091985384,1711091977418,1838526,0
1711091985384,1711091977459,1838849,0
1711091985384,1711091977499,1839002,0
1711091985384,1711091977539,1839279,0
1711091985384,1711091977580,1839524,0
1711091985384,1711091977620,1840159,0
1711091985384,1711091977661,1841279,0
1711091985384,1711091977700,1842389,0
1711091985384,1711091977741,1843711,0
1711091985384,1711091977781,1845016,0
1711091985384,1711091977821,1846342,0
1711091985384,1711091977862,1847491,0
1711091985384,1711091977902,1848969,0
1711091985384,1711091977942,1850264,0
1711091985384,1711091977982,1851867,0
1711091985384,1711091978022,1853356,0
1711091985384,1711091978063,1854951,0
1711091985384,1711091978103,1856814,0
1711091985384,1711091978143,1858085,0
1711091985384,1711091978183,1857421,0
1711091985384,1711091978224,1855027,0
1711091985384,1711091978265,1852888,0
1711091985384,1711091978304,1851872,0
1711091985384,1711091978345,1851858,0
1711091985384,1711091978385,1852186,0
1711091985384,1711091978425,1852744,0
1711091985384,1711091978466,1852889,0
1711091985384,1711091978505,1852745,0
1711091985384,1711091978546,1852696,0
1711091985384,1711091978586,1853022,0
1711091985384,1711091978626,1853657,0
1711091985384,1711091978667,1854646,0
1711091985384,1711091978707,1855616,0
1711091985384,1711091978747,1856688,0
1711091985384,1711091978787,1857857,0
1711091985384,1711091978828,1859150,0
1711091985384,1711091978869,1860259,0
1711091985384,1711091978910,1861535,0
1711091985384,1711091978950,1862600,0
1711091985384,1711091978990,1864052,0
1711091985384,1711091979030,1865432,0
1711091985384,1711091979071,1866922,0
1711091985384,1711091979111,1868165,0
1711091985384,1711091979151,1867140,0
1711091985384,1711091979191,1864369,0
1711091985384,1711091979231,1861461,0
1711091985384,1711091979272,1859890,0
1711091985384,1711091979312,1859304,0
1711091985384,1711091979352,1859170,0
1711091985384,1711091979392,1859069,0
1711091985384,1711091979432,1858640,0
1711091985384,1711091979473,1857960,0
1711091985384,1711091979512,1857417,0
1711091985384,1711091979553,1857220,0
1711091985384,1711091979593,1857345,0
1711091985384,1711091979633,1857752,0
1711091985384,1711091979674,1858330,0
1711091985384,1711091979713,1859013,0
1711091985384,1711091979754,1859655,0
1711091985384,1711091979794,1860433,0
1711091985384,1711091979834,1861336,0
1711091985384,1711091979875,1862239,0
1711091985384,1711091979915,1863157,0
1711091985384,1711091979955,1864249,0
1711091985384,1711091979995,1865196,0
1711091985384,1711091980035,1866567,0
1711091985384,1711091980077,1867698,0
1711091985384,1711091980116,1866097,0
1711091985384,1711091980157,1862917,0
1711091985384,1711091980197,1859915,0
1711091985384,1711091980237,1857945,0
1711091985384,1711091980278,1857089,0
1711091985384,1711091980318,1856498,0
1711091985384,1711091980358,1856074,0
1711091985384,1711091980398,1855374,0
1711091985384,1711091980438,1854447,0
1711091985384,1711091980479,1853645,0
1711091985384,1711091980519,1853220,0
1711091985384,1711091980559,1853179,0
1711091985384,1711091980599,1853462,0
1711091985384,1711091980640,1853846,0
1711091985384,1711091980681,1854437,0
1711091985384,1711091980720,1855053,0
1711091985384,1711091980761,1855694,0
1711091985384,1711091980801,1856424,0
1711091985384,1711091980841,1857073,0
1711091985384,1711091980882,1857887,0
1711091985384,1711091980921,1858862,0
1711091985384,1711091980962,1859941,0
1711091985384,1711091981002,1860997,0
1711091985384,1711091981042,1860828,0
1711091985384,1711091981083,1858218,0
1711091985384,1711091981123,1854854,0
1711091985384,1711091981163,1852432,0
1711091985384,1711091981203,1851223,0
1711091985384,1711091981243,1850826,0
1711091985384,1711091981284,1850703,0
1711091985384,1711091981324,1850178,0
1711091985384,1711091981364,1849609,0
1711091985384,1711091981404,1848777,0
1711091985384,1711091981444,1848366,0
1711091985384,1711091981486,1848452,0
1711091985384,1711091981525,1848624,0
1711091985384,1711091981565,1849341,0
1711091985384,1711091981606,1849931,0
1711091985384,1711091981646,1850722,0
1711091985384,1711091981687,1851407,0
1711091985384,1711091981726,1852214,0
1711091985384,1711091981767,1853189,0
1711091985384,1711091981807,1854129,0
1711091985384,1711091981847,1855185,0
1711091985384,1711091981888,1856280,0
1711091985384,1711091981927,1857647,0
1711091985384,1711091981968,1857793,0
1711091985384,1711091982008,1855555,0
1711091985384,1711091982048,1852091,0
1711091985384,1711091982089,1849260,0
1711091985384,1711091982128,1847817,0
1711091985384,1711091982169,1847144,0
1711091985384,1711091982209,1846690,0
1711091985384,1711091982249,1846230,0
1711091985384,1711091982290,1845359,0
1711091985384,1711091982329,1844681,0
1711091985384,1711091982369,1844002,0
1711091985384,1711091982410,1844048,0
1711091985384,1711091982450,1844151,0
1711091985384,1711091982491,1844626,0
1711091985384,1711091982530,1845120,0
1711091985384,1711091982570,1845719,0
1711091985384,1711091982610,1846238,0
1711091985384,1711091982651,1846871,0
1711091985384,1711091982692,1847419,0
1711091985384,1711091982731,1848152,0
1711091985384,1711091982771,1848888,0
1711091985384,1711091982811,1849963,0
1711091985384,1711091982852,1851304,0
1711091985384,1711091982892,1852374,0
1711091985384,1711091982932,1851351,0
1711091985384,1711091982972,1848261,0
1711091985384,1711091983012,1844939,0
1711091985384,1711091983053,1843005,0
1711091985384,1711091983093,1841948,0
1711091985384,1711091983133,1841082,0
1711091985384,1711091983173,1840758,0
1711091985384,1711091983213,1840289,0
1711091985384,1711091983254,1839677,0
1711091985384,1711091983295,1839131,0
1711091985384,1711091983334,1838904,0
1711091985384,1711091983374,1839360,0
1711091985384,1711091983415,1839884,0
1711091985384,1711091983455,1840635,0
1711091985384,1711091983496,1841485,0
1711091985384,1711091983536,1842525,0
1711091985384,1711091983576,1843363,0
1711091985384,1711091983616,1844225,0
1711091985384,1711091983656,1845263,0
1711091985384,1711091983697,1846309,0
1711091985384,1711091983737,1847569,0
1711091985384,1711091983777,1848847,0
1711091985384,1711091983817,1850282,0
1711091985384,1711091983857,1850480,0
1711091985384,1711091983899,1848442,0
1711091985384,1711091983938,1845418,0
1711091985384,1711091983978,1842952,0
1711091985384,1711091984019,1841898,0
1711091985384,1711091984059,1841340,0
1711091985384,1711091984100,1841220,0
1711091985384,1711091984139,1841000,0
1711091985384,1711091984180,1840507,0
1711091985384,1711091984220,1839978,0
1711091985384,1711091984260,1839525,0
1711091985384,1711091984301,1839610,0
1711091985384,1711091984340,1839925,0
1711091985384,1711091984381,1840529,0
1711091985384,1711091984421,1841277,0
1711091985384,1711091984461,1842094,0
1711091985384,1711091984502,1843077,0
1711091985384,1711091984542,1844117,0
1711091985384,1711091984582,1845045,0
1711091985384,1711091984622,1846034,0
1711091985384,1711091984663,1847142,0
1711091985384,1711091984704,1848255,0
1711091985384,1711091984743,1849517,0
1711091985384,1711091984783,1850791,0
1711091985384,1711091984824,1850030,0
1711091985384,1711091984864,1847362,0
1711091985384,1711091984905,1844456,0
1711091985384,1711091984944,1842705,0
1711091985384,1711091984985,1842190,0
1711091985384,1711091985025,1842178,0
1711091985384,1711091985065,1842579,0
1711091985384,1711091985106,1842787,0
1711091985384,1711091985146,1842604,0
1711091985384,1711091985186,1842377,0
1711091985384,1711091985226,1842688,0
1711091985384,1711091985266,1844235,0
1711091985384,1711091985307,1845324,0
1711091985384,1711091985347,1846542,0
1711091997426,1711091985381,1847705,0
1711091997426,1711091985421,1848985,0
1711091997426,1711091985461,1850061,0
1711091997426,1711091985502,1851436,0
1711091997426,1711091985541,1852547,0
1711091997426,1711091985581,1853889,0
1711091997426,1711091985621,1854990,0
1711091997426,1711091985661,1856259,0
1711091997426,1711091985702,1856947,0
1711091997426,1711091985741,1855181,0
1711091997426,1711091985782,1852067,0
1711091997426,1711091985822,1849307,0
1711091997426,1711091985862,1847858,0
1711091997426,1711091985902,1847152,0
1711091997426,1711091985942,1846808,0
1711091997426,1711091985982,1846560,0
1711091997426,1711091986022,1846099,0
1711091997426,1711091986062,1845625,0
1711091997426,1711091986103,1845231,0
1711091997426,1711091986142,1845154,0
1711091997426,1711091986183,1845574,0
1711091997426,1711091986223,1846014,0
1711091997426,1711091986263,1846784,0
1711091997426,1711091986304,1847488,0
1711091997426,1711091986343,1848528,0
1711091997426,1711091986383,1849482,0
1711091997426,1711091986423,1850311,0
1711091997426,1711091986463,1851299,0
1711091997426,1711091986504,1852276,0
1711091997426,1711091986543,1853336,0
1711091997426,1711091986583,1854532,0
1711091997426,1711091986623,1855614,0
1711091997426,1711091986664,1855353,0
1711091997426,1711091986704,1852554,0
1711091997426,1711091986744,1849575,0
1711091997426,1711091986784,1847509,0
1711091997426,1711091986824,1846555,0
1711091997426,1711091986864,1846213,0
1711091997426,1711091986905,1846306,0
1711091997426,1711091986944,1846125,0
1711091997426,1711091986984,1845602,0
1711091997426,1711091987024,1845033,0
1711091997426,1711091987064,1844838,0
1711091997426,1711091987105,1844874,0
1711091997426,1711091987145,1845487,0
1711091997426,1711091987185,1846159,0
1711091997426,1711091987225,1847022,0
1711091997426,1711091987265,1847924,0
1711091997426,1711091987306,1848848,0
1711091997426,1711091987345,1849877,0
1711091997426,1711091987385,1850839,0
1711091997426,1711091987425,1851931,0
1711091997426,1711091987465,1852928,0
1711091997426,1711091987506,1854050,0
1711091997426,1711091987546,1855444,0
1711091997426,1711091987586,1855301,0
1711091997426,1711091987626,1852999,0
1711091997426,1711091987666,1849921,0
1711091997426,1711091987707,1847731,0
1711091997426,1711091987746,1846753,0
1711091997426,1711091987786,1846499,0
1711091997426,1711091987826,1846858,0
1711091997426,1711091987867,1846741,0
1711091997426,1711091987907,1846399,0
1711091997426,1711091987947,1845995,0
1711091997426,1711091987987,1845953,0
1711091997426,1711091988027,1846220,0
1711091997426,1711091988067,1846711,0
1711091997426,1711091988108,1847585,0
1711091997426,1711091988147,1848609,0
1711091997426,1711091988187,1849501,0
1711091997426,1711091988227,1850660,0
1711091997426,1711091988267,1851735,0
1711091997426,1711091988308,1852752,0
1711091997426,1711091988348,1854020,0
1711091997426,1711091988388,1855235,0
1711091997426,1711091988428,1856527,0
1711091997426,1711091988468,1857835,0
1711091997426,1711091988509,1859107,0
1711091997426,1711091988548,1857902,0
1711091997426,1711091988588,1855175,0
1711091997426,1711091988628,1852068,0
1711091997426,1711091988668,1850306,0
1711091997426,1711091988709,1849735,0
1711091997426,1711091988749,1849658,0
1711091997426,1711091988789,1849596,0
1711091997426,1711091988829,1849425,0
1711091997426,1711091988869,1848911,0
1711091997426,1711091988910,1848538,0
1711091997426,1711091988949,1848689,0
1711091997426,1711091988989,1848899,0
1711091997426,1711091989029,1849562,0
1711091997426,1711091989070,1850446,0
1711091997426,1711091989110,1851284,0
1711091997426,1711091989150,1852174,0
1711091997426,1711091989190,1853196,0
1711091997426,1711091989230,1854049,0
1711091997426,1711091989270,1854894,0
1711091997426,1711091989311,1855885,0
1711091997426,1711091989350,1856928,0
1711091997426,1711091989390,1858044,0
1711091997426,1711091989431,1859469,0
1711091997426,1711091989471,1859846,0
1711091997426,1711091989511,1858042,0
1711091997426,1711091989551,1854934,0
1711091997426,1711091989591,1852275,0
1711091997426,1711091989631,1850924,0
1711091997426,1711091989671,1850402,0
1711091997426,1711091989712,1850438,0
1711091997426,1711091989751,1850628,0
1711091997426,1711091989792,1850347,0
1711091997426,1711091989832,1849891,0
1711091997426,1711091989872,1849632,0
1711091997426,1711091989913,1849787,0
1711091997426,1711091989952,1850306,0
1711091997426,1711091989992,1851177,0
1711091997426,1711091990032,1852132,0
1711091997426,1711091990072,1853035,0
1711091997426,1711091990113,1854347,0
1711091997426,1711091990153,1855266,0
1711091997426,1711091990193,1856554,0
1711091997426,1711091990233,1857959,0
1711091997426,1711091990273,1859374,0
1711091997426,1711091990314,1861100,0
1711091997426,1711091990353,1863061,0
1711091997426,1711091990393,1863813,0
1711091997426,1711091990433,1862366,0
1711091997426,1711091990474,1859916,0
1711091997426,1711091990515,1857781,0
1711091997426,1711091990554,1856906,0
1711091997426,1711091990594,1856550,0
1711091997426,1711091990634,1856581,0
1711091997426,1711091990674,1856211,0
1711091997426,1711091990715,1855283,0
1711091997426,1711091990755,1854172,0
1711091997426,1711091990795,1853365,0
1711091997426,1711091990835,1852670,0
1711091997426,1711091990875,1852443,0
1711091997426,1711091990916,1852577,0
1711091997426,1711091990955,1852763,0
1711091997426,1711091990995,1853186,0
1711091997426,1711091991035,1853954,0
1711091997426,1711091991076,1854655,0
1711091997426,1711091991117,1855145,0
1711091997426,1711091991156,1855928,0
1711091997426,1711091991196,1856986,0
1711091997426,1711091991236,1858525,0
1711091997426,1711091991276,1860545,0
1711091997426,1711091991317,1861404,0
1711091997426,1711091991357,1860441,0
1711091997426,1711091991397,1858572,0
1711091997426,1711091991438,1857285,0
1711091997426,1711091991478,1857081,0
1711091997426,1711091991519,1857398,0
1711091997426,1711091991558,1857779,0
1711091997426,1711091991598,1857793,0
1711091997426,1711091991638,1857386,0
1711091997426,1711091991678,1856646,0
1711091997426,1711091991719,1855774,0
1711091997426,1711091991759,1854965,0
1711091997426,1711091991799,1853986,0
1711091997426,1711091991839,1852928,0
1711091997426,1711091991879,1852231,0
1711091997426,1711091991920,1851682,0
1711091997426,1711091991959,1851036,0
1711091997426,1711091991999,1850529,0
1711091997426,1711091992040,1850366,0
1711091997426,1711091992080,1850444,0
1711091997426,1711091992120,1850711,0
1711091997426,1711091992160,1851336,0
1711091997426,1711091992200,1852334,0
1711091997426,1711091992240,1853091,0
1711091997426,1711091992280,1851255,0
1711091997426,1711091992321,1847418,0
1711091997426,1711091992360,1843995,0
1711091997426,1711091992400,1841506,0
1711091997426,1711091992441,1840283,0
1711091997426,1711091992481,1839513,0
1711091997426,1711091992521,1838807,0
1711091997426,1711091992561,1838123,0
1711091997426,1711091992601,1837136,0
1711091997426,1711091992641,1836924,0
1711091997426,1711091992681,1837009,0
1711091997426,1711091992722,1837314,0
1711091997426,1711091992761,1837786,0
1711091997426,1711091992801,1838411,0
1711091997426,1711091992841,1838757,0
1711091997426,1711091992881,1839132,0
1711091997426,1711091992922,1839285,0
1711091997426,1711091992962,1839481,0
1711091997426,1711091993002,1839886,0
1711091997426,1711091993042,1840817,0
1711091997426,1711091993082,1841845,0
1711091997426,1711091993123,1843127,0
1711091997426,1711091993162,1844439,0
1711091997426,1711091993202,1843855,0
1711091997426,1711091993242,1840376,0
1711091997426,1711091993283,1836072,0
1711091997426,1711091993323,1832812,0
1711091997426,1711091993363,1830884,0
1711091997426,1711091993403,1829695,0
1711091997426,1711091993443,1828944,0
1711091997426,1711091993483,1827937,0
1711091997426,1711091993524,1826662,0
1711091997426,1711091993563,1825331,0
1711091997426,1711091993603,1824305,0
1711091997426,1711091993643,1823672,0
1711091997426,1711091993683,1823655,0
1711091997426,1711091993724,1823701,0
1711091997426,1711091993764,1823918,0
1711091997426,1711091993804,1824472,0
1711091997426,1711091993844,1825249,0
1711091997426,1711091993884,1825942,0
1711091997426,1711091993925,1826926,0
1711091997426,1711091993964,1827814,0
1711091997426,1711091994004,1828906,0
1711091997426,1711091994044,1829884,0
1711091997426,1711091994084,1830961,0
1711091997426,1711091994125,1829494,0
1711091997426,1711091994165,1825968,0
1711091997426,1711091994205,1822138,0
1711091997426,1711091994245,1819726,0
1711091997426,1711091994285,1818495,0
1711091997426,1711091994326,1818210,0
1711091997426,1711091994365,1817861,0
1711091997426,1711091994405,1817278,0
1711091997426,1711091994445,1816107,0
1711091997426,1711091994485,1814929,0
1711091997426,1711091994526,1814271,0
1711091997426,1711091994566,1813970,0
1711091997426,1711091994606,1814050,0
1711091997426,1711091994646,1814117,0
1711091997426,1711091994686,1814487,0
1711091997426,1711091994727,1814813,0
1711091997426,1711091994766,1815443,0
1711091997426,1711091994806,1816078,0
1711091997426,1711091994847,1817059,0
1711091997426,1711091994887,1817875,0
1711091997426,1711091994927,1819193,0
1711091997426,1711091994967,1820054,0
1711091997426,1711091995007,1818116,0
1711091997426,1711091995047,1814037,0
1711091997426,1711091995087,1809859,0
1711091997426,1711091995128,1807297,0
1711091997426,1711091995167,1806182,0
1711091997426,1711091995208,1805715,0
1711091997426,1711091995248,1805645,0
1711091997426,1711091995288,1804998,0
1711091997426,1711091995329,1804208,0
1711091997426,1711091995368,1803426,0
1711091997426,1711091995408,1803072,0
1711091997426,1711091995448,1803272,0
1711091997426,1711091995488,1803873,0
1711091997426,1711091995529,1804617,0
1711091997426,1711091995569,1805542,0
1711091997426,1711091995608,1806364,0
1711091997426,1711091995649,1807197,0
1711091997426,1711091995689,1808229,0
1711091997426,1711091995730,1809126,0
1711091997426,1711091995769,1810130,0
1711091997426,1711091995809,1811300,0
1711091997426,1711091995849,1812593,0
1711091997426,1711091995889,1812120,0
1711091997426,1711091995930,1808636,0
1711091997426,1711091995969,1803818,0
1711091997426,1711091996010,1800184,0
1711091997426,1711091996050,1798111,0
1711091997426,1711091996090,1796965,0
1711091997426,1711091996131,1796269,0
1711091997426,1711091996170,1795237,0
1711091997426,1711091996210,1793882,0
1711091997426,1711091996250,1792476,0
1711091997426,1711091996291,1791428,0
1711091997426,1711091996331,1790906,0
1711091997426,1711091996371,1790740,0
1711091997426,1711091996411,1790816,0
1711091997426,1711091996451,1791148,0
1711091997426,1711091996491,1791545,0
1711091997426,1711091996532,1792132,0
1711091997426,1711091996571,1792802,0
1711091997426,1711091996612,1793654,0
1711091997426,1711091996652,1794413,0
1711091997426,1711091996692,1795279,0
1711091997426,1711091996733,1796453,0
1711091997426,1711091996772,1797854,0
1711091997426,1711091996812,1796755,0
1711091997426,1711091996852,1792876,0
1711091997426,1711091996893,1788461,0
1711091997426,1711091996934,1785456,0
1711091997426,1711091996973,1783709,0
1711091997426,1711091997013,1782814,0
1711091997426,1711091997053,1782318,0
1711091997426,1711091997094,1781680,0
1711091997426,1711091997135,1780461,0
1711091997426,1711091997174,1779438,0
1711091997426,1711091997214,1778743,0
1711091997426,1711091997255,1778657,0
1711091997426,1711091997295,1778888,0
1711091997426,1711091997336,1779368,0
1711091997426,1711091997376,1779946,0
1711092009478,1711091997418,1780587,0
1711092009478,1711091997458,1781407,0
1711092009478,1711091997498,1782045,0
1711092009478,1711091997539,1782990,0
1711092009478,1711091997578,1783963,0
1711092009478,1711091997618,1785008,0
1711092009478,1711091997658,1786221,0
1711092009478,1711091997699,1787697,0
1711092009478,1711091997739,1788131,0
1711092009478,1711091997779,1785800,0
1711092009478,1711091997819,1781606,0
1711092009478,1711091997859,1777925,0
1711092009478,1711091997899,1775928,0
1711092009478,1711091997940,1775101,0
1711092009478,1711091997980,1774719,0
1711092009478,1711091998020,1774435,0
1711092009478,1711091998060,1773742,0
1711092009478,1711091998100,1772769,0
1711092009478,1711091998141,1772161,0
1711092009478,1711091998180,1771991,0
1711092009478,1711091998221,1772468,0
1711092009478,1711091998261,1773033,0
1711092009478,1711091998301,1773983,0
1711092009478,1711091998342,1774961,0
1711092009478,1711091998381,1776910,0
1711092009478,1711091998421,1778098,0
1711092009478,1711091998461,1779287,0
1711092009478,1711091998501,1780578,0
1711092009478,1711091998542,1782079,0
1711092009478,1711091998581,1783821,0
1711092009478,1711091998621,1784193,0
1711092009478,1711091998661,1781817,0
1711092009478,1711091998702,1778131,0
1711092009478,1711091998742,1775313,0
1711092009478,1711091998782,1773930,0
1711092009478,1711091998822,1773457,0
1711092009478,1711091998862,1773648,0
1711092009478,1711091998902,1773591,0
1711092009478,1711091998943,1773327,0
1711092009478,1711091998982,1772689,0
1711092009478,1711091999022,1772537,0
1711092009478,1711091999062,1772879,0
1711092009478,1711091999102,1773719,0
1711092009478,1711091999143,1774598,0
1711092009478,1711091999183,1775857,0
1711092009478,1711091999223,1777074,0
1711092009478,1711091999263,1778372,0
1711092009478,1711091999303,1779774,0
1711092009478,1711091999344,1781108,0
1711092009478,1711091999383,1782668,0
1711092009478,1711091999423,1784267,0
1711092009478,1711091999463,1785996,0
1711092009478,1711091999503,1787679,0
1711092009478,1711091999544,1787528,0
1711092009478,1711091999584,1784615,0
1711092009478,1711091999624,1780637,0
1711092009478,1711091999664,1777976,0
1711092009478,1711091999704,1776835,0
1711092009478,1711091999745,1776100,0
1711092009478,1711091999784,1775987,0
1711092009478,1711091999824,1775593,0
1711092009478,1711091999864,1775054,0
1711092009478,1711091999904,1773987,0
1711092009478,1711091999945,1773530,0
1711092009478,1711091999985,1773519,0
1711092009478,1711092000025,1774128,0
1711092009478,1711092000065,1775131,0
1711092009478,1711092000105,1776110,0
1711092009478,1711092000146,1777432,0
1711092009478,1711092000185,1778580,0
1711092009478,1711092000225,1780128,0
1711092009478,1711092000265,1781550,0
1711092009478,1711092000305,1783158,0
1711092009478,1711092000346,1784766,0
1711092009478,1711092000386,1786655,0
1711092009478,1711092000426,1788669,0
1711092009478,1711092000466,1790289,0
1711092009478,1711092000506,1789392,0
1711092009478,1711092000547,1786238,0
1711092009478,1711092000586,1783310,0
1711092009478,1711092000626,1781719,0
1711092009478,1711092000666,1781098,0
1711092009478,1711092000706,1780990,0
1711092009478,1711092000747,1781057,0
1711092009478,1711092000787,1780953,0
1711092009478,1711092000827,1780785,0
1711092009478,1711092000867,1780596,0
1711092009478,1711092000907,1780572,0
1711092009478,1711092000948,1781337,0
1711092009478,1711092000987,1782488,0
1711092009478,1711092001027,1783594,0
1711092009478,1711092001067,1784870,0
1711092009478,1711092001107,1786280,0
1711092009478,1711092001148,1787656,0
1711092009478,1711092001187,1789100,0
1711092009478,1711092001228,1790689,0
1711092009478,1711092001268,1792204,0
1711092009478,1711092001308,1793852,0
1711092009478,1711092001349,1795575,0
1711092009478,1711092001388,1797529,0
1711092009478,1711092001428,1799267,0
1711092009478,1711092001468,1798626,0
1711092009478,1711092001508,1796049,0
1711092009478,1711092001549,1793418,0
1711092009478,1711092001589,1792109,0
1711092009478,1711092001629,1792059,0
1711092009478,1711092001669,1792473,0
1711092009478,1711092001709,1793106,0
1711092009478,1711092001750,1793306,0
1711092009478,1711092001789,1793283,0
1711092009478,1711092001829,1793345,0
1711092009478,1711092001869,1793715,0
1711092009478,1711092001909,1794559,0
1711092009478,1711092001950,1795678,0
1711092009478,1711092001990,1796981,0
1711092009478,1711092002030,1798412,0
1711092009478,1711092002070,1799576,0
1711092009478,1711092002110,1801112,0
1711092009478,1711092002151,1802485,0
1711092009478,1711092002190,1804172,0
1711092009478,1711092002230,1805770,0
1711092009478,1711092002270,1807492,0
1711092009478,1711092002310,1809301,0
1711092009478,1711092002351,1811271,0
1711092009478,1711092002391,1812481,0
1711092009478,1711092002431,1811162,0
1711092009478,1711092002471,1808425,0
1711092009478,1711092002511,1806153,0
1711092009478,1711092002552,1805450,0
1711092009478,1711092002591,1805522,0
1711092009478,1711092002631,1806141,0
1711092009478,1711092002671,1806738,0
1711092009478,1711092002711,1806937,0
1711092009478,1711092002752,1806822,0
1711092009478,1711092002792,1806869,0
1711092009478,1711092002832,1807518,0
1711092009478,1711092002872,1808356,0
1711092009478,1711092002912,1809446,0
1711092009478,1711092002953,1810725,0
1711092009478,1711092002992,1812021,0
1711092009478,1711092003033,1813548,0
1711092009478,1711092003073,1814745,0
1711092009478,1711092003113,1816146,0
1711092009478,1711092003154,1817519,0
1711092009478,1711092003193,1818992,0
1711092009478,1711092003233,1820469,0
1711092009478,1711092003273,1822012,0
1711092009478,1711092003313,1823832,0
1711092009478,1711092003354,1825003,0
1711092009478,1711092003394,1823346,0
1711092009478,1711092003434,1820352,0
1711092009478,1711092003474,1817660,0
1711092009478,1711092003514,1816123,0
1711092009478,1711092003555,1815358,0
1711092009478,1711092003595,1815129,0
1711092009478,1711092003635,1815289,0
1711092009478,1711092003675,1815318,0
1711092009478,1711092003716,1815071,0
1711092009478,1711092003757,1814866,0
1711092009478,1711092003796,1815018,0
1711092009478,1711092003837,1815458,0
1711092009478,1711092003877,1816251,0
1711092009478,1711092003917,1817164,0
1711092009478,1711092003958,1818462,0
1711092009478,1711092003998,1820019,0
1711092009478,1711092004038,1821477,0
1711092009478,1711092004078,1823121,0
1711092009478,1711092004118,1824804,0
1711092009478,1711092004159,1826429,0
1711092009478,1711092004199,1827933,0
1711092009478,1711092004239,1829316,0
1711092009478,1711092004279,1830889,0
1711092009478,1711092004319,1832366,0
1711092009478,1711092004361,1831558,0
1711092009478,1711092004400,1829075,0
1711092009478,1711092004440,1826518,0
1711092009478,1711092004481,1825234,0
1711092009478,1711092004521,1825044,0
1711092009478,1711092004562,1825293,0
1711092009478,1711092004601,1825720,0
1711092009478,1711092004641,1825952,0
1711092009478,1711092004681,1825964,0
1711092009478,1711092004722,1825871,0
1711092009478,1711092004763,1826199,0
1711092009478,1711092004802,1826807,0
1711092009478,1711092004842,1827697,0
1711092009478,1711092004882,1828740,0
1711092009478,1711092004923,1829770,0
1711092009478,1711092004963,1830915,0
1711092009478,1711092005003,1831977,0
1711092009478,1711092005043,1833188,0
1711092009478,1711092005083,1834221,0
1711092009478,1711092005123,1835473,0
1711092009478,1711092005164,1836706,0
1711092009478,1711092005204,1837924,0
1711092009478,1711092005244,1839460,0
1711092009478,1711092005284,1840621,0
1711092009478,1711092005324,1839242,0
1711092009478,1711092005365,1836426,0
1711092009478,1711092005404,1833700,0
1711092009478,1711092005445,1832198,0
1711092009478,1711092005485,1831853,0
1711092009478,1711092005525,1832247,0
1711092009478,1711092005566,1832593,0
1711092009478,1711092005605,1832484,0
1711092009478,1711092005645,1832073,0
1711092009478,1711092005686,1831783,0
1711092009478,1711092005726,1831920,0
1711092009478,1711092005767,1832441,0
1711092009478,1711092005807,1833173,0
1711092009478,1711092005847,1834255,0
1711092009478,1711092005887,1835327,0
1711092009478,1711092005927,1836486,0
1711092009478,1711092005968,1837624,0
1711092009478,1711092006007,1838867,0
1711092009478,1711092006048,1840134,0
1711092009478,1711092006088,1841419,0
1711092009478,1711092006128,1842860,0
1711092009478,1711092006169,1844186,0
1711092009478,1711092006209,1843614,0
1711092009478,1711092006249,1840972,0
1711092009478,1711092006289,1837683,0
1711092009478,1711092006329,1835611,0
1711092009478,1711092006370,1834925,0
1711092009478,1711092006410,1834833,0
1711092009478,1711092006450,1835107,0
1711092009478,1711092006490,1835236,0
1711092009478,1711092006531,1834733,0
1711092009478,1711092006572,1834102,0
1711092009478,1711092006611,1833965,0
1711092009478,1711092006652,1834094,0
1711092009478,1711092006692,1834646,0
1711092009478,1711092006732,1835440,0
1711092009478,1711092006773,1836267,0
1711092009478,1711092006813,1837065,0
1711092009478,1711092006853,1838027,0
1711092009478,1711092006893,1839048,0
1711092009478,1711092006933,1840044,0
1711092009478,1711092006974,1840984,0
1711092009478,1711092007014,1842211,0
1711092009478,1711092007054,1843263,0
1711092009478,1711092007094,1844602,0
1711092009478,1711092007135,1843437,0
1711092009478,1711092007176,1840011,0
1711092009478,1711092007215,1836253,0
1711092009478,1711092007255,1833502,0
1711092009478,1711092007296,1832338,0
1711092009478,1711092007336,1831690,0
1711092009478,1711092007377,1831368,0
1711092009478,1711092007416,1830605,0
1711092009478,1711092007457,1829453,0
1711092009478,1711092007497,1828272,0
1711092009478,1711092007537,1827469,0
1711092009478,1711092007578,1827283,0
1711092009478,1711092007618,1827330,0
1711092009478,1711092007658,1827580,0
1711092009478,1711092007698,1827982,0
1711092009478,1711092007739,1828551,0
1711092009478,1711092007779,1829214,0
1711092009478,1711092007819,1829809,0
1711092009478,1711092007859,1830464,0
1711092009478,1711092007899,1831386,0
1711092009478,1711092007940,1833320,0
1711092009478,1711092007981,1834400,0
1711092009478,1711092008021,1833816,0
1711092009478,1711092008061,1830344,0
1711092009478,1711092008101,1825845,0
1711092009478,1711092008141,1822298,0
1711092009478,1711092008182,1820329,0
1711092009478,1711092008222,1819061,0
1711092009478,1711092008262,1818307,0
1711092009478,1711092008302,1817116,0
1711092009478,1711092008342,1815777,0
1711092009478,1711092008383,1814178,0
1711092009478,1711092008422,1813189,0
1711092009478,1711092008463,1812568,0
1711092009478,1711092008503,1812397,0
1711092009478,1711092008543,1812571,0
1711092009478,1711092008584,1812893,0
1711092009478,1711092008623,1813176,0
1711092009478,1711092008663,1813550,0
1711092009478,1711092008703,1813989,0
1711092009478,1711092008744,1814468,0
1711092009478,1711092008785,1815045,0
1711092009478,1711092008824,1815815,0
1711092009478,1711092008864,1816538,0
1711092009478,1711092008904,1817662,0
1711092009478,1711092008945,1817283,0
1711092009478,1711092008985,1814064,0
1711092009478,1711092009025,1809695,0
1711092009478,1711092009065,1806230,0
1711092009478,1711092009105,1804323,0
1711092009478,1711092009146,1803254,0
1711092009478,1711092009187,1802726,0
1711092009478,1711092009226,1801959,0
1711092009478,1711092009266,1800772,0
1711092009478,1711092009307,1799536,0
1711092009478,1711092009347,1798550,0
1711092009478,1711092009388,1798078,0
1711092009478,1711092009427,1798119,0
1711092021547,1711092009470,1798330,0
1711092021547,1711092009510,1798981,0
1711092021547,1711092009550,1799429,0
1711092021547,1711092009591,1800129,0
1711092021547,1711092009631,1800872,0
1711092021547,1711092009671,1801577,0
1711092021547,1711092009711,1802619,0
1711092021547,1711092009751,1803621,0
1711092021547,1711092009792,1804643,0
1711092021547,1711092009831,1805995,0
1711092021547,1711092009871,1807195,0
1711092021547,1711092009912,1805740,0
1711092021547,1711092009952,1801711,0
1711092021547,1711092009992,1797367,0
1711092021547,1711092010032,1794498,0
1711092021547,1711092010072,1792973,0
1711092021547,1711092010112,1792007,0
1711092021547,1711092010152,1791182,0
1711092021547,1711092010193,1790156,0
1711092021547,1711092010232,1788867,0
1711092021547,1711092010273,1787679,0
1711092021547,1711092010313,1787068,0
1711092021547,1711092010353,1786804,0
1711092021547,1711092010394,1786969,0
1711092021547,1711092010433,1787622,0
1711092021547,1711092010473,1788149,0
1711092021547,1711092010513,1788821,0
1711092021547,1711092010553,1789576,0
1711092021547,1711092010594,1790331,0
1711092021547,1711092010634,1791398,0
1711092021547,1711092010674,1792215,0
1711092021547,1711092010714,1793390,0
1711092021547,1711092010754,1794607,0
1711092021547,1711092010795,1796048,0
1711092021547,1711092010834,1797517,0
1711092021547,1711092010874,1797867,0
1711092021547,1711092010914,1795146,0
1711092021547,1711092010955,1791151,0
1711092021547,1711092010996,1787728,0
1711092021547,1711092011035,1785887,0
1711092021547,1711092011075,1784723,0
1711092021547,1711092011115,1784069,0
1711092021547,1711092011155,1783445,0
1711092021547,1711092011196,1782467,0
1711092021547,1711092011236,1781551,0
1711092021547,1711092011276,1780792,0
1711092021547,1711092011316,1780578,0
1711092021547,1711092011356,1780721,0
1711092021547,1711092011396,1781175,0
1711092021547,1711092011436,1781803,0
1711092021547,1711092011476,1782534,0
1711092021547,1711092011516,1783178,0
1711092021547,1711092011556,1784074,0
1711092021547,1711092011597,1785028,0
1711092021547,1711092011637,1786164,0
1711092021547,1711092011677,1787300,0
1711092021547,1711092011717,1788785,0
1711092021547,1711092011757,1790089,0
1711092021547,1711092011798,1791769,0
1711092021547,1711092011837,1792627,0
1711092021547,1711092011877,1790515,0
1711092021547,1711092011917,1786731,0
1711092021547,1711092011958,1783592,0
1711092021547,1711092011998,1782001,0
1711092021547,1711092012038,1781347,0
1711092021547,1711092012078,1781001,0
1711092021547,1711092012118,1780677,0
1711092021547,1711092012158,1780298,0
1711092021547,1711092012199,1779766,0
1711092021547,1711092012238,1779508,0
1711092021547,1711092012279,1779570,0
1711092021547,1711092012319,1780060,0
1711092021547,1711092012359,1780810,0
1711092021547,1711092012400,1781811,0
1711092021547,1711092012439,1782928,0
1711092021547,1711092012479,1783986,0
1711092021547,1711092012519,1785109,0
1711092021547,1711092012560,1786332,0
1711092021547,1711092012600,1787653,0
1711092021547,1711092012640,1789077,0
1711092021547,1711092012680,1790626,0
1711092021547,1711092012720,1792291,0
1711092021547,1711092012760,1793986,0
1711092021547,1711092012801,1795754,0
1711092021547,1711092012840,1795813,0
1711092021547,1711092012881,1793133,0
1711092021547,1711092012921,1789473,0
1711092021547,1711092012961,1786957,0
1711092021547,1711092013002,1785779,0
1711092021547,1711092013041,1785129,0
1711092021547,1711092013081,1784930,0
1711092021547,1711092013121,1784648,0
1711092021547,1711092013162,1784241,0
1711092021547,1711092013202,1783592,0
1711092021547,1711092013242,1783559,0
1711092021547,1711092013282,1783758,0
1711092021547,1711092013322,1784484,0
1711092021547,1711092013362,1785318,0
1711092021547,1711092013403,1786531,0
1711092021547,1711092013442,1787652,0
1711092021547,1711092013482,1788829,0
1711092021547,1711092013522,1790086,0
1711092021547,1711092013562,1791498,0
1711092021547,1711092013603,1792884,0
1711092021547,1711092013643,1794261,0
1711092021547,1711092013683,1795799,0
1711092021547,1711092013723,1797518,0
1711092021547,1711092013763,1799178,0
1711092021547,1711092013804,1801017,0
1711092021547,1711092013843,1800887,0
1711092021547,1711092013883,1798417,0
1711092021547,1711092013923,1795188,0
1711092021547,1711092013963,1792799,0
1711092021547,1711092014004,1791996,0
1711092021547,1711092014043,1791815,0
1711092021547,1711092014084,1791923,0
1711092021547,1711092014124,1791749,0
1711092021547,1711092014164,1791334,0
1711092021547,1711092014205,1790900,0
1711092021547,1711092014244,1790861,0
1711092021547,1711092014284,1791140,0
1711092021547,1711092014324,1791656,0
1711092021547,1711092014364,1792631,0
1711092021547,1711092014405,1793650,0
1711092021547,1711092014444,1794739,0
1711092021547,1711092014485,1795833,0
1711092021547,1711092014525,1796976,0
1711092021547,1711092014565,1798175,0
1711092021547,1711092014606,1799383,0
1711092021547,1711092014645,1800827,0
1711092021547,1711092014685,1802144,0
1711092021547,1711092014725,1803579,0
1711092021547,1711092014765,1805217,0
1711092021547,1711092014806,1806791,0
1711092021547,1711092014845,1805963,0
1711092021547,1711092014885,1803469,0
1711092021547,1711092014926,1800399,0
1711092021547,1711092014966,1798846,0
1711092021547,1711092015006,1798282,0
1711092021547,1711092015046,1798522,0
1711092021547,1711092015086,1798788,0
1711092021547,1711092015126,1798822,0
1711092021547,1711092015166,1798547,0
1711092021547,1711092015207,1798259,0
1711092021547,1711092015246,1798391,0
1711092021547,1711092015287,1798873,0
1711092021547,1711092015327,1799715,0
1711092021547,1711092015367,1800712,0
1711092021547,1711092015408,1801825,0
1711092021547,1711092015447,1803095,0
1711092021547,1711092015487,1804093,0
1711092021547,1711092015528,1805356,0
1711092021547,1711092015568,1806701,0
1711092021547,1711092015609,1807950,0
1711092021547,1711092015648,1809347,0
1711092021547,1711092015689,1810870,0
1711092021547,1711092015729,1812410,0
1711092021547,1711092015769,1814149,0
1711092021547,1711092015810,1815765,0
1711092021547,1711092015849,1814811,0
1711092021547,1711092015890,1811894,0
1711092021547,1711092015930,1808761,0
1711092021547,1711092015970,1806818,0
1711092021547,1711092016011,1806161,0
1711092021547,1711092016051,1806061,0
1711092021547,1711092016091,1806248,0
1711092021547,1711092016131,1806040,0
1711092021547,1711092016172,1805426,0
1711092021547,1711092016212,1805026,0
1711092021547,1711092016252,1804988,0
1711092021547,1711092016292,1805163,0
1711092021547,1711092016332,1805758,0
1711092021547,1711092016376,1806574,0
1711092021547,1711092016417,1807495,0
1711092021547,1711092016456,1808552,0
1711092021547,1711092016499,1809515,0
1711092021547,1711092016537,1810719,0
1711092021547,1711092016577,1811801,0
1711092021547,1711092016618,1813106,0
1711092021547,1711092016658,1814220,0
1711092021547,1711092016698,1815749,0
1711092021547,1711092016738,1816996,0
1711092021547,1711092016778,1818557,0
1711092021547,1711092016819,1820036,0
1711092021547,1711092016859,1819236,0
1711092021547,1711092016899,1815914,0
1711092021547,1711092016939,1811736,0
1711092021547,1711092016980,1809059,0
1711092021547,1711092017022,1807827,0
1711092021547,1711092017061,1807295,0
1711092021547,1711092017101,1806909,0
1711092021547,1711092017142,1806173,0
1711092021547,1711092017182,1805357,0
1711092021547,1711092017223,1804991,0
1711092021547,1711092017262,1805087,0
1711092021547,1711092017302,1805607,0
1711092021547,1711092017343,1806368,0
1711092021547,1711092017383,1807028,0
1711092021547,1711092017424,1807747,0
1711092021547,1711092017463,1808454,0
1711092021547,1711092017503,1809470,0
1711092021547,1711092017543,1810426,0
1711092021547,1711092017583,1811726,0
1711092021547,1711092017625,1813169,0
1711092021547,1711092017664,1814894,0
1711092021547,1711092017704,1816515,0
1711092021547,1711092017744,1817958,0
1711092021547,1711092017784,1819633,0
1711092021547,1711092017825,1820598,0
1711092021547,1711092017865,1819022,0
1711092021547,1711092017905,1815985,0
1711092021547,1711092017945,1812743,0
1711092021547,1711092017985,1810694,0
1711092021547,1711092018026,1809948,0
1711092021547,1711092018066,1809758,0
1711092021547,1711092018106,1809641,0
1711092021547,1711092018146,1809093,0
1711092021547,1711092018186,1808278,0
1711092021547,1711092018227,1807539,0
1711092021547,1711092018267,1807127,0
1711092021547,1711092018307,1807119,0
1711092021547,1711092018347,1807558,0
1711092021547,1711092018387,1807990,0
1711092021547,1711092018428,1808632,0
1711092021547,1711092018468,1809432,0
1711092021547,1711092018508,1810398,0
1711092021547,1711092018548,1811548,0
1711092021547,1711092018588,1812702,0
1711092021547,1711092018629,1813667,0
1711092021547,1711092018669,1814641,0
1711092021547,1711092018712,1815788,0
1711092021547,1711092018749,1817279,0
1711092021547,1711092018790,1817532,0
1711092021547,1711092018831,1815126,0
1711092021547,1711092018870,1811172,0
1711092021547,1711092018910,1807619,0
1711092021547,1711092018952,1805865,0
1711092021547,1711092018992,1805151,0
1711092021547,1711092019033,1805024,0
1711092021547,1711092019073,1804853,0
1711092021547,1711092019113,1804207,0
1711092021547,1711092019153,1803027,0
1711092021547,1711092019194,1802146,0
1711092021547,1711092019235,1801800,0
1711092021547,1711092019274,1801811,0
1711092021547,1711092019314,1802429,0
1711092021547,1711092019354,1803069,0
1711092021547,1711092019395,1803836,0
1711092021547,1711092019436,1804572,0
1711092021547,1711092019475,1805092,0
1711092021547,1711092019515,1805634,0
1711092021547,1711092019556,1806311,0
1711092021547,1711092019596,1807240,0
1711092021547,1711092019637,1808452,0
1711092021547,1711092019677,1809720,0
1711092021547,1711092019717,1811183,0
1711092021547,1711092019757,1810159,0
1711092021547,1711092019798,1806557,0
1711092021547,1711092019838,1802198,0
1711092021547,1711092019878,1799282,0
1711092021547,1711092019918,1797860,0
1711092021547,1711092019958,1797302,0
1711092021547,1711092019999,1797208,0
1711092021547,1711092020040,1796700,0
1711092021547,1711092020079,1795465,0
1711092021547,1711092020119,1794290,0
1711092021547,1711092020160,1793496,0
1711092021547,1711092020200,1793310,0
1711092021547,1711092020241,1793514,0
1711092021547,1711092020281,1793883,0
1711092021547,1711092020321,1794368,0
1711092021547,1711092020361,1795105,0
1711092021547,1711092020401,1795869,0
1711092021547,1711092020442,1796651,0
1711092021547,1711092020482,1797413,0
1711092021547,1711092020522,1798274,0
1711092021547,1711092020562,1799320,0
1711092021547,1711092020602,1800505,0
1711092021547,1711092020643,1801829,0
1711092021547,1711092020682,1802933,0
1711092021547,1711092020723,1801790,0
1711092021547,1711092020763,1797962,0
1711092021547,1711092020803,1793497,0
1711092021547,1711092020844,1790366,0
1711092021547,1711092020884,1788722,0
1711092021547,1711092020926,1787941,0
1711092021547,1711092020964,1787487,0
1711092021547,1711092021004,1786630,0
1711092021547,1711092021045,1785292,0
1711092021547,1711092021084,1783837,0
1711092021547,1711092021125,1782937,0
1711092021547,1711092021165,1782652,0
1711092021547,1711092021205,1782784,0
1711092021547,1711092021246,1783163,0
1711092021547,1711092021285,1783613,0
1711092021547,1711092021325,1784167,0
1711092021547,1711092021366,1784795,0
1711092021547,1711092021406,1785535,0
1711092021547,1711092021447,1786251,0
1711092021547,1711092021486,1787031,0
1711092033571,1711092021529,1788056,0
1711092033571,1711092021569,1789081,0
1711092033571,1711092021609,1790368,0
1711092033571,1711092021650,1791529,0
1711092033571,1711092021690,1790173,0
1711092033571,1711092021730,1786319,0
1711092033571,1711092021770,1782063,0
1711092033571,1711092021810,1778954,0
1711092033571,1711092021851,1777382,0
1711092033571,1711092021890,1776734,0
1711092033571,1711092021930,1776378,0
1711092033571,1711092021970,1775492,0
1711092033571,1711092022010,1774038,0
1711092033571,1711092022051,1772363,0
1711092033571,1711092022091,1771201,0
1711092033571,1711092022131,1770551,0
1711092033571,1711092022171,1770524,0
1711092033571,1711092022211,1770919,0
1711092033571,1711092022252,1771810,0
1711092033571,1711092022291,1772709,0
1711092033571,1711092022332,1773604,0
1711092033571,1711092022372,1774318,0
1711092033571,1711092022412,1774939,0
1711092033571,1711092022453,1775476,0
1711092033571,1711092022492,1775951,0
1711092033571,1711092022532,1776820,0
1711092033571,1711092022572,1777929,0
1711092033571,1711092022612,1778666,0
1711092033571,1711092022653,1776962,0
1711092033571,1711092022693,1772980,0
1711092033571,1711092022733,1769293,0
1711092033571,1711092022773,1767122,0
1711092033571,1711092022813,1766108,0
1711092033571,1711092022854,1765689,0
1711092033571,1711092022893,1765386,0
1711092033571,1711092022933,1764930,0
1711092033571,1711092022973,1763901,0
1711092033571,1711092023013,1762990,0
1711092033571,1711092023054,1762470,0
1711092033571,1711092023093,1762395,0
1711092033571,1711092023134,1762863,0
1711092033571,1711092023174,1763471,0
1711092033571,1711092023214,1764260,0
1711092033571,1711092023255,1765266,0
1711092033571,1711092023294,1766412,0
1711092033571,1711092023334,1767400,0
1711092033571,1711092023375,1768529,0
1711092033571,1711092023415,1769334,0
1711092033571,1711092023455,1770765,0
1711092033571,1711092023495,1772191,0
1711092033571,1711092023535,1772078,0
1711092033571,1711092023575,1768791,0
1711092033571,1711092023615,1764276,0
1711092033571,1711092023656,1760921,0
1711092033571,1711092023696,1759063,0
1711092033571,1711092023736,1757872,0
1711092033571,1711092023776,1757392,0
1711092033571,1711092023816,1756631,0
1711092033571,1711092023857,1755433,0
1711092033571,1711092023896,1754078,0
1711092033571,1711092023936,1753038,0
1711092033571,1711092023976,1752963,0
1711092033571,1711092024017,1753164,0
1711092033571,1711092024057,1753603,0
1711092033571,1711092024097,1754448,0
1711092033571,1711092024137,1755281,0
1711092033571,1711092024177,1756144,0
1711092033571,1711092024217,1757163,0
1711092033571,1711092024258,1758161,0
1711092033571,1711092024298,1759436,0
1711092033571,1711092024338,1760544,0
1711092033571,1711092024378,1762018,0
1711092033571,1711092024418,1763559,0
1711092033571,1711092024459,1762823,0
1711092033571,1711092024498,1759091,0
1711092033571,1711092024538,1754597,0
1711092033571,1711092024579,1751505,0
1711092033571,1711092024619,1749725,0
1711092033571,1711092024660,1748695,0
1711092033571,1711092024699,1748044,0
1711092033571,1711092024739,1747461,0
1711092033571,1711092024779,1746473,0
1711092033571,1711092024820,1745456,0
1711092033571,1711092024860,1744914,0
1711092033571,1711092024900,1744859,0
1711092033571,1711092024940,1745145,0
1711092033571,1711092024980,1745836,0
1711092033571,1711092025020,1746603,0
1711092033571,1711092025061,1747432,0
1711092033571,1711092025101,1748391,0
1711092033571,1711092025141,1749441,0
1711092033571,1711092025181,1750564,0
1711092033571,1711092025221,1751900,0
1711092033571,1711092025262,1753209,0
1711092033571,1711092025301,1754768,0
1711092033571,1711092025342,1756303,0
1711092033571,1711092025382,1758079,0
1711092033571,1711092025422,1758748,0
1711092033571,1711092025463,1756336,0
1711092033571,1711092025502,1752130,0
1711092033571,1711092025542,1748318,0
1711092033571,1711092025583,1746178,0
1711092033571,1711092025622,1745155,0
1711092033571,1711092025663,1744593,0
1711092033571,1711092025703,1743196,0
1711092033571,1711092025743,1742100,0
1711092033571,1711092025783,1741110,0
1711092033571,1711092025823,1740729,0
1711092033571,1711092025864,1740702,0
1711092033571,1711092025903,1741254,0
1711092033571,1711092025943,1742036,0
1711092033571,1711092025983,1742812,0
1711092033571,1711092026023,1743734,0
1711092033571,1711092026064,1744753,0
1711092033571,1711092026104,1745802,0
1711092033571,1711092026144,1747043,0
1711092033571,1711092026184,1748263,0
1711092033571,1711092026224,1749719,0
1711092033571,1711092026265,1750985,0
1711092033571,1711092026304,1752852,0
1711092033571,1711092026344,1753133,0
1711092033571,1711092026384,1750676,0
1711092033571,1711092026424,1746940,0
1711092033571,1711092026465,1743855,0
1711092033571,1711092026504,1742319,0
1711092033571,1711092026545,1741704,0
1711092033571,1711092026585,1741716,0
1711092033571,1711092026625,1741736,0
1711092033571,1711092026666,1741274,0
1711092033571,1711092026705,1740613,0
1711092033571,1711092026745,1740550,0
1711092033571,1711092026785,1740756,0
1711092033571,1711092026825,1741308,0
1711092033571,1711092026866,1742369,0
1711092033571,1711092026906,1743497,0
1711092033571,1711092026946,1744708,0
1711092033571,1711092026986,1746150,0
1711092033571,1711092027026,1747608,0
1711092033571,1711092027067,1748996,0
1711092033571,1711092027106,1750470,0
1711092033571,1711092027146,1751924,0
1711092033571,1711092027185,1753593,0
1711092033571,1711092027225,1755355,0
1711092033571,1711092027266,1757037,0
1711092033571,1711092027305,1756620,0
1711092033571,1711092027346,1753323,0
1711092033571,1711092027386,1749363,0
1711092033571,1711092027426,1746537,0
1711092033571,1711092027468,1745085,0
1711092033571,1711092027507,1744062,0
1711092033571,1711092027547,1743510,0
1711092033571,1711092027587,1743199,0
1711092033571,1711092027628,1742581,0
1711092033571,1711092027668,1742240,0
1711092033571,1711092027708,1742213,0
1711092033571,1711092027748,1742436,0
1711092033571,1711092027788,1743279,0
1711092033571,1711092027828,1744320,0
1711092033571,1711092027869,1745264,0
1711092033571,1711092027908,1746356,0
1711092033571,1711092027948,1747547,0
1711092033571,1711092027988,1748938,0
1711092033571,1711092028028,1750492,0
1711092033571,1711092028069,1752222,0
1711092033571,1711092028109,1753884,0
1711092033571,1711092028149,1755785,0
1711092033571,1711092028189,1757433,0
1711092033571,1711092028229,1759355,0
1711092033571,1711092028270,1760419,0
1711092033571,1711092028309,1758482,0
1711092033571,1711092028349,1754756,0
1711092033571,1711092028389,1751693,0
1711092033571,1711092028429,1750121,0
1711092033571,1711092028470,1749482,0
1711092033571,1711092028510,1749448,0
1711092033571,1711092028550,1749321,0
1711092033571,1711092028590,1749065,0
1711092033571,1711092028630,1748497,0
1711092033571,1711092028671,1748138,0
1711092033571,1711092028710,1748302,0
1711092033571,1711092028750,1748942,0
1711092033571,1711092028790,1749795,0
1711092033571,1711092028831,1750786,0
1711092033571,1711092028871,1751706,0
1711092033571,1711092028911,1752711,0
1711092033571,1711092028951,1753778,0
1711092033571,1711092028991,1754919,0
1711092033571,1711092029031,1756300,0
1711092033571,1711092029072,1757734,0
1711092033571,1711092029111,1758992,0
1711092033571,1711092029151,1760476,0
1711092033571,1711092029191,1762042,0
1711092033571,1711092029231,1763395,0
1711092033571,1711092029272,1762357,0
1711092033571,1711092029312,1759200,0
1711092033571,1711092029351,1756027,0
1711092033571,1711092029392,1754396,0
1711092033571,1711092029432,1753897,0
1711092033571,1711092029473,1753915,0
1711092033571,1711092029512,1754189,0
1711092033571,1711092029552,1753998,0
1711092033571,1711092029592,1753583,0
1711092033571,1711092029632,1753277,0
1711092033571,1711092029673,1753471,0
1711092033571,1711092029712,1754007,0
1711092033571,1711092029753,1754857,0
1711092033571,1711092029793,1755934,0
1711092033571,1711092029833,1757199,0
1711092033571,1711092029874,1758283,0
1711092033571,1711092029913,1759630,0
1711092033571,1711092029953,1761069,0
1711092033571,1711092029993,1762562,0
1711092033571,1711092030033,1764227,0
1711092033571,1711092030074,1765933,0
1711092033571,1711092030114,1767571,0
1711092033571,1711092030154,1769362,0
1711092033571,1711092030194,1771346,0
1711092033571,1711092030234,1772187,0
1711092033571,1711092030275,1770200,0
1711092033571,1711092030314,1767040,0
1711092033571,1711092030354,1764437,0
1711092033571,1711092030394,1763404,0
1711092033571,1711092030434,1763230,0
1711092033571,1711092030475,1763686,0
1711092033571,1711092030515,1763892,0
1711092033571,1711092030555,1763785,0
1711092033571,1711092030595,1763231,0
1711092033571,1711092030635,1762963,0
1711092033571,1711092030676,1763116,0
1711092033571,1711092030715,1763599,0
1711092033571,1711092030755,1764414,0
1711092033571,1711092030795,1765605,0
1711092033571,1711092030835,1766674,0
1711092033571,1711092030876,1767742,0
1711092033571,1711092030916,1768933,0
1711092033571,1711092030956,1770343,0
1711092033571,1711092030996,1771467,0
1711092033571,1711092031036,1772881,0
1711092033571,1711092031077,1774472,0
1711092033571,1711092031116,1775864,0
1711092033571,1711092031156,1777678,0
1711092033571,1711092031196,1778715,0
1711092033571,1711092031237,1777411,0
1711092033571,1711092031277,1774313,0
1711092033571,1711092031317,1771301,0
1711092033571,1711092031357,1769703,0
1711092033571,1711092031397,1769168,0
1711092033571,1711092031437,1769557,0
1711092033571,1711092031478,1769948,0
1711092033571,1711092031517,1769839,0
1711092033571,1711092031557,1769273,0
1711092033571,1711092031598,1769019,0
1711092033571,1711092031638,1769089,0
1711092033571,1711092031679,1769529,0
1711092033571,1711092031718,1770394,0
1711092033571,1711092031758,1771323,0
1711092033571,1711092031798,1772392,0
1711092033571,1711092031838,1773624,0
1711092033571,1711092031879,1774874,0
1711092033571,1711092031918,1776096,0
1711092033571,1711092031959,1777414,0
1711092033571,1711092031999,1778740,0
1711092033571,1711092032039,1780140,0
1711092033571,1711092032080,1781815,0
1711092033571,1711092032119,1783403,0
1711092033571,1711092032159,1782767,0
1711092033571,1711092032200,1779752,0
1711092033571,1711092032240,1776304,0
1711092033571,1711092032281,1773943,0
1711092033571,1711092032320,1773281,0
1711092033571,1711092032360,1772993,0
1711092033571,1711092032400,1773188,0
1711092033571,1711092032440,1773211,0
1711092033571,1711092032481,1772487,0
1711092033571,1711092032521,1771789,0
1711092033571,1711092032561,1771280,0
1711092033571,1711092032601,1771322,0
1711092033571,1711092032641,1771838,0
1711092033571,1711092032682,1772623,0
1711092033571,1711092032721,1773354,0
1711092033571,1711092032761,1774507,0
1711092033571,1711092032802,1775424,0
1711092033571,1711092032842,1776453,0
1711092033571,1711092032883,1777605,0
1711092033571,1711092032922,1778623,0
1711092033571,1711092032963,1779943,0
1711092033571,1711092033003,1781262,0
1711092033571,1711092033043,1782748,0
1711092033571,1711092033084,1783500,0
1711092033571,1711092033123,1781375,0
1711092033571,1711092033164,1777551,0
1711092033571,1711092033204,1773814,0
1711092033571,1711092033244,1771718,0
1711092033571,1711092033285,1770660,0
1711092033571,1711092033324,1770303,0
1711092033571,1711092033364,1769892,0
1711092033571,1711092033404,1769079,0
1711092033571,1711092033444,1768178,0
1711092033571,1711092033485,1767248,0
1711092033571,1711092033525,1766805,0
1711092045636,1711092033560,1766892,0
1711092045636,1711092033600,1767244,0
1711092045636,1711092033640,1767820,0
1711092045636,1711092033681,1768591,0
1711092045636,1711092033720,1769424,0
1711092045636,1711092033761,1770247,0
1711092045636,1711092033801,1771037,0
1711092045636,1711092033841,1771937,0
1711092045636,1711092033882,1772885,0
1711092045636,1711092033921,1774105,0
1711092045636,1711092033961,1775312,0
1711092045636,1711092034001,1776734,0
1711092045636,1711092034041,1777590,0
1711092045636,1711092034082,1775325,0
1711092045636,1711092034122,1771043,0
1711092045636,1711092034162,1767010,0
1711092045636,1711092034202,1764469,0
1711092045636,1711092034242,1763235,0
1711092045636,1711092034283,1762719,0
1711092045636,1711092034323,1762236,0
1711092045636,1711092034363,1761270,0
1711092045636,1711092034403,1759859,0
1711092045636,1711092034443,1758839,0
1711092045636,1711092034484,1758289,0
1711092045636,1711092034524,1758186,0
1711092045636,1711092034564,1758529,0
1711092045636,1711092034604,1759165,0
1711092045636,1711092034645,1759915,0
1711092045636,1711092034686,1760693,0
1711092045636,1711092034725,1761469,0
1711092045636,1711092034765,1762331,0
1711092045636,1711092034805,1763203,0
1711092045636,1711092034846,1764137,0
1711092045636,1711092034887,1765232,0
1711092045636,1711092034926,1766393,0
1711092045636,1711092034967,1767798,0
1711092045636,1711092035007,1769195,0
1711092045636,1711092035047,1769006,0
1711092045636,1711092035088,1765990,0
1711092045636,1711092035127,1761638,0
1711092045636,1711092035168,1758266,0
1711092045636,1711092035208,1756470,0
1711092045636,1711092035248,1755922,0
1711092045636,1711092035289,1755743,0
1711092045636,1711092035329,1755422,0
1711092045636,1711092035369,1754296,0
1711092045636,1711092035411,1753102,0
1711092045636,1711092035451,1752373,0
1711092045636,1711092035492,1751980,0
1711092045636,1711092035532,1752295,0
1711092045636,1711092035573,1753001,0
1711092045636,1711092035613,1753717,0
1711092045636,1711092035653,1754668,0
1711092045636,1711092035694,1755515,0
1711092045636,1711092035733,1756578,0
1711092045636,1711092035774,1757646,0
1711092045636,1711092035814,1758674,0
1711092045636,1711092035854,1759820,0
1711092045636,1711092035895,1761079,0
1711092045636,1711092035935,1762644,0
1711092045636,1711092035975,1764174,0
1711092045636,1711092036015,1764047,0
1711092045636,1711092036056,1760922,0
1711092045636,1711092036096,1756674,0
1711092045636,1711092036136,1752053,0
1711092045636,1711092036176,1751390,0
1711092045636,1711092036216,1751516,0
1711092045636,1711092036257,1751181,0
1711092045636,1711092036298,1750350,0
1711092045636,1711092036337,1749509,0
1711092045636,1711092036377,1748987,0
1711092045636,1711092036417,1749012,0
1711092045636,1711092036457,1749526,0
1711092045636,1711092036498,1750191,0
1711092045636,1711092036538,1751191,0
1711092045636,1711092036578,1752272,0
1711092045636,1711092036618,1753286,0
1711092045636,1711092036658,1754470,0
1711092045636,1711092036699,1755764,0
1711092045636,1711092036739,1756916,0
1711092045636,1711092036779,1758496,0
1711092045636,1711092036819,1759880,0
1711092045636,1711092036859,1761684,0
1711092045636,1711092036900,1763381,0
1711092045636,1711092036940,1763299,0
1711092045636,1711092036980,1760376,0
1711092045636,1711092037020,1756110,0
1711092045636,1711092037060,1753094,0
1711092045636,1711092037101,1751663,0
1711092045636,1711092037140,1750947,0
1711092045636,1711092037180,1750969,0
1711092045636,1711092037221,1750833,0
1711092045636,1711092037261,1750120,0
1711092045636,1711092037302,1749163,0
1711092045636,1711092037341,1748921,0
1711092045636,1711092037382,1748929,0
1711092045636,1711092037423,1749519,0
1711092045636,1711092037463,1750218,0
1711092045636,1711092037504,1751120,0
1711092045636,1711092037543,1752342,0
1711092045636,1711092037584,1753516,0
1711092045636,1711092037624,1754689,0
1711092045636,1711092037664,1756117,0
1711092045636,1711092037705,1757356,0
1711092045636,1711092037745,1758804,0
1711092045636,1711092037785,1760580,0
1711092045636,1711092037825,1762092,0
1711092045636,1711092037866,1763978,0
1711092045636,1711092037907,1765100,0
1711092045636,1711092037946,1763035,0
1711092045636,1711092037987,1759496,0
1711092045636,1711092038027,1756186,0
1711092045636,1711092038067,1754477,0
1711092045636,1711092038108,1753913,0
1711092045636,1711092038147,1754036,0
1711092045636,1711092038188,1754175,0
1711092045636,1711092038228,1753903,0
1711092045636,1711092038268,1753155,0
1711092045636,1711092038309,1752706,0
1711092045636,1711092038349,1752753,0
1711092045636,1711092038389,1753258,0
1711092045636,1711092038429,1754068,0
1711092045636,1711092038470,1755025,0
1711092045636,1711092038510,1756155,0
1711092045636,1711092038550,1757250,0
1711092045636,1711092038590,1758485,0
1711092045636,1711092038630,1759596,0
1711092045636,1711092038671,1761022,0
1711092045636,1711092038712,1762291,0
1711092045636,1711092038751,1763698,0
1711092045636,1711092038791,1765253,0
1711092045636,1711092038832,1766930,0
1711092045636,1711092038872,1768393,0
1711092045636,1711092038913,1767548,0
1711092045636,1711092038953,1764691,0
1711092045636,1711092038993,1761325,0
1711092045636,1711092039033,1759242,0
1711092045636,1711092039073,1758558,0
1711092045636,1711092039114,1758867,0
1711092045636,1711092039154,1759306,0
1711092045636,1711092039194,1759344,0
1711092045636,1711092039234,1758796,0
1711092045636,1711092039274,1758286,0
1711092045636,1711092039316,1758311,0
1711092045636,1711092039355,1758694,0
1711092045636,1711092039395,1759397,0
1711092045636,1711092039436,1760406,0
1711092045636,1711092039476,1761475,0
1711092045636,1711092039517,1762707,0
1711092045636,1711092039556,1764029,0
1711092045636,1711092039596,1765338,0
1711092045636,1711092039636,1766492,0
1711092045636,1711092039677,1767821,0
1711092045636,1711092039718,1769339,0
1711092045636,1711092039757,1770832,0
1711092045636,1711092039797,1772520,0
1711092045636,1711092039837,1773521,0
1711092045636,1711092039878,1771859,0
1711092045636,1711092039919,1768313,0
1711092045636,1711092039958,1764783,0
1711092045636,1711092039998,1762892,0
1711092045636,1711092040038,1762107,0
1711092045636,1711092040078,1762118,0
1711092045636,1711092040119,1762146,0
1711092045636,1711092040159,1761591,0
1711092045636,1711092040199,1760781,0
1711092045636,1711092040239,1760191,0
1711092045636,1711092040279,1760103,0
1711092045636,1711092040320,1760181,0
1711092045636,1711092040360,1760942,0
1711092045636,1711092040400,1761709,0
1711092045636,1711092040440,1762599,0
1711092045636,1711092040480,1763622,0
1711092045636,1711092040521,1764513,0
1711092045636,1711092040560,1765533,0
1711092045636,1711092040601,1766635,0
1711092045636,1711092040641,1767865,0
1711092045636,1711092040681,1769224,0
1711092045636,1711092040722,1770499,0
1711092045636,1711092040762,1772194,0
1711092045636,1711092040802,1771909,0
1711092045636,1711092040842,1768748,0
1711092045636,1711092040882,1764239,0
1711092045636,1711092040923,1760862,0
1711092045636,1711092040963,1758854,0
1711092045636,1711092041003,1757996,0
1711092045636,1711092041043,1757416,0
1711092045636,1711092041083,1756828,0
1711092045636,1711092041125,1755766,0
1711092045636,1711092041164,1754464,0
1711092045636,1711092041204,1753693,0
1711092045636,1711092041245,1753234,0
1711092045636,1711092041285,1753339,0
1711092045636,1711092041326,1753853,0
1711092045636,1711092041365,1754692,0
1711092045636,1711092041405,1755428,0
1711092045636,1711092041446,1756330,0
1711092045636,1711092041486,1757177,0
1711092045636,1711092041527,1758079,0
1711092045636,1711092041566,1759152,0
1711092045636,1711092041607,1760345,0
1711092045636,1711092041647,1761613,0
1711092045636,1711092041687,1763045,0
1711092045636,1711092041728,1764353,0
1711092045636,1711092041768,1763174,0
1711092045636,1711092041808,1759105,0
1711092045636,1711092041848,1754432,0
1711092045636,1711092041888,1751112,0
1711092045636,1711092041929,1749278,0
1711092045636,1711092041969,1748358,0
1711092045636,1711092042009,1747948,0
1711092045636,1711092042049,1746994,0
1711092045636,1711092042090,1745321,0
1711092045636,1711092042131,1743889,0
1711092045636,1711092042170,1742848,0
1711092045636,1711092042211,1742399,0
1711092045636,1711092042251,1742588,0
1711092045636,1711092042291,1743083,0
1711092045636,1711092042332,1743750,0
1711092045636,1711092042371,1744373,0
1711092045636,1711092042413,1745180,0
1711092045636,1711092042453,1745811,0
1711092045636,1711092042493,1746476,0
1711092045636,1711092042534,1747463,0
1711092045636,1711092042574,1748413,0
1711092045636,1711092042614,1749703,0
1711092045636,1711092042654,1750950,0
1711092045636,1711092042694,1750112,0
1711092045636,1711092042735,1740912,0
1711092045636,1711092042775,1737137,0
1711092045636,1711092042815,1734910,0
1711092045636,1711092042855,1733923,0
1711092045636,1711092042896,1733670,0
1711092045636,1711092042937,1732797,0
1711092045636,1711092042976,1731351,0
1711092045636,1711092043016,1729827,0
1711092045636,1711092043056,1728854,0
1711092045636,1711092043096,1728383,0
1711092045636,1711092043137,1728603,0
1711092045636,1711092043177,1729092,0
1711092045636,1711092043217,1729729,0
1711092045636,1711092043257,1730618,0
1711092045636,1711092043297,1731473,0
1711092045636,1711092043338,1732636,0
1711092045636,1711092043378,1733732,0
1711092045636,1711092043418,1734678,0
1711092045636,1711092043458,1735791,0
1711092045636,1711092043498,1737113,0
1711092045636,1711092043539,1738455,0
1711092045636,1711092043578,1736919,0
1711092045636,1711092043619,1732153,0
1711092045636,1711092043659,1726476,0
1711092045636,1711092043699,1722152,0
1711092045636,1711092043740,1719436,0
1711092045636,1711092043779,1717968,0
1711092045636,1711092043819,1717200,0
1711092045636,1711092043859,1715766,0
1711092045636,1711092043900,1713867,0
1711092045636,1711092043941,1711854,0
1711092045636,1711092043980,1710402,0
1711092045636,1711092044021,1709651,0
1711092045636,1711092044061,1709539,0
1711092045636,1711092044101,1709641,0
1711092045636,1711092044142,1710029,0
1711092045636,1711092044181,1710416,0
1711092045636,1711092044221,1710903,0
1711092045636,1711092044262,1711565,0
1711092045636,1711092044302,1712393,0
1711092045636,1711092044343,1713227,0
1711092045636,1711092044382,1714172,0
1711092045636,1711092044423,1715563,0
1711092045636,1711092044463,1716656,0
1711092045636,1711092044503,1714463,0
1711092045636,1711092044544,1708985,0
1711092045636,1711092044583,1703130,0
1711092045636,1711092044624,1698962,0
1711092045636,1711092044664,1696391,0
1711092045636,1711092044704,1694840,0
1711092045636,1711092044745,1693820,0
1711092045636,1711092044785,1692525,0
1711092045636,1711092044825,1690616,0
1711092045636,1711092044865,1689108,0
1711092045636,1711092044906,1688328,0
1711092045636,1711092044947,1687954,0
1711092045636,1711092044987,1688378,0
1711092045636,1711092045027,1688880,0
1711092045636,1711092045067,1689629,0
1711092045636,1711092045107,1690340,0
1711092045636,1711092045148,1691284,0
1711092045636,1711092045188,1692393,0
1711092045636,1711092045228,1693332,0
1711092045636,1711092045268,1694743,0
1711092045636,1711092045308,1695955,0
1711092045636,1711092045350,1697803,0
1711092045636,1711092045389,1699355,0
1711092045636,1711092045429,1697497,0
1711092045636,1711092045470,1692690,0
1711092045636,1711092045510,1687165,0
1711092045636,1711092045551,1683445,0
1711092045636,1711092045590,1681314,0
1711092057706,1711092045634,1680451,0
1711092057706,1711092045674,1680019,0
1711092057706,1711092045715,1678882,0
1711092057706,1711092045755,1677165,0
1711092057706,1711092045795,1675899,0
1711092057706,1711092045835,1675176,0
1711092057706,1711092045875,1675143,0
1711092057706,1711092045915,1675654,0
1711092057706,1711092045956,1676628,0
1711092057706,1711092045995,1677644,0
1711092057706,1711092046036,1678684,0
1711092057706,1711092046076,1679965,0
1711092057706,1711092046116,1681337,0
1711092057706,1711092046157,1682693,0
1711092057706,1711092046196,1684209,0
1711092057706,1711092046236,1685836,0
1711092057706,1711092046276,1687572,0
1711092057706,1711092046317,1686467,0
1711092057706,1711092046357,1681900,0
1711092057706,1711092046397,1676781,0
1711092057706,1711092046437,1673189,0
1711092057706,1711092046477,1671574,0
1711092057706,1711092046517,1670697,0
1711092057706,1711092046558,1670306,0
1711092057706,1711092046597,1669802,0
1711092057706,1711092046637,1668719,0
1711092057706,1711092046678,1667699,0
1711092057706,1711092046718,1667436,0
1711092057706,1711092046758,1667769,0
1711092057706,1711092046798,1668651,0
1711092057706,1711092046838,1669733,0
1711092057706,1711092046878,1671108,0
1711092057706,1711092046918,1672532,0
1711092057706,1711092046959,1674082,0
1711092057706,1711092046998,1675609,0
1711092057706,1711092047038,1677268,0
1711092057706,1711092047078,1679066,0
1711092057706,1711092047118,1681137,0
1711092057706,1711092047159,1683208,0
1711092057706,1711092047199,1683040,0
1711092057706,1711092047239,1679113,0
1711092057706,1711092047279,1673604,0
1711092057706,1711092047319,1669428,0
1711092057706,1711092047359,1667130,0
1711092057706,1711092047399,1665856,0
1711092057706,1711092047439,1665286,0
1711092057706,1711092047479,1664600,0
1711092057706,1711092047519,1663434,0
1711092057706,1711092047560,1662331,0
1711092057706,1711092047599,1661810,0
1711092057706,1711092047640,1661872,0
1711092057706,1711092047680,1662449,0
1711092057706,1711092047720,1663467,0
1711092057706,1711092047761,1664578,0
1711092057706,1711092047800,1665879,0
1711092057706,1711092047840,1667391,0
1711092057706,1711092047880,1668880,0
1711092057706,1711092047920,1670578,0
1711092057706,1711092047961,1672291,0
1711092057706,1711092048000,1674213,0
1711092057706,1711092048040,1676278,0
1711092057706,1711092048081,1676881,0
1711092057706,1711092048121,1673621,0
1711092057706,1711092048161,1668311,0
1711092057706,1711092048201,1663873,0
1711092057706,1711092048241,1661504,0
1711092057706,1711092048281,1659966,0
1711092057706,1711092048321,1659216,0
1711092057706,1711092048362,1658742,0
1711092057706,1711092048401,1657608,0
1711092057706,1711092048441,1656508,0
1711092057706,1711092048482,1655895,0
1711092057706,1711092048521,1655941,0
1711092057706,1711092048562,1656748,0
1711092057706,1711092048602,1657834,0
1711092057706,1711092048642,1659065,0
1711092057706,1711092048682,1660509,0
1711092057706,1711092048722,1662090,0
1711092057706,1711092048763,1663766,0
1711092057706,1711092048802,1665354,0
1711092057706,1711092048842,1667412,0
1711092057706,1711092048882,1669237,0
1711092057706,1711092048922,1671514,0
1711092057706,1711092048963,1672548,0
1711092057706,1711092049002,1669598,0
1711092057706,1711092049043,1664903,0
1711092057706,1711092049083,1661224,0
1711092057706,1711092049123,1659503,0
1711092057706,1711092049164,1658743,0
1711092057706,1711092049203,1658713,0
1711092057706,1711092049243,1658828,0
1711092057706,1711092049283,1658255,0
1711092057706,1711092049323,1657590,0
1711092057706,1711092049364,1657521,0
1711092057706,1711092049403,1657942,0
1711092057706,1711092049444,1659069,0
1711092057706,1711092049484,1660436,0
1711092057706,1711092049524,1661860,0
1711092057706,1711092049565,1663637,0
1711092057706,1711092049604,1665386,0
1711092057706,1711092049644,1667272,0
1711092057706,1711092049684,1669092,0
1711092057706,1711092049724,1671212,0
1711092057706,1711092049765,1673447,0
1711092057706,1711092049805,1675804,0
1711092057706,1711092049845,1676284,0
1711092057706,1711092049885,1672951,0
1711092057706,1711092049925,1668600,0
1711092057706,1711092049966,1665215,0
1711092057706,1711092050005,1663859,0
1711092057706,1711092050045,1663254,0
1711092057706,1711092050085,1663369,0
1711092057706,1711092050125,1663361,0
1711092057706,1711092050166,1662926,0
1711092057706,1711092050206,1662673,0
1711092057706,1711092050246,1662769,0
1711092057706,1711092050286,1663605,0
1711092057706,1711092050326,1664857,0
1711092057706,1711092050367,1666406,0
1711092057706,1711092050406,1668111,0
1711092057706,1711092050446,1669972,0
1711092057706,1711092050486,1671852,0
1711092057706,1711092050526,1673882,0
1711092057706,1711092050567,1675933,0
1711092057706,1711092050607,1678118,0
1711092057706,1711092050647,1680463,0
1711092057706,1711092050687,1682936,0
1711092057706,1711092050727,1683993,0
1711092057706,1711092050768,1681183,0
1711092057706,1711092050807,1677023,0
1711092057706,1711092050847,1673656,0
1711092057706,1711092050887,1672131,0
1711092057706,1711092050927,1671584,0
1711092057706,1711092050968,1671575,0
1711092057706,1711092051008,1671689,0
1711092057706,1711092051048,1671450,0
1711092057706,1711092051088,1671208,0
1711092057706,1711092051128,1671561,0
1711092057706,1711092051169,1672191,0
1711092057706,1711092051208,1673506,0
1711092057706,1711092051249,1674951,0
1711092057706,1711092051289,1676886,0
1711092057706,1711092051329,1678685,0
1711092057706,1711092051370,1680607,0
1711092057706,1711092051409,1682723,0
1711092057706,1711092051449,1684863,0
1711092057706,1711092051490,1687076,0
1711092057706,1711092051530,1689287,0
1711092057706,1711092051571,1691748,0
1711092057706,1711092051611,1693548,0
1711092057706,1711092051652,1692158,0
1711092057706,1711092051692,1688738,0
1711092057706,1711092051733,1685742,0
1711092057706,1711092051774,1684465,0
1711092057706,1711092051813,1684190,0
1711092057706,1711092051853,1684610,0
1711092057706,1711092051893,1685341,0
1711092057706,1711092051934,1685429,0
1711092057706,1711092051975,1685481,0
1711092057706,1711092052014,1685808,0
1711092057706,1711092052055,1686561,0
1711092057706,1711092052095,1687728,0
1711092057706,1711092052135,1689376,0
1711092057706,1711092052176,1691295,0
1711092057706,1711092052216,1693220,0
1711092057706,1711092052256,1695280,0
1711092057706,1711092052296,1697229,0
1711092057706,1711092052336,1699434,0
1711092057706,1711092052377,1701558,0
1711092057706,1711092052417,1706308,0
1711092057706,1711092052457,1708796,0
1711092057706,1711092052497,1708968,0
1711092057706,1711092052538,1706792,0
1711092057706,1711092052579,1704394,0
1711092057706,1711092052618,1703259,0
1711092057706,1711092052658,1703089,0
1711092057706,1711092052698,1703942,0
1711092057706,1711092052738,1705268,0
1711092057706,1711092052779,1706017,0
1711092057706,1711092052819,1706505,0
1711092057706,1711092052859,1707031,0
1711092057706,1711092052899,1708046,0
1711092057706,1711092052939,1709435,0
1711092057706,1711092052980,1711172,0
1711092057706,1711092053019,1712933,0
1711092057706,1711092053060,1715187,0
1711092057706,1711092053100,1717124,0
1711092057706,1711092053140,1719398,0
1711092057706,1711092053181,1721583,0
1711092057706,1711092053220,1723836,0
1711092057706,1711092053261,1726102,0
1711092057706,1711092053301,1728682,0
1711092057706,1711092053341,1731000,0
1711092057706,1711092053382,1731245,0
1711092057706,1711092053421,1729231,0
1711092057706,1711092053461,1726902,0
1711092057706,1711092053502,1725770,0
1711092057706,1711092053542,1725864,0
1711092057706,1711092053583,1726456,0
1711092057706,1711092053622,1727637,0
1711092057706,1711092053663,1728567,0
1711092057706,1711092053703,1728996,0
1711092057706,1711092053743,1729485,0
1711092057706,1711092053784,1730526,0
1711092057706,1711092053823,1731833,0
1711092057706,1711092053863,1733351,0
1711092057706,1711092053904,1735336,0
1711092057706,1711092053944,1737549,0
1711092057706,1711092053985,1739684,0
1711092057706,1711092054025,1741816,0
1711092057706,1711092054065,1744242,0
1711092057706,1711092054105,1746306,0
1711092057706,1711092054146,1748640,0
1711092057706,1711092054186,1750995,0
1711092057706,1711092054226,1753225,0
1711092057706,1711092054266,1753509,0
1711092057706,1711092054306,1751451,0
1711092057706,1711092054347,1749036,0
1711092057706,1711092054388,1747814,0
1711092057706,1711092054427,1747826,0
1711092057706,1711092054467,1748286,0
1711092057706,1711092054508,1749129,0
1711092057706,1711092054548,1749686,0
1711092057706,1711092054589,1749991,0
1711092057706,1711092054629,1750268,0
1711092057706,1711092054669,1750897,0
1711092057706,1711092054709,1751987,0
1711092057706,1711092054749,1753200,0
1711092057706,1711092054790,1754521,0
1711092057706,1711092054830,1756070,0
1711092057706,1711092054870,1757730,0
1711092057706,1711092054910,1759418,0
1711092057706,1711092054950,1760999,0
1711092057706,1711092054992,1762656,0
1711092057706,1711092055031,1764550,0
1711092057706,1711092055071,1766359,0
1711092057706,1711092055112,1768107,0
1711092057706,1711092055152,1768429,0
1711092057706,1711092055193,1766541,0
1711092057706,1711092055232,1764063,0
1711092057706,1711092055273,1762803,0
1711092057706,1711092055313,1762714,0
1711092057706,1711092055353,1763129,0
1711092057706,1711092055394,1763861,0
1711092057706,1711092055433,1764475,0
1711092057706,1711092055474,1764378,0
1711092057706,1711092055514,1764353,0
1711092057706,1711092055555,1764716,0
1711092057706,1711092055596,1765261,0
1711092057706,1711092055635,1766246,0
1711092057706,1711092055675,1767393,0
1711092057706,1711092055716,1768728,0
1711092057706,1711092055756,1770017,0
1711092057706,1711092055797,1771407,0
1711092057706,1711092055836,1772796,0
1711092057706,1711092055877,1774176,0
1711092057706,1711092055917,1775690,0
1711092057706,1711092055957,1777254,0
1711092057706,1711092055998,1777514,0
1711092057706,1711092056037,1775514,0
1711092057706,1711092056078,1772675,0
1711092057706,1711092056118,1770965,0
1711092057706,1711092056158,1770326,0
1711092057706,1711092056199,1770359,0
1711092057706,1711092056238,1770946,0
1711092057706,1711092056278,1771145,0
1711092057706,1711092056319,1771122,0
1711092057706,1711092056360,1770835,0
1711092057706,1711092056401,1771014,0
1711092057706,1711092056441,1771606,0
1711092057706,1711092056481,1772493,0
1711092057706,1711092056521,1773488,0
1711092057706,1711092056561,1774594,0
1711092057706,1711092056602,1775759,0
1711092057706,1711092056641,1776998,0
1711092057706,1711092056682,1778332,0
1711092057706,1711092056722,1779695,0
1711092057706,1711092056762,1780980,0
1711092057706,1711092056803,1782549,0
1711092057706,1711092056842,1783762,0
1711092057706,1711092056883,1782569,0
1711092057706,1711092056923,1779374,0
1711092057706,1711092056963,1776204,0
1711092057706,1711092057004,1774454,0
1711092057706,1711092057044,1773765,0
1711092057706,1711092057084,1773468,0
1711092057706,1711092057124,1773332,0
1711092057706,1711092057165,1772930,0
1711092057706,1711092057205,1772266,0
1711092057706,1711092057245,1771831,0
1711092057706,1711092057285,1771814,0
1711092057706,1711092057325,1772157,0
1711092057706,1711092057366,1772710,0
1711092057706,1711092057407,1773610,0
1711092057706,1711092057446,1774380,0
1711092057706,1711092057486,1775439,0
1711092057706,1711092057527,1776562,0
1711092057706,1711092057567,1777642,0
1711092057706,1711092057608,1778901,0
1711092057706,1711092057648,1779979,0
1711092069714,1711092057687,1781235,0
1711092069714,1711092057726,1782378,0
1711092069714,1711092057765,1780626,0
1711092069714,1711092057804,1776957,0
1711092069714,1711092057843,1773533,0
1711092069714,1711092057882,1771451,0
1711092069714,1711092057921,1770543,0
1711092069714,1711092057960,1770000,0
1711092069714,1711092057999,1769667,0
1711092069714,1711092058038,1768934,0
1711092069714,1711092058077,1767988,0
1711092069714,1711092058116,1767385,0
1711092069714,1711092058155,1767077,0
1711092069714,1711092058194,1767222,0
1711092069714,1711092058233,1767566,0
1711092069714,1711092058272,1768201,0
1711092069714,1711092058311,1768882,0
1711092069714,1711092058350,1769529,0
1711092069714,1711092058389,1770322,0
1711092069714,1711092058428,1771221,0
1711092069714,1711092058467,1772026,0
1711092069714,1711092058506,1773017,0
1711092069714,1711092058546,1774021,0
1711092069714,1711092058586,1775293,0
1711092069714,1711092058626,1774704,0
1711092069714,1711092058666,1771833,0
1711092069714,1711092058706,1768043,0
1711092069714,1711092058746,1765400,0
1711092069714,1711092058786,1764155,0
1711092069714,1711092058826,1763839,0
1711092069714,1711092058866,1763771,0
1711092069714,1711092058906,1763576,0
1711092069714,1711092058946,1762742,0
1711092069714,1711092058986,1762082,0
1711092069714,1711092059026,1761776,0
1711092069714,1711092059066,1762079,0
1711092069714,1711092059106,1762676,0
1711092069714,1711092059146,1763308,0
1711092069714,1711092059186,1764318,0
1711092069714,1711092059226,1765291,0
1711092069714,1711092059266,1766256,0
1711092069714,1711092059306,1767279,0
1711092069714,1711092059346,1768356,0
1711092069714,1711092059386,1769541,0
1711092069714,1711092059426,1770914,0
1711092069714,1711092059466,1770177,0
1711092069714,1711092059506,1767031,0
1711092069714,1711092059546,1763574,0
1711092069714,1711092059586,1761327,0
1711092069714,1711092059626,1760289,0
1711092069714,1711092059666,1760010,0
1711092069714,1711092059706,1760138,0
1711092069714,1711092059746,1759760,0
1711092069714,1711092059786,1759143,0
1711092069714,1711092059826,1758761,0
1711092069714,1711092059866,1758709,0
1711092069714,1711092059906,1759290,0
1711092069714,1711092059946,1760027,0
1711092069714,1711092059986,1761062,0
1711092069714,1711092060026,1762216,0
1711092069714,1711092060066,1764880,0
1711092069714,1711092060106,1766339,0
1711092069714,1711092060146,1767702,0
1711092069714,1711092060186,1769231,0
1711092069714,1711092060226,1770906,0
1711092069714,1711092060266,1770744,0
1711092069714,1711092060306,1767400,0
1711092069714,1711092060346,1763290,0
1711092069714,1711092060386,1760540,0
1711092069714,1711092060426,1759029,0
1711092069714,1711092060466,1758136,0
1711092069714,1711092060506,1757454,0
1711092069714,1711092060546,1757026,0
1711092069714,1711092060586,1756334,0
1711092069714,1711092060626,1755731,0
1711092069714,1711092060666,1755279,0
1711092069714,1711092060706,1755473,0
1711092069714,1711092060746,1755954,0
1711092069714,1711092060786,1756819,0
1711092069714,1711092060826,1757815,0
1711092069714,1711092060866,1758883,0
1711092069714,1711092060906,1759966,0
1711092069714,1711092060946,1761109,0
1711092069714,1711092060986,1762410,0
1711092069714,1711092061026,1763858,0
1711092069714,1711092061066,1765454,0
1711092069714,1711092061106,1765397,0
1711092069714,1711092061146,1762151,0
1711092069714,1711092061186,1757887,0
1711092069714,1711092061226,1754836,0
1711092069714,1711092061266,1752990,0
1711092069714,1711092061306,1751733,0
1711092069714,1711092061346,1751165,0
1711092069714,1711092061386,1750600,0
1711092069714,1711092061426,1749968,0
1711092069714,1711092061466,1749352,0
1711092069714,1711092061506,1748943,0
1711092069714,1711092061546,1749194,0
1711092069714,1711092061586,1749630,0
1711092069714,1711092061626,1750399,0
1711092069714,1711092061666,1751386,0
1711092069714,1711092061706,1752481,0
1711092069714,1711092061746,1753541,0
1711092069714,1711092061786,1754909,0
1711092069714,1711092061826,1756120,0
1711092069714,1711092061866,1757452,0
1711092069714,1711092061906,1759228,0
1711092069714,1711092061946,1760790,0
1711092069714,1711092061986,1760085,0
1711092069714,1711092062026,1756809,0
1711092069714,1711092062066,1753036,0
1711092069714,1711092062106,1750741,0
1711092069714,1711092062146,1749609,0
1711092069714,1711092062186,1749045,0
1711092069714,1711092062226,1748958,0
1711092069714,1711092062266,1748505,0
1711092069714,1711092062306,1747953,0
1711092069714,1711092062346,1747469,0
1711092069714,1711092062386,1747429,0
1711092069714,1711092062426,1747886,0
1711092069714,1711092062466,1748503,0
1711092069714,1711092062506,1749377,0
1711092069714,1711092062546,1750408,0
1711092069714,1711092062586,1751542,0
1711092069714,1711092062626,1752841,0
1711092069714,1711092062666,1754203,0
1711092069714,1711092062706,1755573,0
1711092069714,1711092062746,1756990,0
1711092069714,1711092062786,1758801,0
1711092069714,1711092062826,1760208,0
1711092069714,1711092062866,1758852,0
1711092069714,1711092062906,1755708,0
1711092069714,1711092062946,1752807,0
1711092069714,1711092062986,1751441,0
1711092069714,1711092063026,1750971,0
1711092069714,1711092063066,1751176,0
1711092069714,1711092063106,1751537,0
1711092069714,1711092063146,1751516,0
1711092069714,1711092063186,1751428,0
1711092069714,1711092063226,1751401,0
1711092069714,1711092063266,1751913,0
1711092069714,1711092063306,1752767,0
1711092069714,1711092063346,1753810,0
1711092069714,1711092063386,1755022,0
1711092069714,1711092063426,1756441,0
1711092069714,1711092063466,1758007,0
1711092069714,1711092063506,1759518,0
1711092069714,1711092063546,1761029,0
1711092069714,1711092063586,1762635,0
1711092069714,1711092063626,1764490,0
1711092069714,1711092063666,1766481,0
1711092069714,1711092063706,1767337,0
1711092069714,1711092063746,1765386,0
1711092069714,1711092063786,1762085,0
1711092069714,1711092063826,1759607,0
1711092069714,1711092063866,1758617,0
1711092069714,1711092063906,1758151,0
1711092069714,1711092063946,1758377,0
1711092069714,1711092063986,1758833,0
1711092069714,1711092064026,1758815,0
1711092069714,1711092064066,1758685,0
1711092069714,1711092064106,1758807,0
1711092069714,1711092064146,1759197,0
1711092069714,1711092064186,1760042,0
1711092069714,1711092064226,1761115,0
1711092069714,1711092064266,1762325,0
1711092069714,1711092064306,1763493,0
1711092069714,1711092064346,1764942,0
1711092069714,1711092064386,1766397,0
1711092069714,1711092064426,1768075,0
1711092069714,1711092064466,1769646,0
1711092069714,1711092064506,1771344,0
1711092069714,1711092064546,1773010,0
1711092069714,1711092064586,1774523,0
1711092069714,1711092064626,1773143,0
1711092069714,1711092064666,1769997,0
1711092069714,1711092064706,1766789,0
1711092069714,1711092064746,1765050,0
1711092069714,1711092064786,1764481,0
1711092069714,1711092064826,1764276,0
1711092069714,1711092064866,1764264,0
1711092069714,1711092064906,1763984,0
1711092069714,1711092064946,1763518,0
1711092069714,1711092064986,1763311,0
1711092069714,1711092065026,1763053,0
1711092069714,1711092065066,1763484,0
1711092069714,1711092065106,1764109,0
1711092069714,1711092065146,1765079,0
1711092069714,1711092065186,1766071,0
1711092069714,1711092065226,1767520,0
1711092069714,1711092065266,1768668,0
1711092069714,1711092065306,1770004,0
1711092069714,1711092065346,1771397,0
1711092069714,1711092065386,1772900,0
1711092069714,1711092065426,1774572,0
1711092069714,1711092065466,1776440,0
1711092069714,1711092065506,1776996,0
1711092069714,1711092065546,1774675,0
1711092069714,1711092065586,1771038,0
1711092069714,1711092065626,1768086,0
1711092069714,1711092065666,1766856,0
1711092069714,1711092065706,1766409,0
1711092069714,1711092065746,1766631,0
1711092069714,1711092065786,1766621,0
1711092069714,1711092065826,1766182,0
1711092069714,1711092065866,1765444,0
1711092069714,1711092065906,1765221,0
1711092069714,1711092065946,1765434,0
1711092069714,1711092065986,1765904,0
1711092069714,1711092066026,1766767,0
1711092069714,1711092066066,1767682,0
1711092069714,1711092066106,1768694,0
1711092069714,1711092066146,1769912,0
1711092069714,1711092066186,1771174,0
1711092069714,1711092066226,1772347,0
1711092069714,1711092066266,1773616,0
1711092069714,1711092066306,1775023,0
1711092069714,1711092066346,1776599,0
1711092069714,1711092066386,1777242,0
1711092069714,1711092066426,1774697,0
1711092069714,1711092066466,1770597,0
1711092069714,1711092066506,1766769,0
1711092069714,1711092066546,1764766,0
1711092069714,1711092066586,1763882,0
1711092069714,1711092066626,1763682,0
1711092069714,1711092066666,1763416,0
1711092069714,1711092066706,1762767,0
1711092069714,1711092066746,1761986,0
1711092069714,1711092066786,1761387,0
1711092069714,1711092066826,1761164,0
1711092069714,1711092066866,1761320,0
1711092069714,1711092066906,1761876,0
1711092069714,1711092066946,1762749,0
1711092069714,1711092066986,1763551,0
1711092069714,1711092067026,1764655,0
1711092069714,1711092067066,1765759,0
1711092069714,1711092067106,1766795,0
1711092069714,1711092067146,1767864,0
1711092069714,1711092067186,1769190,0
1711092069714,1711092067226,1770590,0
1711092069714,1711092067266,1771785,0
1711092069714,1711092067306,1770141,0
1711092069714,1711092067346,1766218,0
1711092069714,1711092067386,1761833,0
1711092069714,1711092067426,1758858,0
1711092069714,1711092067466,1757386,0
1711092069714,1711092067506,1757115,0
1711092069714,1711092067546,1757007,0
1711092069714,1711092067586,1756238,0
1711092069714,1711092067626,1755002,0
1711092069714,1711092067666,1753852,0
1711092069714,1711092067706,1753273,0
1711092069714,1711092067746,1753281,0
1711092069714,1711092067786,1753711,0
1711092069714,1711092067826,1754188,0
1711092069714,1711092067866,1755182,0
1711092069714,1711092067906,1756153,0
1711092069714,1711092067946,1757042,0
1711092069714,1711092067986,1758134,0
1711092069714,1711092068026,1759234,0
1711092069714,1711092068066,1760396,0
1711092069714,1711092068106,1761848,0
1711092069714,1711092068146,1762509,0
1711092069714,1711092068186,1759973,0
1711092069714,1711092068226,1755478,0
1711092069714,1711092068266,1751370,0
1711092069714,1711092068306,1749000,0
1711092069714,1711092068346,1747830,0
1711092069714,1711092068386,1747843,0
1711092069714,1711092068426,1747662,0
1711092069714,1711092068466,1747011,0
1711092069714,1711092068506,1745865,0
1711092069714,1711092068546,1744955,0
1711092069714,1711092068586,1744586,0
1711092069714,1711092068626,1744815,0
1711092069714,1711092068666,1745474,0
1711092069714,1711092068706,1746319,0
1711092069714,1711092068746,1747339,0
1711092069714,1711092068786,1748473,0
1711092069714,1711092068826,1749573,0
1711092069714,1711092068866,1750884,0
1711092069714,1711092068906,1752233,0
1711092069714,1711092068946,1753539,0
1711092069714,1711092068986,1754874,0
1711092069714,1711092069026,1753743,0
1711092069714,1711092069066,1749332,0
1711092069714,1711092069106,1744054,0
1711092069714,1711092069146,1740512,0
1711092069714,1711092069186,1738493,0
1711092069714,1711092069226,1737486,0
1711092069714,1711092069266,1737181,0
1711092069714,1711092069306,1736350,0
1711092069714,1711092069346,1734849,0
1711092069714,1711092069386,1733639,0
1711092069714,1711092069426,1732606,0
1711092069714,1711092069466,1732506,0
1711092069714,1711092069506,1732945,0
1711092069714,1711092069546,1733420,0
1711092069714,1711092069586,1734136,0
1711092069714,1711092069626,1735124,0
1711092081744,1711092069665,1736034,0
1711092081744,1711092069706,1736969,0
1711092081744,1711092069746,1738092,0
1711092081744,1711092069786,1739199,0
1711092081744,1711092069826,1740525,0
1711092081744,1711092069866,1741377,0
1711092081744,1711092069906,1738478,0
1711092081744,1711092069946,1733152,0
1711092081744,1711092069987,1728259,0
1711092081744,1711092070027,1725023,0
1711092081744,1711092070067,1723467,0
1711092081744,1711092070107,1722745,0
1711092081744,1711092070147,1722096,0
1711092081744,1711092070188,1720794,0
1711092081744,1711092070227,1719176,0
1711092081744,1711092070267,1717737,0
1711092081744,1711092070307,1717029,0
1711092081744,1711092070347,1716916,0
1711092081744,1711092070388,1717273,0
1711092081744,1711092070428,1717689,0
1711092081744,1711092070468,1718408,0
1711092081744,1711092070508,1719180,0
1711092081744,1711092070548,1719925,0
1711092081744,1711092070589,1720797,0
1711092081744,1711092070628,1721823,0
1711092081744,1711092070668,1723258,0
1711092081744,1711092070708,1724107,0
1711092081744,1711092070748,1721477,0
1711092081744,1711092070789,1716612,0
1711092081744,1711092070829,1711661,0
1711092081744,1711092070869,1708637,0
1711092081744,1711092070909,1707161,0
1711092081744,1711092070949,1706792,0
1711092081744,1711092070990,1706471,0
1711092081744,1711092071029,1705549,0
1711092081744,1711092071069,1704085,0
1711092081744,1711092071109,1702943,0
1711092081744,1711092071149,1702521,0
1711092081744,1711092071190,1702807,0
1711092081744,1711092071230,1703391,0
1711092081744,1711092071270,1704206,0
1711092081744,1711092071310,1705155,0
1711092081744,1711092071350,1706289,0
1711092081744,1711092071391,1707342,0
1711092081744,1711092071430,1708436,0
1711092081744,1711092071470,1709605,0
1711092081744,1711092071510,1711069,0
1711092081744,1711092071551,1711453,0
1711092081744,1711092071591,1707861,0
1711092081744,1711092071631,1702312,0
1711092081744,1711092071671,1697652,0
1711092081744,1711092071711,1694864,0
1711092081744,1711092071751,1693399,0
1711092081744,1711092071792,1692667,0
1711092081744,1711092071831,1691844,0
1711092081744,1711092071872,1690608,0
1711092081744,1711092071912,1689113,0
1711092081744,1711092071952,1688110,0
1711092081744,1711092071993,1687890,0
1711092081744,1711092072032,1688197,0
1711092081744,1711092072072,1688799,0
1711092081744,1711092072112,1689676,0
1711092081744,1711092072153,1690695,0
1711092081744,1711092072193,1691804,0
1711092081744,1711092072233,1693030,0
1711092081744,1711092072273,1694218,0
1711092081744,1711092072313,1695600,0
1711092081744,1711092072353,1697274,0
1711092081744,1711092072394,1698522,0
1711092081744,1711092072434,1696160,0
1711092081744,1711092072474,1690854,0
1711092081744,1711092072514,1685492,0
1711092081744,1711092072554,1682134,0
1711092081744,1711092072595,1680248,0
1711092081744,1711092072634,1678896,0
1711092081744,1711092072674,1677924,0
1711092081744,1711092072714,1676689,0
1711092081744,1711092072755,1675064,0
1711092081744,1711092072795,1673748,0
1711092081744,1711092072835,1673069,0
1711092081744,1711092072875,1673022,0
1711092081744,1711092072915,1673273,0
1711092081744,1711092072955,1673874,0
1711092081744,1711092072996,1674742,0
1711092081744,1711092073035,1675613,0
1711092081744,1711092073075,1676698,0
1711092081744,1711092073116,1677932,0
1711092081744,1711092073156,1679248,0
1711092081744,1711092073196,1680738,0
1711092081744,1711092073236,1682466,0
1711092081744,1711092073276,1682289,0
1711092081744,1711092073316,1678401,0
1711092081744,1711092073356,1673298,0
1711092081744,1711092073397,1669562,0
1711092081744,1711092073437,1666418,0
1711092081744,1711092073477,1666028,0
1711092081744,1711092073517,1665507,0
1711092081744,1711092073557,1664268,0
1711092081744,1711092073598,1663145,0
1711092081744,1711092073637,1662663,0
1711092081744,1711092073677,1662995,0
1711092081744,1711092073717,1663582,0
1711092081744,1711092073757,1664690,0
1711092081744,1711092073798,1665984,0
1711092081744,1711092073838,1667271,0
1711092081744,1711092073877,1668614,0
1711092081744,1711092073918,1670010,0
1711092081744,1711092073958,1671533,0
1711092081744,1711092073999,1673288,0
1711092081744,1711092074038,1675207,0
1711092081744,1711092074078,1674749,0
1711092081744,1711092074118,1670992,0
1711092081744,1711092074158,1666482,0
1711092081744,1711092074199,1663419,0
1711092081744,1711092074239,1661859,0
1711092081744,1711092074279,1661342,0
1711092081744,1711092074319,1661514,0
1711092081744,1711092074359,1661111,0
1711092081744,1711092074400,1660398,0
1711092081744,1711092074439,1659868,0
1711092081744,1711092074479,1659998,0
1711092081744,1711092074519,1660611,0
1711092081744,1711092074559,1661730,0
1711092081744,1711092074600,1663127,0
1711092081744,1711092074639,1664525,0
1711092081744,1711092074679,1666242,0
1711092081744,1711092074719,1667886,0
1711092081744,1711092074760,1669704,0
1711092081744,1711092074800,1671629,0
1711092081744,1711092074840,1673587,0
1711092081744,1711092074880,1675913,0
1711092081744,1711092074920,1678022,0
1711092081744,1711092074960,1676662,0
1711092081744,1711092075001,1672505,0
1711092081744,1711092075040,1668266,0
1711092081744,1711092075080,1666068,0
1711092081744,1711092075120,1664934,0
1711092081744,1711092075161,1664425,0
1711092081744,1711092075201,1664392,0
1711092081744,1711092075241,1664110,0
1711092081744,1711092075281,1663687,0
1711092081744,1711092075321,1663477,0
1711092081744,1711092075361,1663922,0
1711092081744,1711092075402,1664774,0
1711092081744,1711092075441,1665952,0
1711092081744,1711092075481,1667366,0
1711092081744,1711092075521,1669012,0
1711092081744,1711092075561,1670691,0
1711092081744,1711092075602,1672560,0
1711092081744,1711092075642,1674525,0
1711092081744,1711092075682,1676385,0
1711092081744,1711092075722,1678518,0
1711092081744,1711092075762,1680931,0
1711092081744,1711092075803,1683144,0
1711092081744,1711092075842,1683162,0
1711092081744,1711092075882,1679931,0
1711092081744,1711092075922,1676144,0
1711092081744,1711092075962,1673836,0
1711092081744,1711092076003,1672876,0
1711092081744,1711092076042,1672447,0
1711092081744,1711092076083,1672503,0
1711092081744,1711092076123,1672558,0
1711092081744,1711092076163,1672201,0
1711092081744,1711092076204,1672070,0
1711092081744,1711092076243,1672473,0
1711092081744,1711092076283,1673308,0
1711092081744,1711092076323,1674619,0
1711092081744,1711092076363,1675915,0
1711092081744,1711092076404,1677625,0
1711092081744,1711092076444,1679306,0
1711092081744,1711092076484,1681015,0
1711092081744,1711092076524,1682961,0
1711092081744,1711092076564,1684813,0
1711092081744,1711092076605,1686722,0
1711092081744,1711092076644,1688740,0
1711092081744,1711092076687,1691125,0
1711092081744,1711092076724,1693301,0
1711092081744,1711092076764,1692719,0
1711092081744,1711092076805,1689799,0
1711092081744,1711092076845,1686854,0
1711092081744,1711092076885,1685437,0
1711092081744,1711092076925,1685074,0
1711092081744,1711092076965,1685455,0
1711092081744,1711092077006,1686016,0
1711092081744,1711092077045,1686237,0
1711092081744,1711092077085,1686223,0
1711092081744,1711092077125,1686358,0
1711092081744,1711092077165,1687065,0
1711092081744,1711092077206,1688130,0
1711092081744,1711092077246,1689447,0
1711092081744,1711092077286,1691156,0
1711092081744,1711092077326,1692836,0
1711092081744,1711092077366,1694776,0
1711092081744,1711092077407,1696485,0
1711092081744,1711092077446,1698532,0
1711092081744,1711092077486,1700518,0
1711092081744,1711092077526,1702687,0
1711092081744,1711092077567,1704799,0
1711092081744,1711092077607,1707049,0
1711092081744,1711092077647,1706345,0
1711092081744,1711092077687,1703687,0
1711092081744,1711092077727,1701059,0
1711092081744,1711092077767,1699837,0
1711092081744,1711092077808,1699617,0
1711092081744,1711092077847,1700157,0
1711092081744,1711092077888,1700776,0
1711092081744,1711092077928,1701264,0
1711092081744,1711092077968,1701302,0
1711092081744,1711092078009,1701720,0
1711092081744,1711092078048,1702423,0
1711092081744,1711092078088,1703514,0
1711092081744,1711092078128,1705008,0
1711092081744,1711092078168,1706632,0
1711092081744,1711092078209,1708329,0
1711092081744,1711092078248,1710212,0
1711092081744,1711092078289,1712072,0
1711092081744,1711092078329,1713935,0
1711092081744,1711092078369,1716025,0
1711092081744,1711092078410,1717855,0
1711092081744,1711092078449,1720122,0
1711092081744,1711092078489,1722436,0
1711092081744,1711092078529,1723306,0
1711092081744,1711092078569,1721266,0
1711092081744,1711092078610,1718113,0
1711092081744,1711092078650,1715991,0
1711092081744,1711092078690,1715243,0
1711092081744,1711092078730,1715110,0
1711092081744,1711092078770,1715605,0
1711092081744,1711092078811,1715758,0
1711092081744,1711092078850,1715829,0
1711092081744,1711092078893,1715723,0
1711092081744,1711092078930,1716026,0
1711092081744,1711092078971,1716793,0
1711092081744,1711092079012,1717988,0
1711092081744,1711092079051,1719226,0
1711092081744,1711092079091,1720728,0
1711092081744,1711092079131,1722301,0
1711092081744,1711092079171,1723834,0
1711092081744,1711092079212,1725527,0
1711092081744,1711092079251,1727318,0
1711092081744,1711092079291,1729195,0
1711092081744,1711092079332,1731056,0
1711092081744,1711092079372,1733017,0
1711092081744,1711092079413,1735129,0
1711092081744,1711092079452,1735048,0
1711092081744,1711092079492,1732265,0
1711092081744,1711092079532,1729256,0
1711092081744,1711092079572,1727466,0
1711092081744,1711092079613,1727020,0
1711092081744,1711092079653,1727086,0
1711092081744,1711092079693,1727484,0
1711092081744,1711092079733,1727660,0
1711092081744,1711092079773,1727438,0
1711092081744,1711092079814,1727436,0
1711092081744,1711092079854,1727499,0
1711092081744,1711092079894,1728128,0
1711092081744,1711092079934,1729079,0
1711092081744,1711092079974,1730520,0
1711092081744,1711092080015,1731877,0
1711092081744,1711092080054,1733167,0
1711092081744,1711092080094,1734580,0
1711092081744,1711092080135,1736088,0
1711092081744,1711092080175,1737588,0
1711092081744,1711092080216,1739084,0
1711092081744,1711092080255,1740797,0
1711092081744,1711092080295,1742505,0
1711092081744,1711092080335,1744420,0
1711092081744,1711092080375,1744518,0
1711092081744,1711092080416,1742083,0
1711092081744,1711092080456,1738871,0
1711092081744,1711092080496,1736741,0
1711092081744,1711092080536,1736118,0
1711092081744,1711092080576,1736090,0
1711092081744,1711092080617,1736628,0
1711092081744,1711092080656,1736546,0
1711092081744,1711092080696,1736068,0
1711092081744,1711092080736,1735667,0
1711092081744,1711092080776,1735676,0
1711092081744,1711092080817,1736162,0
1711092081744,1711092080856,1736784,0
1711092081744,1711092080896,1737932,0
1711092081744,1711092080936,1739168,0
1711092081744,1711092080976,1740373,0
1711092081744,1711092081017,1741754,0
1711092081744,1711092081057,1743148,0
1711092081744,1711092081100,1744443,0
1711092081744,1711092081137,1745888,0
1711092081744,1711092081177,1747435,0
1711092081744,1711092081218,1749282,0
1711092081744,1711092081257,1749751,0
1711092081744,1711092081297,1747670,0
1711092081744,1711092081337,1744514,0
1711092081744,1711092081377,1741909,0
1711092081744,1711092081418,1740851,0
1711092081744,1711092081458,1740680,0
1711092081744,1711092081498,1740919,0
1711092081744,1711092081538,1740975,0
1711092081744,1711092081578,1740572,0
1711092081744,1711092081619,1740172,0
1711092081744,1711092081658,1740108,0
1711092093746,1711092081697,1740562,0
1711092093746,1711092081737,1741207,0
1711092093746,1711092081777,1742125,0
1711092093746,1711092081818,1743401,0
1711092093746,1711092081858,1744625,0
1711092093746,1711092081898,1746071,0
1711092093746,1711092081938,1747438,0
1711092093746,1711092081978,1748895,0
1711092093746,1711092082019,1750259,0
1711092093746,1711092082058,1751833,0
1711092093746,1711092082098,1753552,0
1711092093746,1711092082138,1753741,0
1711092093746,1711092082178,1751003,0
1711092093746,1711092082219,1747287,0
1711092093746,1711092082259,1744602,0
1711092093746,1711092082299,1743286,0
1711092093746,1711092082339,1742834,0
1711092093746,1711092082379,1742776,0
1711092093746,1711092082420,1742596,0
1711092093746,1711092082459,1741913,0
1711092093746,1711092082499,1741263,0
1711092093746,1711092082539,1741033,0
1711092093746,1711092082579,1741238,0
1711092093746,1711092082620,1741643,0
1711092093746,1711092082659,1742570,0
1711092093746,1711092082699,1743442,0
1711092093746,1711092082740,1744495,0
1711092093746,1711092082780,1745544,0
1711092093746,1711092082821,1746810,0
1711092093746,1711092082860,1748237,0
1711092093746,1711092082900,1749516,0
1711092093746,1711092082940,1750962,0
1711092093746,1711092082980,1752333,0
1711092093746,1711092083021,1751121,0
1711092093746,1711092083060,1747688,0
1711092093746,1711092083101,1743882,0
1711092093746,1711092083141,1741662,0
1711092093746,1711092083181,1740561,0
1711092093746,1711092083222,1739975,0
1711092093746,1711092083261,1739711,0
1711092093746,1711092083301,1739045,0
1711092093746,1711092083341,1738028,0
1711092093746,1711092083381,1737364,0
1711092093746,1711092083422,1736930,0
1711092093746,1711092083462,1737114,0
1711092093746,1711092083501,1737564,0
1711092093746,1711092083542,1738234,0
1711092093746,1711092083582,1738971,0
1711092093746,1711092083623,1739826,0
1711092093746,1711092083662,1740705,0
1711092093746,1711092083702,1741692,0
1711092093746,1711092083742,1742752,0
1711092093746,1711092083782,1743922,0
1711092093746,1711092083823,1745162,0
1711092093746,1711092083862,1745396,0
1711092093746,1711092083903,1742675,0
1711092093746,1711092083943,1738731,0
1711092093746,1711092083983,1735665,0
1711092093746,1711092084024,1734122,0
1711092093746,1711092084063,1733555,0
1711092093746,1711092084103,1733507,0
1711092093746,1711092084143,1733093,0
1711092093746,1711092084183,1732415,0
1711092093746,1711092084224,1731498,0
1711092093746,1711092084264,1731197,0
1711092093746,1711092084304,1731466,0
1711092093746,1711092084344,1731902,0
1711092093746,1711092084384,1732652,0
1711092093746,1711092084425,1733645,0
1711092093746,1711092084464,1734795,0
1711092093746,1711092084504,1735864,0
1711092093746,1711092084545,1737009,0
1711092093746,1711092084584,1738180,0
1711092093746,1711092084625,1739518,0
1711092093746,1711092084665,1741009,0
1711092093746,1711092084705,1740962,0
1711092093746,1711092084745,1737905,0
1711092093746,1711092084785,1733988,0
1711092093746,1711092084826,1731351,0
1711092093746,1711092084865,1730077,0
1711092093746,1711092084906,1729551,0
1711092093746,1711092084946,1729440,0
1711092093746,1711092084986,1729082,0
1711092093746,1711092085027,1728434,0
1711092093746,1711092085066,1727870,0
1711092093746,1711092085106,1727671,0
1711092093746,1711092085146,1728027,0
1711092093746,1711092085186,1728728,0
1711092093746,1711092085227,1729596,0
1711092093746,1711092085267,1730693,0
1711092093746,1711092085307,1731826,0
1711092093746,1711092085347,1733160,0
1711092093746,1711092085387,1734531,0
1711092093746,1711092085428,1735870,0
1711092093746,1711092085467,1737489,0
1711092093746,1711092085507,1739179,0
1711092093746,1711092085547,1739669,0
1711092093746,1711092085588,1737120,0
1711092093746,1711092085629,1733327,0
1711092093746,1711092085668,1730363,0
1711092093746,1711092085708,1729044,0
1711092093746,1711092085748,1728309,0
1711092093746,1711092085788,1727926,0
1711092093746,1711092085829,1727696,0
1711092093746,1711092085869,1727207,0
1711092093746,1711092085909,1726765,0
1711092093746,1711092085949,1726618,0
1711092093746,1711092085989,1726861,0
1711092093746,1711092086030,1727594,0
1711092093746,1711092086069,1728538,0
1711092093746,1711092086109,1729684,0
1711092093746,1711092086149,1730871,0
1711092093746,1711092086189,1732290,0
1711092093746,1711092086230,1733622,0
1711092093746,1711092086270,1735083,0
1711092093746,1711092086310,1736567,0
1711092093746,1711092086350,1738109,0
1711092093746,1711092086390,1739678,0
1711092093746,1711092086431,1738999,0
1711092093746,1711092086470,1735808,0
1711092093746,1711092086510,1732648,0
1711092093746,1711092086550,1730785,0
1711092093746,1711092086591,1729908,0
1711092093746,1711092086631,1729674,0
1711092093746,1711092086671,1729877,0
1711092093746,1711092086711,1729716,0
1711092093746,1711092086751,1729254,0
1711092093746,1711092086791,1728994,0
1711092093746,1711092086832,1729036,0
1711092093746,1711092086871,1729689,0
1711092093746,1711092086912,1730448,0
1711092093746,1711092086952,1731480,0
1711092093746,1711092086992,1732778,0
1711092093746,1711092087033,1733845,0
1711092093746,1711092087072,1735231,0
1711092093746,1711092087112,1736554,0
1711092093746,1711092087152,1737974,0
1711092093746,1711092087193,1739609,0
1711092093746,1711092087233,1741223,0
1711092093746,1711092087273,1738664,0
1711092093746,1711092087313,1735796,0
1711092093746,1711092087353,1733802,0
1711092093746,1711092087393,1732987,0
1711092093746,1711092087434,1733059,0
1711092093746,1711092087473,1733471,0
1711092093746,1711092087513,1733525,0
1711092093746,1711092087553,1733266,0
1711092093746,1711092087593,1733073,0
1711092093746,1711092087634,1733264,0
1711092093746,1711092087674,1733874,0
1711092093746,1711092087714,1734969,0
1711092093746,1711092087754,1736128,0
1711092093746,1711092087794,1737335,0
1711092093746,1711092087835,1738856,0
1711092093746,1711092087874,1740171,0
1711092093746,1711092087914,1741660,0
1711092093746,1711092087954,1743312,0
