Timestamp,Cleaned_PPG
1712041230893,0.0
1712041230933,0.0
1712041230973,0.0
1712041231013,0.0
1712041231055,0.0
1712041231094,0.0
1712041231134,0.0
1712041231174,0.0
1712041231214,0.0
1712041231251,0.0
1712041231291,0.0
1712041231331,0.0
1712041231371,0.0
1712041231411,0.0
1712041231452,0.0
1712041231491,0.0
1712041231531,0.0
1712041231571,0.0
1712041231611,0.0
1712041231652,0.0
1712041231692,0.0
1712041231732,0.0
1712041231772,0.0
1712041231812,0.0
1712041231853,0.0
1712041231892,0.0
1712041231932,0.0
1712041231972,0.0
1712041232015,0.0
1712041232053,0.0
1712041232093,0.0
1712041232133,0.0
1712041232173,2037893.0
1712041232213,1912230.7117389215
1712041232254,1795506.5768204315
1712041232293,1687355.6396021708
1712041232333,1585291.0190280033
1712041232374,1490068.9136030113
1712041232414,1398163.1559418403
1712041232455,1310147.59728225
1712041232494,1228349.2134157699
1712041232534,1152420.074988522
1712041232574,1082319.9536839102
1712041232614,1016724.6498909807
1712041232655,954516.220601612
1712041232694,896083.85551959
1712041232735,841405.0343858763
1712041232775,790319.8126602317
1712041232816,742507.5143213486
1712041232856,697650.7714977753
1712041232895,656231.5918527271
1712041232935,617115.5829448523
1712041232976,580571.8173996867
1712041233016,543509.5452346294
1712041233057,506230.37617161474
1712041233096,472446.14888489107
1712041233136,441109.7485210488
1712041233176,412990.1260160743
1712041233216,387037.65240223194
1712041233257,362509.83018235536
1712041233297,338820.1200215586
1712041233337,317169.6336312373
1712041233377,297082.8252689198
1712041233417,278403.7034780048
1712041233458,260915.49938554782
1712041233497,245512.48640256794
1712041233537,231664.32504489087
1712041233577,215799.71301197307
1712041233617,203124.85315504833
1712041233659,188079.3569819145
1712041233698,173548.07131405408
1712041233738,159719.93183084857
1712041233778,148769.45497082174
1712041233819,140213.53927141824
1712041233859,131968.40274398355
1712041233898,123437.20555924531
1712041233939,115065.29221003572
1712041233979,107648.28467865009
1712041234019,101145.20313863875
1712041234060,94551.67178808758
1712041234099,89370.38655161858
1712041234139,84971.44845588063
1712041234179,80217.4876824501
1712041234222,75881.0741197695
1712041234261,71634.1794625856
1712041234300,65145.25236658077
1712041234340,59567.80120896129
1712041234380,54636.201289739925
1712041234420,50669.391536175506
1712041234461,48285.72722060559
1712041234500,47717.224443811225
1712041234541,46557.672933128895
1712041234581,44736.92803699477
1712041234621,42294.40245900536
1712041234662,40425.99715398811
1712041234701,38003.946759682614
1712041234741,36951.71753205918
1712041234782,36283.777469198685
1712041234823,35907.34439710947
1712041234863,35841.717093467014
1712041234902,34093.865948873805
1712041234942,30871.535682106856
1712041234982,27599.898535353597
1712041235022,25818.37497464707
1712041235063,23951.405869298847
1712041235103,22776.326114904135
1712041235143,22485.972710354486
1712041235183,21544.162487219553
1712041235223,20287.301693305373
1712041235264,19377.847465802915
1712041235303,18583.837619314203
1712041235344,18457.60056563909
1712041235384,18925.230390571523
1712041235424,18855.545980582945
1712041235465,19339.787740980042
1712041235504,20377.36554875225
1712041235544,17900.355399844702
1712041235584,14145.83754504146
1712041235625,11228.4488033792
1712041235666,9909.232245020568
1712041235705,10553.827244705055
1712041235745,10888.782107113162
1712041235785,10655.350325366948
1712041235827,10119.378096350934
1712041235867,9573.203781676944
1712041235906,9879.645892482484
1712041235946,10707.027676258003
1712041235986,12063.13750093244
1712041236026,12412.611131422687
1712041236067,12943.344544146443
1712041236107,12712.10478118714
1712041236147,10406.647797221784
1712041236187,7114.398334471742
1712041236227,4351.323591986671
1712041236268,2581.39573855279
1712041236307,2045.8721695519052
1712041236348,1625.8063702073414
1712041236388,1807.9135727169923
1712041236428,1627.5143247791566
1712041236469,1516.4773693557363
1712041236508,1820.5022939704359
1712041236548,2474.8311652080156
1712041236589,3118.801663481863
1712041236629,4142.040351421107
1712041236670,4967.938570202794
1712041236709,5153.144505018834
1712041236749,2981.2012734652963
1712041236789,596.9569800253958
1712041236831,-749.848733358318
1712041236870,-1518.7088711520191
1712041236910,-2572.626407917589
1712041236950,-4357.388303768355
1712041236990,-3246.593714506598
1712041237030,-79.9762981007807
1712041237071,1981.7109621427953
1712041237110,2626.9176189173013
1712041237150,895.4486039481126
1712041237190,-945.7744044561405
1712041237230,-1427.1379319126718
1712041237271,1165.5072380248457
1712041237311,4099.467324380763
1712041237350,3233.37174154236
1712041237391,-673.9150442145765
1712041237431,-4000.6700010641944
1712041237472,-7278.519928520545
1712041237511,-8367.203783932375
1712041237551,-7340.624414643738
1712041237591,-5064.539076419547
1712041237631,-3081.794315508101
1712041237672,-3215.340098044835
1712041237711,-3442.939075721195
1712041237752,-3053.629824426258
1712041237792,-2950.7692229677923
1712041237833,-2423.270500236191
1712041237873,-1240.1940653894562
1712041237912,-168.3188324291259
1712041237952,-1721.2851016116329
1712041237992,-5035.740857183468
1712041238032,-6988.511147454847
1712041238073,-8011.443276542472
1712041238113,-8429.09282328235
1712041238153,-9324.761219192762
1712041238193,-9936.242312067887
1712041238233,-9654.823366079712
1712041238274,-8933.531037174165
1712041238313,-8752.109024461359
1712041238353,-7379.53945346456
1712041238394,-4705.304664331488
1712041238434,-2651.5635491111316
1712041238475,-2236.486651228275
1712041238514,-1704.470547734527
1712041238554,-3881.0413665357046
1712041238594,-3679.222438956145
1712041238634,-3495.293708567973
1712041238675,-1800.4756323127076
1712041238714,493.20688214246184
1712041238754,2081.415863387985
1712041238794,2814.007154894527
1712041238836,2779.692491150927
1712041238876,2856.480934655294
1712041238915,3203.355211536633
1712041238955,3584.5242434621323
1712041238995,3065.911896351725
1712041239035,3099.670323231723
1712041239076,2612.4942041058093
1712041239116,2550.357569491025
1712041239156,136.37098148884252
1712041239196,-3492.6488335852046
1712041239236,-6018.222416879842
1712041239277,-7177.290749282576
1712041239316,-7817.042252821848
1712041239356,-7966.17901031347
1712041239396,-7818.602150618564
1712041239436,-6987.856341751758
1712041239478,-5518.006678566104
1712041239517,-5191.14532955247
1712041239557,-5726.594123514369
1712041239597,-6464.998908198904
1712041239637,-5587.545485058101
1712041239678,-3858.7598770202603
1712041239717,-2110.671278043883
1712041239757,-1141.7440593880601
1712041239798,-2798.713290594984
1712041239841,-3944.1591532069724
1712041239879,-4666.332521824632
1712041239918,-4315.7483017081395
1712041239958,-5015.883533818647
1712041239998,-7037.426474433392
1712041240038,-7626.76682419586
1712041240080,-7627.787270883331
1712041240119,-5994.677651547827
1712041240159,-4666.287074187305
1712041240199,-2897.264048802899
1712041240239,-2089.1614753247704
1712041240280,429.6275345906615
1712041240320,2494.260119252838
1712041240360,4345.4934484730475
1712041240400,7002.326079285238
1712041240440,8647.807725206949
1712041240481,8269.609053652734
1712041240520,6513.29544656584
1712041240560,7396.23854563944
1712041240600,4709.328237986658
1712041240641,4617.152072458994
1712041240682,7200.575845786836
1712041240721,12915.928074796218
1712041240761,17210.428926624358
1712041240801,16294.145703455433
1712041240841,13372.324512779946
1712041240882,13272.381721033715
1712041240922,12966.253032600973
1712041240962,12379.659908847418
1712041241002,12488.361780714942
1712041241042,12753.976511183195
1712041241083,12340.020887080813
1712041241122,9497.518974332139
1712041241163,6291.80669991998
1712041241203,4454.294326733798
1712041241243,2987.3297725410666
1712041241284,2200.623394033406
1712041241323,1882.2550991922617
1712041241363,1733.3693106258288
1712041241404,616.4759272248484
1712041241444,678.1437337533571
1712041241485,902.58236754057
1712041241524,15370.567183647305
1712041241564,11516.613989847712
1712041241604,13301.7332105299
1712041241645,16994.24585397821
1712041241686,21690.29014547309
1712041241725,17804.23676307546
1712041241765,15565.109405729454
1712041241805,12048.984825031599
1712041241845,7403.880894153845
1712041241886,7560.940253553446
1712041241925,7657.5321386572905
1712041241966,7325.451511979336
1712041242006,6356.610824577045
1712041242046,6653.50413592183
1712041242087,5706.834972419543
1712041242126,5761.074933256023
1712041242166,5581.122436005855
1712041242207,6454.633281340823
1712041242247,7444.890285119647
1712041242288,8222.401570242597
1712041242327,7004.911366851069
1712041242367,9357.104823369533
1712041242407,13218.286719870055
1712041242448,13569.580665565096
1712041242489,9913.092311701039
1712041242528,6752.054797368124
1712041242568,5111.9951309952885
1712041242608,4243.487415336305
1712041242648,3262.3441218335647
1712041242689,2512.1287722708657
1712041242729,1824.2702632367145
1712041242768,2092.2161887590773
1712041242809,-10652.903673774097
1712041242850,-5496.63111283211
1712041242890,-5670.437517085578
1712041242932,-3037.1097396393307
1712041242972,-2026.80546049634
1712041243012,-755.6341713322327
1712041243052,269.1086540101096
1712041243094,-1222.2855020724237
1712041243132,-3810.0749756055884
1712041243173,-5420.566824440844
1712041243213,-5943.453281098511
1712041243253,-5743.404012764106
1712041243294,-5123.67136529251
1712041243333,-4580.427516758442
1712041243373,-4231.016468133312
1712041243413,-4279.818615438417
1712041243454,-3091.4241186780855
1712041243494,-2780.505948436912
1712041243534,-1682.6342490413226
1712041243574,-150.3585839907173
1712041243614,2859.235314091202
1712041243654,2781.7510072938167
1712041243695,3869.617359139258
1712041243734,5490.324257191503
1712041243774,4907.9765802286565
1712041243814,2998.4476411775686
1712041243854,675.288823484676
1712041243896,-353.35652270913124
1712041243935,-1044.1152351507917
1712041243975,-306.53024567477405
1712041244015,-29.189904182218015
1712041244055,-819.3136796450708
1712041244096,-1097.2873866804875
1712041244135,-1275.5746910495218
1712041244175,-953.1459469643887
1712041244215,-241.62174113071524
1712041244256,318.1757069914602
1712041244297,1612.385168111883
1712041244336,3814.8766905404627
1712041244376,5812.5111358999275
1712041244416,6548.954497440951
1712041244456,4955.094069151208
1712041244497,1843.1989181265235
1712041244536,-193.5550812536385
1712041244576,-1652.45266990643
1712041244616,-2309.7823988264427
1712041244657,-2410.9903444144875
1712041244698,-1840.7426451940555
1712041244737,-370.93716655578464
1712041244777,1633.5107396270614
1712041244817,2838.8938107085414
1712041244857,2442.9220696859993
1712041244898,1974.2720324192196
1712041244938,1278.3223158535548
1712041244978,963.6616561592091
1712041245018,1301.0681761633605
1712041245058,2392.5122653946746
1712041245099,3498.3421922768466
1712041245138,3560.7892556744628
1712041245178,2402.706585301552
1712041245218,2085.7682986380532
1712041245259,631.4594691400416
1712041245300,172.53843083325773
1712041245339,231.56467307475396
1712041245379,-254.46996313799173
1712041245419,-140.88088394561782
1712041245459,11.959739164449275
1712041245501,841.6517651127651
1712041245540,2083.834860509727
1712041245580,3295.3416120987386
1712041245620,3839.713298167102
1712041245660,3964.297688580584
1712041245701,5201.373909961432
1712041245740,6001.414796747966
1712041245780,6514.23624576861
1712041245820,5634.8229120760225
1712041245862,3489.347204722464
1712041245902,2375.1626394174527
1712041245941,1875.7964261244051
1712041245981,2195.1436025968287
1712041246021,1984.7650847341865
1712041246061,2233.667443750426
1712041246103,2341.3605183456093
1712041246142,2689.4108554548584
1712041246182,2964.875759593444
1712041246222,3555.7149226986803
1712041246262,4546.893177059945
1712041246303,5774.798299656715
1712041246342,6579.950563459657
1712041246382,7790.672344875988
1712041246423,8608.904311588965
1712041246463,8053.026550020091
1712041246504,5863.350896988297
1712041246543,4147.511349976063
1712041246583,2657.0716363228858
1712041246623,1784.1979538369924
1712041246663,1858.77778369328
1712041246705,1140.2956310841255
1712041246744,217.16678493563086
1712041246784,-875.3645551644731
1712041246824,-1019.5880897038151
1712041246864,-678.5701695457101
1712041246905,-234.21768071106635
1712041246945,822.4551097340882
1712041246985,433.22632638947107
1712041247025,1331.7387988974806
1712041247065,2012.5199307545554
1712041247106,709.9366766402964
1712041247145,-1087.4694963772781
1712041247186,-3270.448960690992
1712041247226,-3975.0651273056865
1712041247266,-4515.734736319166
1712041247307,-4572.812311250251
1712041247346,-3914.353465079097
1712041247386,-3877.4040080737323
1712041247426,-3849.0215728287585
1712041247467,-3120.5908669652417
1712041247508,-1974.7325831670314
1712041247547,-1019.4291783024091
1712041247587,-407.1416741660796
1712041247627,602.42118549929
1712041247667,1452.0502070887014
1712041247709,1778.320523920469
1712041247748,-590.2121956211049
1712041247788,-2816.736927757971
1712041247828,-4118.905549885472
1712041247868,-4373.9305578311905
1712041247909,-4282.257106717676
1712041247949,-3185.5844065363053
1712041247989,-2439.593721850775
1712041248029,-2620.4554651598446
1712041248069,-2363.5479787238874
1712041248110,-2973.654992595315
1712041248149,-2385.4716710448265
1712041248189,-1947.750567535637
1712041248230,-1282.7487162407488
1712041248270,-761.312296660617
1712041248311,-529.3493545660749
1712041248350,-340.9041857724078
1712041248390,-1823.116074800957
1712041248430,-5331.644295968348
1712041248470,-6866.308907182189
1712041248512,-7312.635413596174
1712041248551,-7281.13961849222
1712041248591,-6123.2241613774095
1712041248631,-5972.141351169208
1712041248671,-5681.088263833895
1712041248712,-5300.572461843491
1712041248751,-5084.594346193131
1712041248791,-4785.588559611468
1712041248831,-3888.5918383751996
1712041248873,-1906.2815692450386
1712041248913,571.8217852043454
1712041248952,2996.3204601868056
1712041248992,4659.939975028858
1712041249032,5156.6516801882535
1712041249072,2569.216849437449
1712041249113,650.9685219919775
1712041249152,-857.8362234625965
1712041249192,-1844.904518306721
1712041249233,-2220.5290692094713
1712041249273,-1745.1554627967998
1712041249314,-1331.2911284542643
1712041249353,-1727.527002704097
1712041249393,-861.7089440114796
1712041249433,-703.0919191937428
1712041249473,-53.19119072658941
1712041249514,1317.1738294963725
1712041249554,2653.3132975520566
1712041249594,3515.181380308699
1712041249634,4616.549435492605
1712041249674,3912.9100867644884
1712041249715,2044.4570930339396
1712041249754,-169.34693147661164
1712041249794,-1415.4405782322865
1712041249835,-1956.780666344799
1712041249875,-2163.170963042183
1712041249916,-2067.236537064193
1712041249955,-2142.31654104637
1712041249995,-1850.537464793073
1712041250035,-797.9398995426018
1712041250075,-523.2518905079924
1712041250116,-229.9700932293199
1712041250155,330.2945558540523
1712041250196,633.0208991831169
1712041250236,1561.3788876135368
1712041250276,2389.6101949217264
1712041250317,2307.343046645168
1712041250356,365.76106839068234
1712041250396,-931.5236950258259
1712041250437,-2433.3207977889106
1712041250477,-2902.881799601484
1712041250518,-2488.1518298476003
1712041250557,-2695.9725889475085
1712041250597,-2634.918204128975
1712041250637,-2795.808597210329
1712041250677,-2384.635881033493
1712041250718,-1993.7329561654478
1712041250757,-942.9415571684949
1712041250798,-606.7520680483431
1712041250838,318.19910845020786
1712041250878,1424.2885791375302
1712041250919,1056.4517311744858
1712041250958,-535.4722244944423
1712041250998,-1890.8371911710128
1712041251038,-3120.2606467455626
1712041251078,-4063.471816987265
1712041251120,-3618.8020395890344
1712041251159,-2808.71169832116
1712041251199,-2497.9570674230345
1712041251239,-2817.386464720359
1712041251279,-2719.3900739918463
1712041251320,-2317.522169738775
1712041251359,-1528.0775214321911
1712041251400,-640.275179869961
1712041251440,655.9147279127501
1712041251480,1875.0706456373446
1712041251521,3419.884112491738
1712041251560,5320.127204156481
1712041251600,5091.941213477869
1712041251641,7714.278509935364
1712041251681,13299.999474096112
1712041251722,17963.198803285835
1712041251761,19174.280419180635
1712041251801,17951.91466260841
1712041251841,20345.65728857601
1712041251883,20298.55148720718
1712041251922,23110.036109801847
1712041251962,24381.313580352813
1712041252002,27405.953764988575
1712041252042,30170.06513710087
1712041252082,33489.3320073979
1712041252123,37045.72225245484
1712041252162,39399.49135301262
1712041252202,42284.85815914138
1712041252243,42852.321963299066
1712041252283,42779.32002846664
1712041252324,41879.906798816286
1712041252363,43064.34211104922
1712041252403,42827.66836552229
1712041252443,44960.69890072523
1712041252484,46501.42233013688
1712041252524,49183.27241985034
1712041252564,56632.76902629947
1712041252604,60775.17647111602
1712041252644,62881.54770889226
1712041252684,60569.792874120176
1712041252725,55401.45106998272
1712041252764,47239.62428197265
1712041252805,42196.46327167563
1712041252845,39391.55213418417
1712041252885,30510.560244825203
1712041252926,23865.903080831748
1712041252965,19345.691880189814
1712041253005,8583.961271293461
1712041253046,11188.603141388856
1712041253086,11621.748269712087
1712041253127,8335.417972254567
1712041253166,6405.018191033974
1712041253206,5417.9264588896185
1712041253246,8427.165288078599
1712041253287,11875.734170214273
1712041253328,17633.775586967357
1712041253367,21300.73473362811
1712041253407,22975.925485861488
1712041253447,25004.668926294427
1712041253487,28210.593238046393
1712041253529,25660.568688057363
1712041253568,23072.712581452914
1712041253608,22840.924202860333
1712041253648,22977.95713747898
1712041253688,23901.772464418784
1712041253729,25170.697006182745
1712041253769,26801.23389735166
1712041253809,27285.642032146454
1712041253849,23044.10445292201
1712041253889,22110.127445928287
1712041253930,21308.49422144005
1712041253969,22278.841401026584
1712041254009,22564.44909603009
1712041254049,25287.952570488676
1712041254089,15354.727514728904
1712041254131,2774.897988076322
1712041254170,-59.328099304344505
1712041254210,3710.5971725871786
1712041254250,-1918.2770537044853
1712041254290,2015.3416822487488
1712041254331,1049.8264505346306
1712041254370,3891.0017116754316
1712041254411,8269.587953785434
1712041254451,12015.146063836291
1712041254491,15189.989037740044
1712041254532,19341.85530762095
1712041254571,21745.380943176802
1712041254611,18640.209670301992
1712041254651,14244.73208762426
1712041254691,14926.86791602103
1712041254732,18141.47377296351
1712041254772,19453.360111036804
1712041254812,18517.186637039296
1712041254852,18795.62187813921
1712041254894,17853.362386570312
1712041254933,16428.632581943646
1712041254972,15741.108474287204
1712041255012,13112.149043240584
1712041255052,12473.521441092715
1712041255093,12020.924049485475
1712041255134,12007.357634439133
1712041255173,8138.568104173988
1712041255213,-4717.740550590213
1712041255253,-13580.115055132192
1712041255293,-9422.608030036092
1712041255334,-3803.647199484054
1712041255373,-1757.4601231724955
1712041255414,4730.7852773098275
1712041255454,10158.316772338934
1712041255494,16008.850378550589
1712041255535,22190.63816053979
1712041255574,26305.485839358997
1712041255614,25748.222795780748
1712041255654,20586.597588580567
1712041255694,16093.564296778291
1712041255736,15293.112217072397
1712041255775,12808.575912898406
1712041255815,11511.4556336659
1712041255855,8150.307543014642
1712041255895,3752.824277199805
1712041255936,-9921.11745962128
1712041255975,-8716.579294607043
1712041256015,629.4765363428742
1712041256056,-1711.407016653102
1712041256096,-629.330456581898
1712041256137,5605.9474708279595
1712041256176,16886.98191915499
1712041256216,19007.651995463762
1712041256256,18096.99883893598
1712041256296,8261.124342700467
1712041256338,2765.4647101573646
1712041256377,-3757.3064297526143
1712041256417,-7202.766888155602
1712041256457,-8207.209747816436
1712041256497,-8170.048213382252
1712041256538,-13457.239914975595
1712041256577,-18411.641030918807
1712041256618,-16604.600405263714
1712041256658,-12322.63465049304
1712041256698,-13230.623828668147
1712041256739,-5000.166903167032
1712041256778,-2386.5583042115904
1712041256818,1737.1591913811862
1712041256858,9157.356460753363
1712041256899,6049.216518760659
1712041256940,-1850.1241135681048
1712041256979,-4169.576865404379
1712041257019,-7359.639384237584
1712041257059,-10322.095369442366
1712041257099,-15270.30719380593
1712041257140,-13967.959623118863
1712041257180,-18918.369363131467
1712041257220,-22446.506987051573
1712041257260,-23436.69447702309
1712041257300,-20966.68284957111
1712041257341,-18946.51077710651
1712041257380,-16729.683850809
1712041257421,-9555.920046093408
1712041257461,-4675.308561563492
1712041257501,1450.6891733645461
1712041257542,3422.3819969850592
1712041257581,-2530.384178068489
1712041257621,-1937.0699366088957
1712041257661,-2718.759158635512
1712041257701,-3482.954320325516
1712041257742,-2077.7301387144253
1712041257782,5692.948636597022
1712041257822,4460.371761647984
1712041257862,-5862.5615109000355
1712041257904,-6424.4984318148345
1712041257943,-12255.531372115482
1712041257983,-14626.43024570588
1712041258023,-15290.561484024394
1712041258063,-9943.709839489311
1712041258103,-2744.624589056708
1712041258144,5270.355357755441
1712041258183,7779.898939414881
1712041258223,2312.1278082220815
1712041258264,-2983.592468606308
1712041258304,-6309.211494640447
1712041258345,-8568.217351102736
1712041258384,-7625.428796270862
1712041258424,-9366.188941058703
1712041258464,-14811.36321558524
1712041258505,-18745.44176237099
1712041258545,-26471.62165663112
1712041258585,-31525.34315099381
1712041258625,-36009.704972805455
1712041258665,-33216.727728704456
1712041258705,-32890.237971522845
1712041258746,-30556.050459603313
1712041258786,-19225.869541146327
1712041258826,-17782.692436581478
1712041258866,-18602.809827275574
1712041258906,-25570.303337967023
1712041258947,-27694.7520999196
1712041258987,-26846.868065490387
1712041259027,-27018.09369228268
1712041259067,-26205.792906287592
1712041259107,-18949.821189072914
1712041259148,-20972.6362467953
1712041259187,-32131.433082007803
1712041259227,-33057.58702704357
1712041259268,-41158.52242520405
1712041259308,-47670.72039359715
1712041259349,-43899.393082440365
1712041259388,-38973.834455188364
1712041259428,-27429.416996086948
1712041259468,-21296.163430964574
1712041259508,-19215.508067142684
1712041259549,-23889.608600643463
1712041259588,-19589.933699268848
1712041259628,-20450.51961088553
1712041259669,-19516.358017420396
1712041259709,-17843.913007440977
1712041259749,-10005.011097098235
1712041259789,-10935.747465235181
1712041259829,-15817.82967833709
1712041259869,-17894.685386624187
1712041259909,-25340.536102029495
1712041259950,-31693.398798450362
1712041259989,-33946.665293290745
1712041260029,-38388.429548785556
1712041260070,-43691.11573387077
1712041260110,-42392.13489283621
1712041260151,-45238.26905745361
1712041260190,-46321.5723414463
1712041260230,-47146.16231362615
1712041260270,-49789.82365090959
1712041260310,-51566.10681435652
1712041260351,-52771.13294796273
1712041260391,-54084.51125668734
1712041260431,-45935.19586004317
1712041260471,-49310.82353031589
1712041260511,-55425.33694208483
1712041260552,-56458.91121490579
1712041260591,-60442.29039626196
1712041260631,-64433.962475496344
1712041260672,-64717.50980223715
1712041260712,-70066.72538635368
1712041260752,-60864.03509416594
1712041260792,-58982.86567553808
1712041260832,-59252.310317438096
1712041260872,-59144.16346832737
1712041260914,-58366.38839593809
1712041260953,-57220.85088453023
1712041260992,-55091.19277178636
1712041261033,-54424.5749399201
1712041261073,-52965.52359416429
1712041261113,-51774.874058173504
1712041261154,-54082.84044114873
1712041261193,-55790.76675017085
1712041261233,-57257.75943921786
1712041261273,-58037.695175850764
1712041261313,-57103.27328749932
1712041261354,-56195.59690942103
1712041261394,-54688.9636413292
1712041261434,-53544.08945683646
1712041261474,-53027.09923396562
1712041261514,-52000.172307060566
1712041261555,-50306.13825818687
1712041261594,-48195.25013573794
1712041261635,-46549.250374028226
1712041261675,-44680.110140814446
1712041261715,-42739.51535196439
1712041261756,-44860.85435704817
1712041261795,-47026.56141198194
1712041261835,-48349.83960135421
1712041261875,-48453.922711403575
1712041261915,-47663.45766418963
1712041261956,-46529.80578052439
1712041261996,-45540.50950676575
1712041262035,-45020.647771130316
1712041262076,-44104.96874097013
1712041262116,-42633.54818009818
1712041262157,-40724.10285975132
1712041262196,-38478.30011432385
1712041262236,-36683.93280655751
1712041262276,-34446.73179992987
1712041262316,-31968.38143643434
1712041262357,-32495.378582261503
1712041262397,-34674.67903064727
1712041262437,-35850.727547915885
1712041262477,-36519.557481338736
1712041262517,-36079.70444755722
1712041262558,-34487.71596430009
1712041262597,-33118.17564680567
1712041262637,-31776.463736280333
1712041262677,-31491.84393376368
1712041262718,-30512.24341025576
1712041262758,-28238.84897358995
1712041262798,-25647.418129451806
1712041262838,-23105.206622492522
1712041262878,-20774.165353826247
1712041262918,-18395.67488827766
1712041262959,-16291.333861503284
1712041262998,-17195.628217495047
1712041263039,-19086.931812907103
1712041263079,-20943.107229470974
1712041263119,-21941.230074032675
1712041263160,-22464.82342705177
1712041263199,-21739.827079856303
1712041263239,-20660.500132301357
1712041263279,-20262.67593240086
1712041263320,-19266.232868598076
1712041263360,-17713.924604193307
1712041263400,-16254.088842282305
1712041263440,-14809.954186599003
1712041263480,-13620.474798336858
1712041263520,-11846.655523445457
1712041263561,-9886.16857576347
1712041263601,-8694.773150587222
1712041263641,-8856.3798431803
1712041263681,-11494.518535213545
1712041263721,-13835.858171913773
1712041263762,-15356.050188926514
1712041263801,-16485.82101107342
1712041263841,-16068.19430026738
1712041263882,-15562.676646137144
1712041263923,-14855.360972186783
1712041263963,-13500.964257553918
1712041264002,-12063.07004546118
1712041264042,-10404.780039932579
1712041264082,-8927.67519525392
1712041264122,-7422.913742961828
1712041264163,-5796.848873387324
1712041264203,-4244.755244286498
1712041264243,-2558.7400947650895
1712041264283,-1206.2038334168028
1712041264323,-1713.4793455940671
1712041264364,-3535.2964890156873
1712041264404,-4763.267093847739
1712041264444,-4929.407711307751
1712041264484,-5095.753037982155
1712041264524,-4568.778111540247
1712041264565,-3634.8382272967137
1712041264604,-3570.895406003343
1712041264645,-3324.0324181399774
1712041264685,-2551.360722360434
1712041264725,-1487.0251495544799
1712041264766,-37.18839352019131
1712041264805,991.8243742939085
1712041264845,2095.6185421354603
1712041264886,3186.6438174396753
1712041264926,5111.265158185735
1712041264966,5302.315529203508
1712041265006,4328.2806458487175
1712041265046,2815.979424517136
1712041265086,2102.4315713164397
1712041265126,1362.0749236289412
1712041265167,813.6334980274551
1712041265206,94.90336392191239
1712041265247,-1049.804552054964
1712041265287,-1407.912461178843
1712041265327,-1126.4178388053551
1712041265368,300.0542087738868
1712041265407,1196.0690380013548
1712041265447,2254.9164976021275
1712041265487,3194.2966518355533
1712041265527,4480.606539294589
1712041265568,5182.989110953873
1712041265608,3793.9568489389494
1712041265648,1949.8737882643472
1712041265688,1140.9400761860888
1712041265728,481.4191950308159
1712041265769,116.90935541619547
1712041265808,76.89880094700493
1712041265848,-935.3898831051774
1712041265888,-1136.6253915652633
1712041265928,-1498.12522520544
1712041265969,-1042.8234334485605
1712041266009,-454.92710449779406
1712041266049,-117.55132955010049
1712041266089,1017.3097488884814
1712041266129,2192.337925104657
1712041266170,3015.861124711344
1712041266209,1903.1281835348345
1712041266249,-457.34801440592855
1712041266289,-3205.474153570831
1712041266330,-4967.115702226292
1712041266370,-5296.876377952285
1712041266410,-4538.350298301317
1712041266450,-4382.0177569263615
1712041266490,-4162.632539491635
1712041266530,-3879.8212053710595
1712041266571,-3560.6583805789705
1712041266610,-3222.391013558954
1712041266650,-2589.0233758823015
1712041266691,-1781.7457045675255
1712041266731,-886.7830902971327
1712041266772,172.05896223080344
1712041266811,100.27410358260386
1712041266851,-1375.0722898372915
1712041266891,-3846.4526104405522
1712041266933,-4876.732627940597
1712041266972,-5411.277922222624
1712041267014,-4774.998733216431
1712041267055,-3377.569765678607
1712041267095,-3403.1905793249607
1712041267135,-3523.348477330059
1712041267176,-3309.4832871495746
1712041267215,-2546.950982100563
1712041267255,-1934.4659467684105
1712041267295,-1173.1311660604551
1712041267335,68.28877395251766
1712041267376,1776.1022795308381
1712041267416,2462.620852387743
1712041267456,3099.661600942025
1712041267496,995.8147248877212
1712041267536,-1274.1613000247162
1712041267577,-2893.2295527607203
1712041267616,-4298.196922057541
1712041267657,-5215.532611900009
1712041267697,-5857.626084460877
1712041267737,-6088.784579935484
1712041267778,-6312.889867307618
1712041267817,-7165.308439315762
1712041267857,-6490.811336379033
1712041267897,-5196.401650708634
1712041267937,-4275.87881326396
1712041267978,-3022.0984628649894
1712041268018,-1563.8432633406483
1712041268058,-176.0967445061542
1712041268098,858.6241982376669
1712041268138,-27.60344468220137
1712041268179,-2122.955334072467
1712041268218,-4037.92743028095
1712041268259,-5643.8387735039
1712041268299,-6231.403454789659
1712041268339,-6566.809670723975
1712041268380,-6126.1488140274305
1712041268419,-5744.8417927939445
1712041268459,-5362.581611136906
1712041268499,-4651.250019561034
1712041268539,-3704.5809461756144
1712041268580,-2061.219580751378
1712041268620,-498.85778024070896
1712041268660,682.8937479131855
1712041268700,2616.384795172373
1712041268740,3779.5470797121525
1712041268781,3702.2030849142466
1712041268820,1655.2066669901833
1712041268860,-265.52752612973563
1712041268901,-1028.1915848918725
1712041268941,-1412.5919240426738
1712041268982,-716.1238227300346
1712041269021,-857.5173430480063
1712041269061,-959.5255698489491
1712041269101,-400.34690488292836
1712041269141,342.53474027779885
1712041269182,1142.115449372679
1712041269222,2224.02445741836
1712041269262,3103.1216921899468
1712041269302,4017.8237015337218
1712041269342,5336.125278816093
1712041269383,5947.611715661129
1712041269422,4685.963927754667
1712041269463,2157.271399167832
1712041269503,-71.07251044875011
1712041269543,-818.9439801902045
1712041269584,-1027.351660740329
1712041269623,-287.3176712631248
1712041269663,77.18332963716239
1712041269704,-19.07365214987658
1712041269744,-8.769518775632605
1712041269784,128.2384780650027
1712041269824,520.0170730873942
1712041269864,1297.649264066713
1712041269904,1982.4273112204392
1712041269946,2915.724845523946
1712041269985,4357.242585245054
1712041270025,4575.885485337814
1712041270065,3035.4468045299873
1712041270105,730.5053947111592
1712041270145,-881.4437779840082
1712041270186,-1639.9335892093368
1712041270225,-2043.2367540062405
1712041270266,-1885.020005212631
1712041270306,-1277.4511452901643
1712041270346,-1162.228379277978
1712041270387,-908.2940313979052
1712041270426,-473.6000501536764
1712041270466,73.43267235043459
1712041270506,899.5714483477641
1712041270547,2110.540424922481
1712041270588,2825.5641521057114
1712041270627,3970.7323257047683
1712041270667,3866.553807894932
1712041270707,2631.547524853144
1712041270748,453.02604489121586
1712041270789,-1193.1202040314674
1712041270828,-2574.335454368964
1712041270868,-2682.707409433555
1712041270908,-2896.1489116777666
1712041270948,-2912.5473798094317
1712041270989,-2891.5629774155095
1712041271028,-2443.6189043638296
1712041271068,-1911.490672481712
1712041271108,-996.5186032531783
1712041271149,302.01744704367593
1712041271189,1389.8583264853805
1712041271229,2737.6374438651837
1712041271269,3452.5060980156995
1712041271309,4785.09002724872
1712041271349,3562.762300674338
1712041271390,1397.8229169235565
1712041271429,-291.870366205927
1712041271469,-1526.6715436927043
1712041271510,-2285.5152958808467
1712041271550,-2480.3676266055554
1712041271590,-2663.0141979292966
1712041271630,-2785.499454890145
1712041271670,-2162.403066828847
1712041271710,-1663.2797873001546
1712041271750,-1380.420529606985
1712041271791,176.71381101896986
1712041271830,1747.0815001544543
1712041271871,3287.6619011268485
1712041271910,4691.6744346669875
1712041271951,6025.207837951602
1712041271992,4715.453994875541
1712041272031,2022.4151791222394
1712041272071,498.4712871289812
1712041272111,-13.629771809792146
1712041272151,-612.7043564117048
1712041272192,-468.910147823859
1712041272232,-136.01996975112706
1712041272272,391.548579917755
1712041272312,871.2925400859676
1712041272352,2392.5257290846203
1712041272392,3137.2392596392892
1712041272432,4460.312866220949
1712041272472,5840.615412028506
1712041272512,7034.755265276646
1712041272552,8319.505813881988
1712041272593,9887.816251437645
1712041272632,10424.97471582028
1712041272673,8928.599230373744
1712041272713,7228.651586576365
1712041272753,6344.620642376598
1712041272794,6285.0237862661015
1712041272833,6612.294299020898
1712041272873,7234.608235104941
1712041272913,7465.45407992648
1712041272955,7462.720889362041
1712041272994,8158.295452380087
1712041273034,9064.437448276207
1712041273074,10140.681644801982
1712041273114,11296.479047365952
1712041273154,12741.02999856975
1712041273195,13471.18024307955
1712041273234,14562.275889759883
1712041273274,15078.472183497157
1712041273315,13312.445553211961
1712041273355,11495.491712226067
1712041273395,9966.71986132441
1712041273435,9382.57939685369
1712041273475,9000.00466726115
1712041273515,9090.118135418277
1712041273555,8504.509311104426
1712041273596,7923.407418267336
1712041273635,7467.320389085682
1712041273675,8553.675620744238
1712041273716,9278.976347846445
1712041273756,10021.220497544622
1712041273797,11408.106878647115
1712041273836,12673.212696706876
1712041273876,12976.835247539682
1712041273916,12421.307846379932
1712041273956,9967.721691744402
1712041273997,8252.04663272202
1712041274037,6603.81109841913
1712041274076,5941.712585227098
1712041274117,6390.684950592462
1712041274157,7054.191281548468
1712041274198,6835.219411081867
1712041274237,6848.653769491473
1712041274277,6888.199661925901
1712041274317,8024.427125887945
1712041274357,8648.798935686238
1712041274398,9365.931644576835
1712041274438,10087.60729363584
1712041274478,11472.464554816484
1712041274518,11351.04940058617
1712041274558,8844.035660455935
1712041274599,6165.038813174702
1712041274638,4042.816048683366
1712041274678,2764.0132631398737
1712041274718,1854.5963395400904
1712041274759,1682.5787548446096
1712041274799,1128.0854648812674
1712041274839,871.7501326543279
1712041274879,874.1532945537474
1712041274919,1247.7093301813584
1712041274959,1217.3044478951488
1712041275000,1453.3198323678225
1712041275040,2342.9121274650097
1712041275080,2845.728455987759
1712041275120,2742.9490945513826
1712041275160,1149.4093283172697
1712041275201,-2419.520153327845
1712041275240,-5173.652082808083
1712041275280,-7160.344041541684
1712041275320,-7985.303178988397
1712041275361,-8783.094180678017
1712041275402,-9540.80717533594
1712041275441,-10017.717158845859
1712041275481,-9632.807050804608
1712041275521,-8876.205438865814
1712041275561,-8181.197210141458
1712041275602,-7105.454149380792
1712041275642,-6695.976702350192
1712041275682,-5810.006500263233
1712041275722,-4499.395855346695
1712041275762,-4431.023495001951
1712041275803,-6192.642570191529
1712041275842,-8853.021539027803
1712041275882,-11043.566945956321
1712041275923,-12244.450816894416
1712041275964,-13436.42194873048
1712041276004,-13973.062963082222
1712041276043,-13574.772615033668
1712041276083,-13047.812127565965
1712041276123,-12438.168565222062
1712041276164,-11878.246675319504
1712041276204,-10928.8407024201
1712041276244,-9690.77662437642
1712041276284,-7487.297601674218
1712041276324,-6222.061866280623
1712041276364,-4947.792473935755
1712041276405,-3333.520307075465
1712041276445,-4225.38659211644
1712041276485,-6236.262368329335
1712041276525,-7649.9408173549455
1712041276565,-8706.002827682765
1712041276606,-8921.8117802958
1712041276645,-8248.327270100592
1712041276685,-7376.001521851402
1712041276725,-6761.629661207786
1712041276766,-6478.339760064147
1712041276806,-6825.336390020093
1712041276846,-6480.715443363413
1712041276886,-5159.650612954516
1712041276926,-3100.9528689708095
1712041276966,-876.1102196155116
1712041277007,1501.3914881397504
1712041277047,4028.5415009646676
1712041277087,5894.930689172354
1712041277127,2747.5388484504074
1712041277167,1411.2706023894716
1712041277207,623.9023098254111
1712041277247,197.77401451021433
1712041277287,744.2545742155053
1712041277327,389.36518657021224
1712041277367,-211.9514319836162
1712041277408,-622.1860140580684
1712041277447,-1259.6381640699692
1712041277487,-1186.2757760200184
1712041277528,-433.4128122034017
1712041277568,142.07812333106995
1712041277608,1095.3155836418737
1712041277648,2491.922305121552
1712041277688,3401.4968226610217
1712041277728,3089.5191353363916
1712041277768,1993.2155700665899
1712041277809,1027.486678706482
1712041277848,185.6404361401219
1712041277889,-137.9094897257164
1712041277929,417.52073207637295
1712041277969,927.9363000160083
1712041278010,1571.0096624770667
1712041278049,1706.693876142148
1712041278089,2942.5377817081753
1712041278129,4525.740900974022
1712041278169,5074.8789356960915
1712041278210,5666.221796878846
1712041278250,6137.862503160723
1712041278290,6091.711974607315
1712041278330,6167.099916244857
1712041278370,4200.52402607142
1712041278411,3080.215368962381
1712041278450,1852.6695075775497
1712041278490,896.5880106189288
1712041278530,753.1116184662096
1712041278570,536.9602152879816
1712041278611,224.41364238807
1712041278651,400.6502193210181
1712041278691,759.3841936201788
1712041278731,2434.353669430362
1712041278771,4816.3175764163025
1712041278812,6371.859257613076
1712041278851,7292.072582830209
1712041278891,8246.32769242255
1712041278931,9086.443374987459
1712041278973,7950.492750609294
1712041279012,5414.089576219674
1712041279104,3735.710014465265
1712041279144,2596.300986644579
1712041279184,2070.0861880271696
1712041279224,2129.041994535364
1712041279265,3171.4833978703246
1712041279304,3557.8325939220376
1712041279344,2832.4832058292814
1712041279385,3350.7456615911797
1712041279425,4235.681541912025
1712041279466,4298.8600191550795
1712041279505,5372.248944432242
1712041279545,6537.22436235426
1712041279585,7645.892962184269
1712041279625,8693.93630913645
1712041279666,7864.832767321728
1712041279705,5983.570656900294
1712041279746,4298.901625999715
1712041279786,3201.174669925589
1712041279826,2574.0154489919078
1712041279867,2525.2339800149202
1712041279906,3092.3568581456784
1712041279946,3162.651504235342
1712041279986,3499.7921571284533
1712041280026,4044.1504991264082
1712041280067,4660.387156404089
1712041280107,5196.0370041541755
1712041280147,5660.444300385192
1712041280187,6906.55238075438
1712041280227,7780.145919824019
1712041280268,7960.543021238875
1712041280307,7404.71621176484
1712041280348,5485.78290190408
1712041280388,4295.487092391588
1712041280428,3784.4335274798796
1712041280469,3592.1200622539036
1712041280508,3458.411143305246
1712041280548,3322.05655440758
1712041280588,3409.091103051789
1712041280628,3465.37418092601
1712041280669,4182.136171877384
1712041280709,5118.467269748915
1712041280749,6941.8899827064015
1712041280789,8363.968736838084
1712041280829,9261.589586977847
1712041280870,10188.937414136017
1712041280909,10237.769115021918
1712041280949,8995.05954500148
1712041280989,6897.083589243935
1712041281029,5428.337639677338
1712041281070,4779.53037421545
1712041281110,5071.206168338656
1712041281150,5355.156810345361
1712041281190,5452.258323473856
1712041281230,5533.908186064102
1712041281271,5343.474056989653
1712041281310,5815.058392952895
1712041281350,5781.799385690596
1712041281390,6418.124456016347
1712041281431,6911.095419299323
1712041281471,6925.708069747081
1712041281511,7503.525748285931
1712041281551,6506.830405320041
1712041281591,4126.371236425359
1712041281631,2704.397920147516
1712041281672,2217.6662378315814
1712041281711,2188.1640972460154
1712041281751,2438.521795332432
1712041281792,3110.979646112304
1712041281832,2684.799481571652
1712041281873,2887.9318407757673
1712041281912,3225.238676981535
1712041281952,2878.383680027211
1712041281992,3024.2261563856155
1712041282034,3748.4158554496244
1712041282073,3968.0948871835135
1712041282113,4071.018202002626
1712041282153,4514.598434203304
1712041282193,3555.001544790808
1712041282233,2050.2648236288223
1712041282274,1907.5154566064011
1712041282313,1329.1303128344007
1712041282354,901.9708958824631
1712041282394,1092.7342485552654
1712041282434,1465.1797340405174
1712041282475,964.8353791709524
1712041282514,1425.6742380161304
1712041282554,1538.5241312659346
1712041282594,2181.7646291253623
1712041282635,3161.841925552115
1712041282675,4003.7459140177816
1712041282715,4637.29963248549
1712041282755,5422.3053710251115
1712041282795,5572.036712811561
1712041282835,3582.7112493985333
1712041282876,1315.3240636624396
1712041282915,157.8522925900761
1712041282956,-477.9754014695063
1712041282996,-1240.522429226432
1712041283036,-676.7987283309922
1712041283077,-1560.6034000255167
1712041283116,-1180.4506341097876
1712041283156,-749.2411348912865
1712041283197,-422.1393141797744
1712041283237,1088.6187630388886
1712041283278,2209.8843270349316
1712041283317,3141.1376609709114
1712041283357,4106.178079880774
1712041283397,4950.9805720681325
1712041283437,4322.934626794886
1712041283478,2265.1317785913125
1712041283517,835.0958230425604
1712041283557,-230.76859668828547
1712041283598,39.332248793914914
1712041283638,460.4821011116728
1712041283678,1097.8904529311694
1712041283718,1278.1197643741034
1712041283758,1578.146793331951
1712041283798,1358.5534975100309
1712041283838,1847.6947254254483
1712041283879,1851.7144309412688
1712041283918,2534.467890950851
1712041283958,3291.872798077762
1712041283998,4375.818831364624
1712041284038,4624.552335374523
1712041284079,4715.873505215161
1712041284119,5235.062312671915
1712041284159,8051.282417546026
1712041284199,11762.714064312866
1712041284239,13847.97305748798
1712041284280,14054.336143952329
1712041284319,11524.324460848235
1712041284359,9997.3975181391
1712041284399,8509.49417545204
1712041284440,8381.315714744851
1712041284480,8564.74048404931
1712041284520,9109.368223399855
1712041284560,9501.505669169826
1712041284600,9915.992332929512
1712041284640,10526.276083737146
1712041284681,11718.601044507464
1712041284720,12162.775989620015
1712041284760,12282.800106230192
1712041284801,11551.010855520144
1712041284841,9967.262204560917
1712041284881,7772.781457732432
1712041284921,6517.269760505995
1712041284961,5627.298417237587
1712041285001,5064.883914486505
1712041285043,4852.521821195725
1712041285082,5090.505109620513
1712041285121,5586.355650742073
1712041285162,6048.478780008387
1712041285201,6342.672503360547
1712041285242,7685.749315600842
1712041285283,8952.982055994915
1712041285322,10168.815531412838
1712041285362,8401.484535643365
1712041285402,5917.993043957278
1712041285442,4420.469605421647
1712041285483,2667.2844104755204
1712041285523,2232.88674946269
1712041285563,2349.7359217104968
1712041285603,3023.0620522473473
1712041285644,3512.916811771225
1712041285684,3942.5073875423986
1712041285724,4627.758549800143
1712041285765,6057.817173312884
1712041285805,7625.297307357425
1712041285847,8964.056016115006
1712041285888,10634.914406262338
1712041285927,10595.734290731605
1712041285968,8360.145090479404
1712041286008,6045.730715040583
1712041286048,4036.418246839894
1712041286089,3026.667185936123
1712041286129,2689.1725747422315
1712041286169,2773.5725949874613
1712041286209,2354.864467256004
1712041286250,1871.7290016687475
1712041286291,1665.566347320564
1712041286330,1320.9709375253879
1712041286370,1437.1825971379876
1712041286410,1549.223791513592
1712041286451,1402.745834039757
1712041286492,2310.4502241932787
1712041286532,1054.0564973172732
1712041286572,-758.8686378623825
1712041286613,-2780.279789897613
1712041286653,-4299.864833696047
1712041286694,-5150.898497006157
1712041286733,-5518.255008037668
1712041286773,-6075.592083331663
1712041286814,-6123.103053095518
1712041286854,-6498.474492331035
1712041286895,-6662.710067709442
1712041286934,-6086.172394511756
1712041286975,-4931.116682861466
1712041287015,-3672.5414671418257
1712041287055,-2119.4585527731106
1712041287096,-1390.2170416540466
1712041287135,-752.5218823675532
1712041287176,-2068.0273417409044
1712041287216,-4023.0548189780675
1712041287259,-4951.047801403562
1712041287297,-5930.667360268533
1712041287337,-5023.751466791611
1712041287377,-4436.041201103944
1712041287417,-4210.977764603216
1712041287458,-4043.252184599638
1712041287498,-3093.9824965919834
1712041287538,-1904.3118867583107
1712041287578,-1118.5375602927525
1712041287618,51.9889266283717
1712041287658,1078.5017736679874
1712041287699,1476.2099761273712
1712041287740,2207.1859145690687
1712041287780,-44.2150514414534
1712041287821,-1235.3048592866398
1712041287861,-2557.413251116872
1712041287902,-2964.0888550719246
1712041287941,-2861.2946087876335
1712041287981,-3138.425261588767
1712041288021,-3610.592925417237
1712041288063,-3028.146603232948
1712041288102,-2355.6164305568673
1712041288142,-1509.364029508084
1712041288182,114.73149745445698
1712041288222,1431.4015712160617
1712041288263,2843.497998076491
1712041288304,4641.348716452718
1712041288343,6172.925918466179
1712041288383,7471.975613772403
1712041288424,6539.950790356845
1712041288464,4720.175382178277
1712041288505,3619.310853499919
1712041288544,3128.865621683188
1712041288584,3468.2557640636805
1712041288625,3934.4611728054006
1712041288665,4021.632475863211
1712041288706,4036.2648541904055
1712041288745,4657.637750661233
1712041288786,5095.423379346961
1712041288826,6289.526275555603
1712041288866,8267.45868825633
1712041288907,9625.500881744083
1712041288947,10019.545892586699
1712041288987,11628.837139540818
1712041289027,13040.298270160332
1712041289067,12357.480420908425
1712041289109,9753.847184058977
1712041289148,8355.128795926226
1712041289188,7765.138031057548
1712041289228,6956.749533883296
1712041289269,7120.882618512958
1712041289310,7061.630810602801
1712041289349,6993.80584026943
1712041289390,6291.4099957856815
1712041289430,6579.422247512266
1712041289473,6898.2364287003875
1712041289511,7084.735882660607
1712041289550,7794.265264416812
1712041289591,8584.84228505101
1712041289631,9256.923265888356
1712041289671,9484.319173032185
1712041289712,8752.442929398734
1712041289752,6544.9662044302095
1712041289792,5009.3452842263505
1712041289832,3856.130256035365
1712041289873,801.2124065388925
1712041289914,-3471.821982118301
1712041289953,-7373.050948254066
1712041289993,-11602.169161226135
1712041290033,-16164.952239988372
1712041290074,-19878.17300154688
1712041290115,-24130.633755103918
1712041290154,-27067.44909369666
1712041290194,-29638.509978953283
1712041290235,-33814.3153147297
1712041290275,-37034.37980957003
1712041290316,-37133.188957243925
1712041290356,-36195.44415772846
1712041290396,-37909.288532950915
1712041290436,-38717.21988620469
1712041290477,-38079.11280161189
1712041290517,-37874.84067556984
1712041290557,-36855.894131694455
1712041290597,-34954.094042215496
1712041290637,-33964.64453666611
1712041290677,-32859.60617626156
1712041290718,-32584.623151774053
1712041290758,-32627.620491561713
1712041290798,-32148.959967464674
1712041290838,-31033.186383023858
1712041290878,-30955.394360629376
1712041290919,-31079.650208999403
1712041290959,-29973.530590940267
1712041290999,-31790.608636092395
1712041291039,-33031.54078352754
1712041291081,-38959.186602125876
1712041291120,-40958.54947687546
1712041291159,-41520.23773548659
1712041291198,-39089.15727283992
1712041291237,-36341.80216556252
1712041291276,-34435.81446581567
1712041291315,-32987.067735888064
1712041291354,-32674.22114362754
1712041291393,-31275.774306582753
1712041291432,-29373.597013135906
1712041291471,-26292.949195818976
1712041291510,-22253.251130062854
1712041291549,-16960.581289551686
1712041291588,-10430.7695688745
1712041291627,-5189.834996463731
1712041291666,-1355.3585196568165
1712041291705,1905.2783073601313
1712041291744,4522.521946069319
1712041291783,8235.778967274819
1712041291822,11948.70929521136
1712041291862,14580.684205886675
1712041291902,17198.231324177934
1712041291942,19522.30271681724
1712041291982,21933.641023973003
1712041292022,24752.8722324525
1712041292062,28670.955257884692
1712041292102,31320.583980868803
1712041292142,33786.93777349149
1712041292182,37530.08097337047
1712041292222,40059.130667066434
1712041292262,42276.786637621466
1712041292302,40311.72240194166
1712041292342,41945.516827418935
1712041292382,42333.78705294011
1712041292422,41286.17459578975
1712041292462,40067.50438550208
1712041292502,39970.51923145121
1712041292542,38703.31841113046
1712041292582,37727.43079905026
1712041292622,37774.06067661289
1712041292662,37517.3703540056
1712041292702,37282.71135426196
1712041292742,36541.77721017855
1712041292782,36204.07670543715
1712041292822,33689.987624581205
1712041292862,28439.227891334565
1712041292902,26410.59398986562
1712041292942,22696.410098784138
1712041292982,17420.207117096987
1712041293022,13600.907239662949
1712041293062,11362.241165922489
1712041293102,10034.621151052881
1712041293142,10676.294105942594
1712041293182,10200.314546704292
1712041293222,9326.096637762617
1712041293262,9486.932010375895
1712041293302,8811.399696034845
1712041293342,8512.918942136224
1712041293382,9447.030422163196
1712041293422,10807.133640998509
1712041293462,12270.083182969363
1712041293502,13746.132515179226
1712041293542,13413.416402013507
1712041293582,12081.329243648797
1712041293622,11003.93525598431
1712041293662,4872.308303892147
1712041293702,6490.273750223685
1712041293742,6974.012641091365
1712041293782,7214.0062684933655
1712041293822,7866.932371751871
1712041293862,8987.878534724005
1712041293902,10332.183527581394
1712041293942,11879.99799850909
1712041293982,13710.037534212694
1712041294022,16370.073492262978
1712041294062,18875.567138197366
1712041294102,20180.688561572228
1712041294142,20293.607960837428
1712041294182,17753.125230113976
1712041294222,14560.617952494882
1712041294262,11913.403108260129
1712041294302,10172.129172688117
1712041294342,8101.061874161009
1712041294382,6948.73376513226
1712041294422,5789.748005153146
1712041294462,4274.520045922138
1712041294502,3767.124744060915
1712041294542,3024.07504431461
1712041294582,3193.082899597939
1712041294622,3028.211142269429
1712041294662,2660.007985641714
1712041294702,2018.0362352232914
1712041294742,1210.516663000686
1712041294782,-1860.7475058806594
1712041294822,-5390.733025449095
1712041294862,-7653.959771766327
1712041294902,-8879.349334966391
1712041294942,-5238.733975722222
1712041294982,-7322.971825771034
1712041295022,-7605.46199750388
1712041295062,-8164.966422378551
1712041295102,-7989.225552675081
1712041295142,-7957.6521614030935
1712041295182,-7644.52373780054
1712041295222,-7100.2934888144955
1712041295262,-6605.712044481421
1712041295302,-5966.583383090794
1712041295342,-4655.316110327374
1712041295382,-4228.640176125104
1712041295422,-5886.976231785491
1712041295462,-7555.886233389378
1712041295502,-8424.52908101445
1712041295542,-8354.787288137944
1712041295582,-7846.207190145273
1712041295622,-6789.278185241856
1712041295662,-6450.770636927802
1712041295702,-6303.287195211742
1712041295742,-5214.033259199699
1712041295782,-3949.516307343263
1712041295822,-2490.6748994106892
1712041295862,218.99579318147153
1712041295902,1338.9922693162225
1712041295942,1119.9825426533353
1712041295982,-967.3093463648111
1712041296022,-3714.325952908024
1712041296062,-6660.269289709162
1712041296102,-7536.98160040006
1712041296142,-7185.758920200169
1712041296182,-5858.232523877639
1712041296222,-4657.406607834622
1712041296262,-3854.7490337020718
1712041296302,-2752.629353892524
1712041296342,-537.8593161031604
1712041296382,788.3205638753716
1712041296422,3023.467273228336
1712041296462,3646.7914732475765
1712041296502,4326.920698319562
1712041296542,4480.662162864348
1712041296582,3824.4759484049864
1712041296622,1766.5332249524072
1712041296662,-222.0406425963156
1712041296702,-1965.5543891803827
1712041296742,-3201.7079590724315
1712041296782,-3322.9474006732926
1712041296822,-4789.78805089416
1712041296862,-6594.587384502869
1712041296902,-8179.154811050976
1712041296942,-8915.129604073707
1712041296982,-9484.68069892074
1712041297022,-9095.044153850991
1712041297062,-8230.584521327633
1712041297102,-6893.065245847683
1712041297142,-6427.257303453283
1712041297182,-6480.250523358351
1712041297222,-8054.274641062599
1712041297262,-8186.876067783916
1712041297302,-8241.075264913496
1712041297342,-7252.688804442063
1712041297382,-6751.533935858868
1712041297422,-5705.025127723813
1712041297462,-4522.70279362821
1712041297502,-3535.9614628534764
1712041297542,-2367.558389338432
1712041297582,-1214.9171346626244
1712041297622,497.99253529147245
1712041297662,2772.1083101434633
1712041297702,3295.0246416430455
1712041297742,5166.354976862436
1712041297782,6182.1165324207395
1712041297822,6612.791755636223
1712041297862,4207.837697868003
1712041297902,3293.8902263175696
1712041297942,2800.5489843259566
1712041297982,3105.0427948855795
1712041298022,3996.978938261047
1712041298062,5003.875759263989
1712041298102,7243.93886166485
1712041298142,10633.342418121872
1712041298182,13146.460832851939
1712041298222,14132.096579198027
1712041298262,13530.140539309941
1712041298302,12383.308411665028
1712041298342,11816.465997819789
1712041298382,12579.894159209915
1712041298422,12745.587150187232
1712041298462,10221.977749825688
1712041298502,6628.97635877342
1712041298542,4195.956743981224
1712041298582,2922.2757545700297
1712041298622,3079.392008382827
1712041298662,3371.3482711948454
1712041298702,2655.399087065365
1712041298742,2042.5657211367507
1712041298782,2188.8098610385787
1712041298822,2298.2974719910417
1712041298862,2953.42514235666
1712041298902,2907.63052505441
1712041298942,3261.4709160774946
1712041298982,4715.8940996686
1712041299022,5209.012952281628
1712041299062,4024.5044517922215
1712041299102,1483.1703710523434
1712041299142,-201.3096644631587
1712041299182,-465.7156377923675
1712041299222,150.75847211340442
1712041299262,607.5091221425682
1712041299302,1173.1757274065167
1712041299342,1544.2614777293056
1712041299382,2242.149299558252
1712041299422,2843.450075202156
1712041299462,3518.604822571622
1712041299502,4697.198542274069
1712041299542,5701.370062865317
1712041299582,7217.38184459554
1712041299622,7225.8297345940955
1712041299662,4953.994648186257
1712041299702,3021.0079418732785
1712041299742,2551.2228154412005
1712041299782,2781.7966136245523
1712041299822,3350.633790387772
1712041299862,4554.022541591432
1712041299902,5865.06845696643
1712041299942,6620.565947521012
1712041299982,8214.617746148258
1712041300022,9275.55551761412
1712041300062,10759.67462328286
1712041300102,12133.122202046681
1712041300142,13082.896565326024
1712041300182,14046.574866133742
1712041300222,15626.870658159023
1712041300262,15388.304851440247
1712041300302,14386.785966839176
1712041300342,14393.354890068993
1712041300382,15108.54909025738
1712041300422,15272.17458682484
1712041300462,14475.459649210563
1712041300502,14890.453672140138
1712041300542,14982.441456016153
1712041300582,14765.823571228655
1712041300622,15328.420529431198
1712041300662,16224.794863616116
1712041300702,17542.751024101395
1712041300742,18225.896645928733
1712041300782,18726.457163907122
1712041300822,19789.13204779569
1712041300862,19950.072448471095
1712041300902,19404.057247794466
1712041300942,16896.138273868477
1712041300982,15696.514344708994
1712041301022,15146.906916045118
1712041301062,15124.863721102942
1712041301102,15262.488698159577
1712041301142,15507.462901862804
1712041301182,14821.242202123161
1712041301222,14109.646152545232
1712041301262,13124.570972924354
1712041301302,13229.599918993656
1712041301342,13829.219510195777
1712041301382,14000.274181155022
1712041301422,14659.213353815023
1712041301462,16141.424532372272
1712041301502,17329.38241976453
1712041301542,18201.324641296407
1712041301582,17249.091999723576
1712041301622,15048.207242991775
1712041301662,14132.438907464966
1712041301702,13517.944697848754
1712041301742,13548.089731061598
1712041301782,13684.657070633024
1712041301822,13234.589623242151
1712041301862,12331.756329400465
1712041301902,11668.89291737671
1712041301942,12105.087730444968
1712041301982,12123.008895633277
1712041302022,12524.609028483042
1712041302062,12845.15449899016
1712041302102,13626.679729110328
1712041302142,14606.34011983429
1712041302182,14317.268544015475
1712041302222,12269.220903885085
1712041302262,9938.634666449623
1712041302302,8543.205688135698
1712041302342,7419.579871746246
1712041302382,7272.351039781701
1712041302422,6947.419201941229
1712041302462,7116.579784489702
1712041302502,7636.1309875804
1712041302542,8176.401148755802
1712041302582,8088.961743823718
1712041302622,8698.940905541182
1712041302662,10057.544283924624
1712041302702,10597.152398467995
1712041302742,11280.29946845118
1712041302782,12546.796935016755
1712041302822,12758.646227977704
1712041302862,10536.13748078351
1712041302902,8653.572544668801
1712041302942,7396.501045645913
1712041302982,6782.93637669133
1712041303022,6256.297995367087
1712041303062,6220.434103240259
1712041303102,6417.9713999389205
1712041303194,6013.819142884342
1712041303234,6058.475569787435
1712041303274,6090.4560674270615
1712041303314,6119.203519309405
1712041303355,6443.887216232019
1712041303394,7233.773177147843
1712041303435,7853.138579431921
1712041303475,8328.000561011955
1712041303515,8788.906578600407
1712041303556,7221.546562875155
1712041303595,5360.112196542323
1712041303635,3982.898430763511
1712041303675,3245.701634758385
1712041303715,2811.885598390596
1712041303756,1554.9977562515996
1712041303796,559.5763629823923
1712041303836,-2210.986616877606
1712041303876,-5921.404303422198
1712041303916,-7646.482056407025
1712041303957,-9047.359805251472
1712041303996,-8421.14237880893
1712041304036,-5637.349196381401
1712041304076,-2953.9745931639336
1712041304116,-1059.2616265935358
1712041304157,-605.8392365353648
1712041304197,-3570.0351049518213
1712041304237,-8057.537143833004
1712041304277,-11423.258685576031
1712041304317,-14875.136625250103
1712041304358,-17053.25375135569
1712041304397,-18477.523119799327
1712041304438,-19017.14315902209
1712041304478,-18153.162217016332
1712041304518,-16764.955408944283
1712041304559,-13993.018543281127
1712041304598,-11049.417521233903
1712041304638,-7908.399297373369
1712041304678,-4916.115144128213
1712041304718,-2190.0363155866507
1712041304759,-146.1554247860331
1712041304799,-614.1846438744105
1712041304839,-3498.9836728177033
1712041304879,-6508.61695267586
1712041304919,-7988.002790869679
1712041304960,-8223.940105196321
1712041304999,-8493.147458383814
1712041305039,-8780.203031301964
1712041305080,-9824.092336001806
1712041305120,-10105.8385972213
1712041305161,-9345.193004436092
1712041305200,-8486.436873395229
1712041305240,-7934.3010098410305
1712041305280,-7657.335028246045
1712041305320,-7596.371579895727
1712041305361,-7132.357580885757
1712041305401,-7848.0111518667545
1712041305441,-10385.752915272955
1712041305481,-12341.079173482722
1712041305521,-13271.93934385269
1712041305562,-14968.174783211667
1712041305601,-16071.53638706822
1712041305642,-16314.6546205692
1712041305682,-17268.71888618986
1712041305722,-18434.56238172576
1712041305763,-19483.664352877066
1712041305802,-19529.590170335025
1712041305842,-20078.422896814067
1712041305883,-20512.38238563086
1712041305923,-20621.814865302527
1712041305964,-20565.39765970502
1712041306003,-22225.810062990524
1712041306043,-24864.57699079602
1712041306083,-28020.08776374068
1712041306125,-28878.299298513215
1712041306164,-27838.086293750443
1712041306204,-24726.54674777179
1712041306244,-21062.35568539356
1712041306284,-18194.299226884264
1712041306324,-15682.817162716296
1712041306365,-13754.14338542521
1712041306405,-11756.423149978044
1712041306445,-10364.790633876575
1712041306485,-8333.512370441342
1712041306525,-6523.425820050295
1712041306566,-4094.1793159754016
1712041306606,-2448.1299603336956
1712041306645,-3740.51097918069
1712041306686,-6157.85625928035
1712041306726,-7157.187738430686
1712041306767,-7136.534131958615
1712041306806,-6739.33793066931
1712041306847,-6199.793898290023
1712041306887,-5861.891978643835
1712041306927,-5886.566637792857
1712041306968,-5669.250662418548
1712041307007,-4779.210376370465
1712041307047,-3632.6679550656117
1712041307088,-2718.6099398746155
1712041307128,-1593.9178105457686
1712041307169,-200.85955111705698
1712041307208,1030.101848510094
1712041307248,457.91833535791375
1712041307288,-2995.899139670888
1712041307328,-3901.1010062717833
1712041307369,-3807.3479939145036
1712041307409,-4242.094742674846
1712041307449,-4190.239504200872
1712041307489,-4119.3491319827735
1712041307529,-4267.9607924623415
1712041307570,-3521.8079806363676
1712041307609,-2613.89552903967
1712041307649,-1620.7842976441607
1712041307689,-296.40202243137173
1712041307729,1131.3327121762559
1712041307770,2180.6935118557885
1712041307810,3013.8594442729373
1712041307850,1587.3453156512696
1712041307890,-1445.8297297749668
1712041307930,-4192.979420128977
1712041307971,-4552.360165483784
1712041308010,-3843.158476430457
1712041308050,-3086.0105534945615
1712041308090,-4727.582482328638
1712041308131,-2520.958992091939
1712041308171,638.6932288417593
1712041308211,6033.721772235818
1712041308251,10849.148204158293
1712041308291,16826.072072933195
1712041308331,20301.66954160435
1712041308372,25350.916414172854
1712041308412,30064.296009063255
1712041308452,32077.96470807353
1712041308492,32128.77201438183
1712041308532,30608.753838574514
1712041308573,28828.538815047126
1712041308612,30506.92694532778
1712041308652,35226.82814909308
1712041308692,59018.92059851019
1712041308733,60991.66559639084
1712041308774,62579.57309785392
1712041308813,63110.70104325772
1712041308853,63698.95070490381
1712041308893,55067.79015967692
1712041308933,49222.33497069613
1712041308974,57662.36790167517
1712041309014,58070.33528883569
1712041309054,64227.920991464285
1712041309094,64313.388079351746
1712041309135,67594.9838870794
1712041309175,66853.63357144664
1712041309214,66605.42135471338
1712041309254,63958.38120148098
1712041309294,59839.48183830455
1712041309334,57008.3010220048
1712041309375,54115.102165200515
1712041309415,50543.98330717534
1712041309455,49679.98348517087
1712041309495,48928.27128679631
1712041309535,47911.72986220149
1712041309576,45394.58595490968
1712041309615,46877.85394407995
1712041309655,45428.59371793666
1712041309695,44125.11886188551
1712041309736,43459.54450706253
1712041309776,40101.306510315044
1712041309816,36386.41108659515
1712041309856,33374.13566390658
1712041309896,29802.03033578489
1712041309936,26645.189255362377
1712041309977,4854.474505883874
1712041310017,4854.700238455087
1712041310057,4259.635910892393
1712041310097,2355.6966267311946
1712041310137,611.4232419421896
1712041310178,6994.878260838799
1712041310217,10247.185426811688
1712041310257,7543.370994755998
1712041310298,10173.413889723364
1712041310338,9840.128988293
1712041310378,13425.10854364466
1712041310418,6705.990734756924
1712041310458,6560.391805407591
1712041310498,6538.876456512138
1712041310538,7341.323055263143
1712041310579,6782.126391183585
1712041310619,6683.545920209028
1712041310659,7751.773829058744
1712041310699,9977.776195822284
1712041310739,12180.88680236414
1712041310780,14520.893788366579
1712041310819,17566.78985845996
1712041310859,19411.709954310674
1712041310900,19653.741578582674
1712041310940,20572.647491838783
1712041310981,20824.78006554302
1712041311020,19326.63096080022
1712041311060,17593.630086692516
1712041311100,15571.690546123777
1712041311140,14798.249588239007
1712041311181,14097.016749904491
1712041311221,14168.581553793978
1712041311261,12704.987131931353
1712041311301,10763.146954335272
1712041311341,10485.237238666043
1712041311382,11254.601783623919
1712041311422,11645.321615687571
1712041311462,12097.489743268117
1712041311502,12426.002720490564
1712041311542,14093.989846134093
1712041311583,14939.078610914294
1712041311622,16241.333527405746
1712041311663,14888.81303965114
1712041311703,12643.902436612174
1712041311743,11314.96676758118
1712041311784,10338.944338188972
1712041311823,10723.155983312987
1712041311863,12198.965018308721
1712041311904,11681.338208009489
1712041311944,10794.0842087036
1712041311984,10348.780192207545
1712041312024,10600.331365346909
1712041312064,10161.915021646768
1712041312104,10438.362253020983
1712041312146,10665.232809872366
1712041312185,12146.468257544097
1712041312225,12948.40066955518
1712041312265,11878.318586486392
1712041312305,9253.947516344022
1712041312345,6854.378304786049
1712041312386,6106.706867899746
1712041312426,5097.002944907639
1712041312466,4181.966191896237
1712041312506,3941.347786954604
1712041312546,4042.49578825105
1712041312587,3849.025414617732
1712041312627,3867.9777177562937
1712041312666,3488.187192359008
1712041312707,4428.708405077457
1712041312747,3993.0095843905583
1712041312788,4106.785061840899
1712041312827,5213.035216811113
1712041312867,6569.29691831395
1712041312907,5934.417658600025
1712041312947,3172.330095237121
1712041312988,1362.1224894630723
1712041313027,-801.6743905511685
1712041313068,-2048.948069711216
1712041313108,-2835.993690781761
1712041313148,-3639.805141962599
1712041313189,-4312.5371264712885
1712041313228,-4124.812986977398
1712041313268,-4099.260087998584
1712041313308,-4802.607510049827
1712041313349,-3985.789399424568
1712041313389,-3215.2426217272878
1712041313429,-1900.9947039992549
1712041313469,-789.6775163146667
1712041313509,-770.6908990414813
1712041313549,-1857.7718703281134
1712041313590,-5207.940998870414
1712041313629,-7623.561027447693
1712041313669,-9836.855435492937
1712041313709,-11991.218526519835
1712041313749,-12538.384465157054
1712041313790,-12582.88992634369
1712041313830,-12850.365565216634
1712041313870,-13256.514751886949
1712041313910,-12974.539912690409
1712041313950,-11675.904901395552
1712041313991,-11028.400793244597
1712041314030,-10272.28700653091
1712041314070,-8917.975505562034
1712041314110,-10446.693285567686
1712041314150,-13786.458802516107
1712041314191,-34258.16965785809
1712041314231,-82679.71557610156
1712041314271,-104948.52614704799
1712041314311,-107227.35517012328
1712041314351,-83809.74057207583
1712041314392,-60806.7866854202
1712041314431,-43804.62822573306
1712041314471,-25303.66324172914
1712041314511,-13002.529386378359
1712041314552,-3899.14036064595
1712041314592,4081.9318976979703
1712041314632,12898.770360364113
1712041314672,11436.371100278106
1712041314712,5698.4732646094635
1712041314752,1366.8356201839633
1712041314793,-3085.746360921301
1712041314832,-4001.054743047338
1712041314873,-6122.400221698917
1712041314913,-9793.539941146038
1712041314953,-13642.806437042542
1712041314994,-16255.233888836578
1712041315034,-17504.527742038015
1712041315074,-19589.156159057282
1712041315114,-21549.937264987268
1712041315156,-22849.12734023761
1712041315195,-20450.737727133557
1712041315234,-20923.469508033246
1712041315273,-20228.892195001245
1712041315312,-19118.652325925417
1712041315351,-16118.032589520793
1712041315390,-11655.560921592638
1712041315429,-6689.766119437292
1712041315468,13694.552424241323
1712041315507,60715.23851731722
1712041315546,74771.99125309382
1712041315585,82989.5242085997
1712041315624,77930.28010298079
1712041315663,75174.79913908662
1712041315702,69092.45526451943
1712041315741,63195.29838226992
1712041315780,64579.411902316846
1712041315820,67741.41550230468
1712041315860,72350.27215103991
1712041315900,71146.40707494644
1712041315940,73367.86678481102
1712041315980,80820.48112837784
1712041316020,87587.94877770077
1712041316060,93136.57884515356
1712041316100,91521.05326756276
1712041316140,84063.58446709253
1712041316180,80142.76413930673
1712041316220,74745.9703299785
1712041316260,68430.4775884198
1712041316300,67296.67682078015
1712041316340,63386.93405293487
1712041316380,53934.229321278166
1712041316420,55587.10262202099
1712041316460,49485.228818032425
1712041316500,48565.94669217244
1712041316540,51216.11977184657
1712041316580,56987.40313382773
1712041316620,58289.07479933137
1712041316660,57556.796329895034
1712041316700,54985.622337127104
1712041316740,49975.20631487388
1712041316780,43270.751980964094
1712041316820,48327.61624939786
1712041316860,45826.07542139711
1712041316900,44070.66855495656
1712041316940,41429.834070503246
1712041316980,38737.99113168102
1712041317020,35209.91017421335
1712041317060,37013.168320143595
1712041317100,38289.90711805038
1712041317140,29705.601002113428
1712041317180,43913.24994821567
1712041317220,39714.928961992264
1712041317260,42515.355461837724
1712041317300,30474.853099961765
1712041317340,30527.19402817916
1712041317380,31536.472374310717
1712041317420,49622.15931827575
1712041317460,41449.97690234939
1712041317500,47972.025224675424
1712041317540,55469.537438001484
1712041317580,57722.37973431591
1712041317620,58102.028255623765
1712041317660,62831.19276844617
1712041317700,61394.75037599821
1712041317740,59912.55765183456
1712041317780,55369.1302922545
1712041317820,52288.24423800083
1712041317860,49972.79732971452
1712041317900,39539.055538570974
1712041317940,43670.88790807268
1712041317980,52503.18202254828
1712041318020,59380.280735543
1712041318060,67915.4496231121
1712041318100,75879.01574990107
1712041318140,63676.97165025864
1712041318180,45615.24959607003
1712041318220,31948.412640700582
1712041318260,17547.488977998495
1712041318300,16796.25759540405
1712041318340,9960.291521175765
1712041318380,15629.130823034793
1712041318420,40363.26479006652
1712041318460,15626.438222579658
1712041318500,31366.101737194695
1712041318540,20931.648239068687
1712041318580,33382.66455264855
1712041318620,37282.02118729008
1712041318660,33414.81219330104
1712041318700,23899.54195769271
1712041318740,41362.75650183717
1712041318780,33302.57061481057
1712041318820,10418.726395288482
1712041318860,4120.7593686515465
1712041318900,4877.281846892554
1712041318940,8896.020826484542
1712041318980,8532.247171720956
1712041319020,9793.729165695608
1712041319060,12185.789600415621
1712041319100,12467.226598651148
1712041319140,-32400.364496030845
1712041319180,-26534.926384435967
1712041319220,-2786.1448383238167
1712041319260,-4797.327959869057
1712041319300,-4510.68781786412
1712041319340,-23691.11090798024
1712041319380,-41386.95210073423
1712041319420,-32831.5520797777
1712041319460,-14004.832870099228
1712041319500,-6350.568059504032
1712041319540,11897.834441521205
1712041319580,18743.038223505486
1712041319620,22579.225001328625
1712041319660,14232.638294939883
1712041319700,-9247.492303487845
1712041319740,296.1153954528272
1712041319780,-6086.342782652937
1712041319820,16679.978591504507
1712041319860,6934.6817237967625
1712041319900,8916.181690965313
1712041319940,13508.432286867406
1712041319980,10091.61578075122
1712041320020,-3168.710111699067
1712041320060,-6566.273235392757
1712041320100,-1885.8578039044514
1712041320140,-5170.035391840618
1712041320180,-8199.929482470267
1712041320220,-10716.234443719499
1712041320260,-8526.2271590163
1712041320300,-16570.351944346912
1712041320340,-12796.372676478699
1712041320380,-12014.806476350408
1712041320420,29480.265204491094
1712041320460,20175.07259645546
1712041320500,2845.7047611810267
1712041320540,15909.831356464885
1712041320580,15597.536371589638
1712041320620,29874.948972063605
1712041320660,38625.40738588013
1712041320700,38512.437050468754
1712041320740,35168.83484540414
1712041320780,40775.99998201989
1712041320820,45277.242319317535
1712041320860,39740.697452009656
1712041320900,37677.40034574829
1712041320940,45688.15177873522
1712041320980,57154.91742575541
1712041321020,59126.95202235924
1712041321060,58845.40270737186
1712041321100,56917.79318689834
1712041321140,67447.75034208084
1712041321180,54562.624328520615
1712041321220,57785.19844444422
1712041321260,57105.39136961335
1712041321300,52428.06507537421
1712041321340,49081.81218278408
1712041321380,45265.418247113936
1712041321420,33322.98307782039
1712041321460,35182.08624166157
1712041321500,34429.95853988454
1712041321540,20746.877828422002
1712041321580,23828.911215154454
1712041321620,15636.917301757261
1712041321660,5845.768041009083
1712041321700,-6212.0147329689935
1712041321740,7872.494507917203
1712041321780,5722.216837675311
1712041321820,-4231.441231360659
1712041321860,4304.879562843591
1712041321900,11290.560646467842
1712041321940,15546.51584294904
1712041321980,15221.927030386869
1712041322020,10955.594080259092
1712041322060,1107.0444907364435
1712041322100,-604.2788264271803
1712041322140,22973.165556105785
1712041322180,44689.385429935064
1712041322220,33322.51547953952
1712041322260,22084.150625111535
1712041322300,18209.45789103955
1712041322340,14382.772634773515
1712041322380,14142.871844635345
1712041322420,15563.050842232537
1712041322460,26419.849093408324
1712041322500,21989.60639713332
1712041322540,12933.91395909898
1712041322580,12959.550811848603
1712041322620,15603.218863517512
1712041322660,874.8696865933016
1712041322700,9635.733093373012
1712041322740,5491.192473435309
1712041322780,7731.611254186835
1712041322820,13730.391796777956
1712041322860,17858.528218564577
1712041322900,21107.894925984554
1712041322940,24421.492675737944
1712041322980,30980.222356833052
1712041323020,26156.978540163953
1712041323060,21969.84637388587
1712041323100,33122.74808953749
1712041323140,26670.89750380302
1712041323180,17997.51532104425
1712041323220,11500.176311797462
1712041323260,17050.350558525883
1712041323300,22227.48671788629
1712041323340,24727.44676735904
1712041323380,21025.258271947503
1712041323420,-635.8106651296839
1712041323460,-18427.946365128737
1712041323500,-6469.3786966903135
1712041323540,-1468.6503787282854
1712041323580,10025.729524490424
1712041323620,15454.391026319005
1712041323660,5494.072148310486
1712041323700,452.1593294069171
1712041323740,-12912.541058201343
1712041323780,-19686.947907252237
1712041323820,-23083.054153944366
1712041323860,-27371.429355396423
1712041323900,-33305.82599737216
1712041323940,-19874.537685235962
1712041323980,-26541.813705943525
1712041324020,-35060.62783070374
1712041324060,-34587.537896279246
1712041324100,-35452.631120366976
1712041324140,-39371.042194162495
1712041324180,-28145.316711478867
1712041324220,-31069.355762160383
1712041324260,-54183.89342654124
1712041324300,-64961.78937772615
1712041324340,-65054.453400927596
1712041324380,-77926.02464405261
1712041324420,-79055.71060454426
1712041324460,-64647.15099108266
1712041324500,-62987.612467488274
1712041324540,-65997.85763292667
1712041324580,-65836.3145088572
1712041324620,-64613.71995635796
1712041324660,-58109.23654516321
1712041324700,-51709.27916620718
1712041324740,-52512.2813683413
1712041324780,-66046.2073216429
1712041324820,-58473.784262938425
1712041324860,-55841.98817502987
1712041324900,-58541.947283464484
1712041324940,-66909.09992353804
1712041324980,-83446.01735588536
1712041325020,-84169.58284609765
1712041325060,-82231.97092777072
1712041325100,-68800.14165814128
1712041325140,-70126.85361925978
1712041325180,-70892.02538834792
1712041325220,-79070.56842406932
1712041325260,-92855.93488819106
1712041325300,-90406.7656350946
1712041325340,-97602.12594499718
1712041325380,-94144.41227392014
1712041325420,-93656.026474379
1712041325460,-110902.57623481844
1712041325500,-116871.64336190093
1712041325540,-99958.95464686211
1712041325580,-94029.79630540172
1712041325620,-104046.79255434405
1712041325660,-99153.20927919727
1712041325700,-99293.87040891172
1712041325740,-99666.84415341029
1712041325780,-79901.00914614368
1712041325820,-59104.46400055848
1712041325860,-53175.174790670164
1712041325900,-42832.77233764343
1712041325940,-44551.88692292571
1712041325980,-25489.402085473295
1712041326020,-9159.57718720939
1712041326060,17533.869223197922
1712041326100,16003.148983863182
1712041326140,14853.524411562365
1712041326180,15776.732079168782
1712041326220,13702.063871733844
1712041326260,23233.510852160398
1712041326300,26357.360100752674
1712041326340,29159.338910359424
1712041326380,26728.457669095602
1712041326420,25447.09273579158
1712041326460,30917.15437331423
1712041326500,22427.13586964272
1712041326540,27561.696212474257
1712041326580,28628.67977303546
1712041326620,14709.4546612259
1712041326660,-2989.1548162079416
1712041326700,-15618.691754798405
1712041326740,-10291.54186253436
1712041326780,-9808.855219900608
1712041326820,-6576.7315364181995
1712041326860,-17159.03514532
1712041326900,-18972.198025661055
1712041326940,-18907.584600648843
1712041326980,-15752.334908301942
1712041327020,-22399.945587921888
1712041327060,-36622.08875111025
1712041327100,-53914.13530704472
1712041327140,-51894.50856670039
1712041327180,-56141.58885222487
1712041327217,-49957.22847626265
1712041327258,-64458.541102119256
1712041327297,-63835.03956248239
1712041327338,-69868.59417700302
1712041327379,-63765.17156788241
1712041327418,-55921.78109764494
1712041327458,-52454.50846128352
1712041327498,-32659.912967240904
1712041327538,-22947.095125936903
1712041327579,-21158.916957877576
1712041327619,-22146.932652851567
1712041327659,-19117.951987510547
1712041327699,-20187.389333231375
1712041327739,-25250.55897494871
1712041327780,-16384.9859015299
1712041327819,-12705.233151501045
1712041327859,-11620.092048512772
1712041327899,1948.4286285853013
1712041327939,-32723.935177349485
1712041327981,-37272.50538773881
1712041328020,-40399.77487173164
1712041328060,-69709.41209843708
1712041328100,-77814.64805454295
1712041328140,-79770.22847344493
1712041328181,-76915.01038700249
1712041328220,-74245.54194117244
1712041328260,-75631.23608301347
1712041328301,-76684.17316986062
1712041328341,-75568.89786136756
1712041328382,-76248.93054678757
1712041328421,-83172.12154048774
1712041328461,-80595.66166814137
1712041328501,-79114.00277690962
1712041328541,-72932.24369536154
1712041328583,-70973.3126820894
1712041328622,-70265.7381899287
1712041328662,-80101.49828732293
1712041328702,-87812.15855879709
1712041328742,-86812.18843929749
1712041328783,-91943.84822189854
1712041328822,-93478.04165670322
1712041328862,-93583.14873815421
1712041328903,-94334.84809351806
1712041328943,-94871.40331496904
1712041328984,-84473.0302137034
1712041329023,-79869.28176935017
1712041329063,-76891.66086494923
1712041329103,-76888.47769915592
1712041329143,-76904.27744461223
1712041329185,-74204.93374381587
1712041329224,-34699.10113211931
1712041329264,-28326.389358906774
1712041329304,-38012.24442983139
1712041329344,-18671.38083259086
1712041329385,-21519.961889857426
1712041329424,-21498.073091445258
1712041329464,-21660.92628285382
1712041329505,-21067.25064790249
1712041329545,-21929.354475005064
1712041329586,-22607.701407122193
1712041329625,-23810.983137648087
1712041329665,-24208.676872982178
1712041329705,-23022.93134549074
1712041329745,-22987.517655222444
1712041329787,-22387.679809675086
1712041329826,-22819.514298916794
1712041329866,-24926.138359265635
1712041329906,-30326.347442056052
1712041329946,-34328.943263568915
1712041329987,-37122.856778467074
1712041330026,-38824.329842739506
1712041330066,-38744.54931863444
1712041330107,-39264.35258508567
1712041330148,-38803.723815284204
1712041330188,-39491.75543927215
1712041330227,-39830.61192712048
1712041330267,-38644.640641219914
1712041330307,-36868.19302333961
1712041330347,-35697.51571340859
1712041330389,-33277.20652513462
1712041330428,-30571.090822920203
1712041330468,-31459.405551127158
1712041330508,-34899.53194074705
1712041330548,-37689.342221276835
1712041330589,-39069.30441656709
1712041330629,-39214.407272311626
1712041330669,-38249.17723339447
1712041330709,-37504.00105001521
1712041330749,-36589.20181216113
1712041330790,-35719.348060068674
1712041330829,-34947.927927644225
1712041330869,-32878.845058684936
1712041330909,-30880.385694817873
1712041330949,-27512.608881421387
1712041330991,-25060.43751618825
1712041331030,-24315.585888310336
1712041331070,-26734.526751430705
1712041331110,-29187.13672294072
1712041331150,-31045.92518405756
1712041331191,-31378.468346549198
1712041331230,-29904.02274077153
1712041331270,-28485.68134368048
1712041331310,-26991.968636377715
1712041331350,-25862.42568214261
1712041331391,-24538.87426495133
1712041331431,-22765.550675429637
1712041331471,-20743.812245454174
1712041331511,-17732.013977477094
1712041331551,-14614.801565370057
1712041331592,-12049.93481083028
1712041331631,-9307.91855573398
1712041331671,-9774.372983945534
1712041331711,-13046.419917567633
1712041331751,-14775.31775118853
1712041331792,-15293.419100752566
1712041331832,-14398.546658590669
1712041331872,-13074.902303490788
1712041331912,-11501.227191509912
1712041331952,-10658.361261928221
1712041331993,-9363.74978657579
1712041332032,-7902.211602639873
1712041332072,-6245.8381316950545
1712041332112,-3208.395615650341
1712041332152,-749.1409092349932
1712041332194,1861.2836142368615
1712041332233,4123.387079701293
1712041332273,6444.239808314946
1712041332313,5139.116079738596
1712041332353,2502.149005208863
1712041332394,974.5896472043823
1712041332433,804.7701459056698
1712041332473,1347.1381880417466
1712041332513,2580.8111566191074
1712041332554,3791.3303397162817
1712041332594,4678.261663227342
1712041332634,5476.755873010727
1712041332674,6904.584960260196
1712041332714,8078.889750691131
1712041332754,10284.68251136737
1712041332795,12151.658820237033
1712041332834,13910.037944831653
1712041332874,15315.008790089982
1712041332915,15637.721594637726
1712041332955,13119.266171258409
1712041332995,11209.30158291664
1712041333035,9990.329113835935
1712041333075,10047.308697768953
1712041333115,10276.132468822878
1712041333157,11186.823088690173
1712041333196,11356.473534360528
1712041333236,11218.182271858677
1712041333276,11448.573513891082
1712041333316,11792.744734132197
1712041333356,12245.621826905292
1712041333397,12978.394190251362
1712041333436,14267.664081633557
1712041333476,15465.16581184999
1712041333517,16003.506835514912
1712041333557,13744.91086442559
1712041333598,10254.750551443547
1712041333637,7881.749574134359
1712041333677,6829.553712460911
1712041333717,6940.2832910344005
1712041333757,7127.769641161198
1712041333798,7146.028151736595
1712041333838,6882.571828274056
1712041333878,6864.266918744659
1712041333918,7216.206033296417
1712041333958,7772.121762743453
1712041333999,8771.570364841959
1712041334038,9716.727418318857
1712041334078,10547.646767253056
1712041334119,11358.465153373778
1712041334159,11385.092307122191
1712041334199,8149.477343068924
1712041334239,5246.250175854191
1712041334279,3059.5577590120956
1712041334319,2058.61439484288
1712041334359,1844.45087487204
1712041334400,1927.9979758230038
1712041334440,1236.1128731821664
1712041334480,375.0302805805113
1712041334520,124.05135665182024
1712041334560,548.493562925607
1712041334601,1160.6127125411294
1712041334640,2115.9323099940084
1712041334680,2914.885888985358
1712041334721,4235.518336489098
1712041334761,5608.2005221520085
1712041334801,4039.0103501658887
1712041334841,634.939920367673
1712041334881,-1503.3121690487023
1712041334921,-2733.7036925277207
1712041334962,-2830.374367887154
1712041335002,-2491.784138700692
1712041335042,-1731.7325129522942
1712041335082,-1559.2608277336694
1712041335122,-1719.1037248205394
1712041335162,-1712.1011605104432
1712041335203,-1504.9104062223341
1712041335242,-619.4607158319559
1712041335282,788.940639430657
1712041335323,1695.7835002562497
1712041335363,3177.1792924222536
1712041335403,4057.131352343131
1712041335443,2060.788122674683
1712041335483,-1396.3392950769048
1712041335523,-3732.77341120434
1712041335563,-4798.006379450206
1712041335604,-4589.485106262146
1712041335643,-3881.0451603550464
1712041335683,-3280.1916486546397
1712041335723,-3119.4297117854003
1712041335763,-3156.795409770217
1712041335804,-2696.7303524944
1712041335843,-1645.9252940372098
1712041335883,-342.92063441779464
1712041335923,1203.7142867278308
1712041335963,2694.9000756128225
1712041336004,4477.9032306778245
1712041336044,3915.2905120295472
1712041336083,1401.1151609742083
1712041336124,-1246.963608742226
1712041336165,-2992.0257034115493
1712041336204,-3032.9077773415484
1712041336244,-2700.56418105145
1712041336284,-2247.519152855035
1712041336324,-2477.2626371507067
1712041336364,-2731.913652626332
1712041336405,-2717.127566409763
1712041336444,-2276.9375300316606
1712041336484,-937.013624029234
1712041336524,-285.23102342523634
1712041336564,475.22872928809375
1712041336605,1332.8537605213933
1712041336644,373.8383578658104
1712041336684,-2892.749945987016
1712041336724,-5999.958186704433
1712041336765,-7646.517562683206
1712041336805,-8642.589983941521
1712041336845,-8007.520420943387
1712041336885,-8614.958377161296
1712041336925,-9411.823912218679
1712041336965,-10190.848971092142
1712041337006,-9839.574105252512
1712041337045,-9133.357212648727
1712041337085,-8135.7640229191165
1712041337125,-7324.777794093359
1712041337165,-6544.150944667868
1712041337206,-5592.872611490544
1712041337245,-7216.1895700562745
1712041337285,-12034.742830419913
1712041337325,-15513.550654270686
1712041337365,-17761.179287888343
1712041337406,-18596.93282998074
1712041337446,-17820.77070860425
1712041337486,-17316.035155333346
1712041337526,-17609.367561135907
1712041337566,-17467.27928583231
1712041337607,-17808.246864417335
1712041337646,-17555.626755133737
1712041337687,-15979.867175210034
1712041337727,-14427.722815686837
1712041337767,-12963.734144404298
1712041337808,-11293.886417559814
1712041337847,-12022.897401129594
1712041337887,-15792.18362592347
1712041337927,-18938.26410760265
1712041337967,-21085.438708536094
1712041338008,-21624.936641132226
1712041338047,-21484.573915068293
1712041338088,-20246.230134548154
1712041338128,-20378.53466916061
1712041338168,-19850.24972672155
1712041338209,-18804.333648175932
1712041338248,-17208.475914020557
1712041338288,-15678.494127759011
1712041338328,-13448.024597364943
1712041338368,-11380.916926620062
1712041338409,-9377.855375737417
1712041338449,-8504.95746864099
1712041338489,-11205.024395291228
1712041338529,-14062.31876729941
1712041338569,-15260.125602577114
1712041338610,-15930.136442328105
1712041338649,-15386.797903640661
1712041338689,-13934.407817141153
1712041338729,-13493.320681614568
1712041338770,-13015.706085382262
1712041338810,-12347.01407465851
1712041338850,-11379.000771870371
1712041338890,-9268.18261297536
1712041338930,-7047.91558853793
1712041338970,-5285.966204705415
1712041339011,-3516.4559707841836
1712041339050,-1255.5924492324702
1712041339090,5.351090674987063
1712041339130,-2384.6429548531305
1712041339172,-5644.93872832926
1712041339211,-6566.635446366854
1712041339251,-6828.454695323482
1712041339291,-6225.937312811147
1712041339331,-3784.4153851475567
1712041339371,-3169.8035117285326
1712041339412,-2436.764035038417
1712041339451,-1129.922133795917
1712041339491,-80.86267107236199
1712041339532,1269.183376002591
1712041339572,2666.019137564115
1712041339612,4255.470171441324
1712041339652,5703.094932212029
1712041339692,7526.380509445444
1712041339732,7729.17305334378
1712041339772,4492.0312870899215
1712041339813,1662.7228067182004
1712041339852,196.20713303424418
1712041339893,73.9581008143723
1712041339933,773.6821986120194
1712041339973,1341.7731603374705
1712041340014,1124.829359962605
1712041340053,1002.5837446125224
1712041340093,1845.3953340831213
1712041340133,2963.4959194858093
1712041340173,3783.110128137283
1712041340214,4964.451982855331
1712041340254,6624.9495661892
1712041340294,8395.536021606298
1712041340334,9515.593627311755
1712041340374,7647.388519905973
1712041340415,4758.198879478034
1712041340454,3128.359907295555
1712041340494,2417.134981732117
1712041340534,2334.360107472865
1712041340575,3722.252839717781
1712041340615,3629.965386930853
1712041340655,3490.757589808898
1712041340695,4154.533013120526
1712041340735,4726.414211688098
1712041340775,5856.999271778157
1712041340816,7208.358950193971
1712041340856,8779.281555274036
1712041340896,9993.470100723673
1712041340936,11109.655200636946
1712041340976,11578.430107221007
1712041341017,9494.194169621216
1712041341056,6876.944436364807
1712041341096,5856.363079662435
1712041341136,5475.489267019322
1712041341176,5757.832769094501
1712041341217,6367.354496298358
1712041341257,6256.491839080583
1712041341297,6852.44676691317
1712041341337,7085.724613360129
1712041341377,7566.346680547111
1712041341418,8530.697167032398
1712041341457,9096.363526579458
1712041341497,10351.98381890729
1712041341537,11684.557518593501
1712041341578,13057.512148098554
1712041341619,13662.77979537053
1712041341658,11630.754799326882
1712041341698,8804.013411191292
1712041341738,7069.876302045304
1712041341778,6374.024219359737
1712041341819,6472.998043130618
1712041341858,6268.139188071247
1712041341899,7144.416135791689
1712041341939,7899.684328895528
1712041341979,8352.579228632152
1712041342020,9804.062221605098
1712041342059,11818.258150891867
1712041342099,14228.753432427999
1712041342139,16111.38747672271
1712041342181,19416.593746931758
1712041342220,24557.24031571648
1712041342260,29786.03898689337
1712041342300,32295.371113008354
1712041342340,32746.469519843813
1712041342380,37139.60402695136
1712041342421,40310.840151960496
1712041342461,43943.32295670593
1712041342501,46464.56937620882
1712041342541,47071.52299457416
1712041342581,43345.950647827005
1712041342622,34645.262479598634
1712041342661,27165.135494417045
1712041342701,18789.00620662654
1712041342742,8978.911171748303
1712041342782,2061.9030131464824
1712041342822,-601.1268968652003
1712041342862,1982.0350238436367
1712041342902,5535.321045800811
1712041342942,6364.198901147349
1712041342982,6725.653662738856
1712041343023,8180.284520138986
1712041343063,10911.233568984084
1712041343103,13994.537382740993
1712041343143,17790.826793322805
1712041343183,20465.226533312118
1712041343224,22325.045034525916
1712041343263,24768.59653044073
1712041343303,27395.862625784706
1712041343343,31722.227346095722
1712041343384,33529.423441481544
1712041343424,35038.66536254925
1712041343464,36496.99344812846
1712041343504,38184.78796607605
1712041343544,36466.24098284822
1712041343584,34108.997456409736
1712041343625,32131.47104677651
1712041343664,31201.228365213145
1712041343705,32118.374555877177
1712041343745,33087.56385004171
1712041343785,35208.67067900859
1712041343826,36735.79202078469
1712041343865,37235.19264180306
1712041343905,39086.30544463964
1712041343946,39766.684776769485
1712041343986,39796.525059916545
1712041344027,40694.6380018238
1712041344066,37605.972895161016
1712041344106,32958.88664502464
1712041344146,27207.177142535802
1712041344186,21595.17990202969
1712041344227,14756.55740372627
1712041344266,15371.833407360828
1712041344306,15848.235444414895
1712041344347,15270.95709857205
1712041344387,13998.161322135944
1712041344427,12393.60753021203
1712041344467,11175.327710800339
1712041344507,12104.345609387849
1712041344547,14222.359167901799
1712041344587,15274.223026850726
1712041344628,14279.346665763529
1712041344667,14033.71966451034
1712041344707,12008.201059956104
1712041344747,4651.561916847248
1712041344788,-6053.3293721191585
1712041344829,-16480.63873040164
1712041344868,-24798.089999024058
1712041344908,-29886.69622533
1712041344948,-33688.19337260956
1712041344988,-37589.42782488931
1712041345029,-40384.09478614549
1712041345068,-43091.66072478588
1712041345108,-44424.970033099875
1712041345148,-45558.32001818204
1712041345190,-46371.32429564744
1712041345229,-46430.23303539911
1712041345269,-45684.103141923435
1712041345309,-45563.55533323111
1712041345349,-48807.31870561652
1712041345389,-53738.883260268485
1712041345430,-56901.575150038814
1712041345469,-57192.558451296296
1712041345509,-53201.196752314456
1712041345550,-52943.58194049564
1712041345589,-53388.142170055304
1712041345630,-53637.9231974273
1712041345670,-53392.67200975446
1712041345710,-52648.90029252088
1712041345750,-51486.513234780636
1712041345790,-50083.73486904474
1712041345831,-49188.48928859597
1712041345870,-47557.72989622736
1712041345910,-44963.61656375555
1712041345950,-45504.15660965373
1712041345990,-48670.99488705234
1712041346031,-51852.878005026374
1712041346071,-52348.37843200541
1712041346111,-52246.15866918443
1712041346151,-50960.97100763302
1712041346191,-48739.75810621772
1712041346232,-47603.48320486769
1712041346271,-47151.599022210576
1712041346311,-45709.45541127748
1712041346351,-43591.98397584865
1712041346392,-41903.929382077884
1712041346432,-38639.793832869735
1712041346472,-35287.20071880985
1712041346512,-32520.944992972072
1712041346552,-34144.71482217591
1712041346592,-37039.344527001726
1712041346633,-38013.4486465645
1712041346672,-38082.95696175471
1712041346712,-36835.74279479263
1712041346753,-34801.78520579683
1712041346793,-33025.79162071366
1712041346833,-32507.37706739409
1712041346873,-30923.04901918024
1712041346913,-28829.720150762005
1712041346953,-26534.244036168326
1712041346993,-23990.89248204138
1712041347034,-20672.788483686745
1712041347073,-17889.933038175106
1712041347113,-15985.19622629974
1712041347153,-17826.107207071967
1712041347193,-19971.044313986553
1712041347234,-20456.720672199503
1712041347274,-19429.40839433251
1712041347314,-17238.11260961299
1712041347354,-14942.99916588422
1712041347397,-13513.529174521565
1712041347435,-12567.534978547366
1712041347474,-10958.2327525937
1712041347514,-8899.239452166483
1712041347555,-6022.478597283596
1712041347595,-3933.1649000947364
1712041347636,-1495.890920472797
1712041347675,1056.2124352131505
1712041347715,1763.391901705414
1712041347755,-577.8257153104059
1712041347795,-2518.044935221318
1712041347836,-2298.558335261885
1712041347876,-1369.630230507115
1712041347916,74.6625323179178
1712041347956,1593.0590062127449
1712041347996,2385.890536794439
1712041348037,3280.109484371962
1712041348076,4683.414992570411
1712041348116,5949.363588018343
1712041348156,7955.447685930412
1712041348198,9362.289742271416
1712041348237,11181.065173665527
1712041348277,12973.505469845142
1712041348317,12478.032818292268
1712041348357,10209.720300353365
1712041348397,8434.855271027656
1712041348438,7912.461847191211
1712041348477,8777.12371254107
1712041348518,9891.74920954695
1712041348558,10081.166105998214
1712041348598,10412.538888685638
1712041348639,10491.022866355255
1712041348678,10894.46660399437
1712041348718,11836.336432859069
1712041348758,13101.159028528258
1712041348799,14136.450525259599
1712041348839,15452.733885621652
1712041348879,16260.17476577824
1712041348919,14953.307359387167
1712041348959,12776.326775831636
1712041348999,11134.172952033114
1712041349040,10549.46946340939
1712041349079,11255.30126203061
1712041349120,11790.196979212807
1712041349160,12266.856892874464
1712041349200,12531.825820337981
1712041349241,12886.67242854461
1712041349280,13214.019017351093
1712041349320,13817.633041770663
1712041349360,14753.99432702153
1712041349401,16048.427765642991
1712041349441,17333.332567519275
1712041349481,18432.56451436458
1712041349521,16487.2762809908
1712041349561,14160.43846988026
1712041349604,12796.442194791045
1712041349642,12169.152276975568
1712041349682,12352.911577471532
1712041349722,13135.52609265619
1712041349762,12922.565295869485
1712041349802,13281.334371019155
1712041349843,13593.554704876151
1712041349882,14187.585728241596
1712041349922,14808.05442020297
1712041349963,16412.858411557972
1712041350003,17411.922711159103
1712041350044,18405.83267390309
1712041350083,18960.791739267996
1712041350123,17665.24441678915
1712041350163,15426.948322017211
1712041350203,13031.363443600945
1712041350244,11824.056165503804
1712041350284,11838.426358157303
1712041350324,12172.38022646308
1712041350364,12512.2207557722
1712041350404,13191.905053114984
1712041350445,13031.401725459378
1712041350484,13336.23882973753
1712041350524,13848.689930174965
1712041350565,14519.097167473286
1712041350605,15185.388690428808
1712041350645,15731.358578948537
1712041350685,16860.388443206903
1712041350725,16960.830436130986
1712041350765,15133.12371304119
1712041350805,12885.063333347905
1712041350846,11797.88563915249
1712041350885,11535.994171362603
1712041350925,11539.400874306448
1712041350966,11595.407363002654
1712041351006,12067.130817547673
1712041351046,12150.78719205549
1712041351086,12945.180269944714
1712041351126,13642.258030471392
1712041351166,14907.910746762296
1712041351208,15609.075107045006
1712041351247,16085.389989270829
1712041351287,16351.99331653514
1712041351328,17127.37260931614
1712041351367,16578.640326634282
1712041351408,14427.901699054055
1712041351448,12223.292257403256
1712041351488,11260.661952574505
1712041351528,11076.503402667586
1712041351568,11445.611320469063
1712041351608,11794.766094471328
1712041351649,11143.558729164302
1712041351688,10647.40383074293
1712041351728,10371.879332077457
1712041351768,10152.411257263739
1712041351809,10305.936034707585
1712041351849,10648.528957212344
1712041351889,11225.433044474572
1712041351929,11523.98158640787
1712041351969,10841.562368915416
1712041352009,8261.370931083104
1712041352050,5812.585404182319
1712041352089,4430.800701844273
1712041352129,3126.617522576591
1712041352169,3087.43804638274
1712041352209,3380.0203280956484
1712041352250,2554.630269922316
1712041352290,1788.4829869642854
1712041352330,1162.150631104596
1712041352370,689.4062716918997
1712041352410,1238.984112404054
1712041352451,2292.540461943019
1712041352490,3592.219232494477
1712041352530,3880.4802463771775
1712041352570,3049.731740474701
1712041352610,-84.12580874655396
1712041352651,-425.12078615184873
1712041352691,829.7079902344849
1712041352731,3118.3680942812935
1712041352771,6021.509212246863
1712041352811,8166.249931036262
1712041352852,9302.906054505147
1712041352891,9150.067272477783
1712041352931,9034.210539374268
1712041352971,9198.97187655652
1712041353012,9612.642217759509
1712041353052,10409.796354202554
1712041353092,11152.997102052905
1712041353132,11382.117048560642
1712041353172,9388.259470822755
1712041353212,6216.962632732466
1712041353253,3279.389169199392
1712041353292,1665.2549193787854
1712041353332,1607.7389354398474
1712041353372,2648.3430821779184
1712041353413,3469.8076143066864
1712041353453,4327.001050646184
1712041353493,4285.789336675545
1712041353533,5445.6532649665605
1712041353573,5672.7015593238175
1712041353613,4925.909713453148
1712041353654,3564.2251224583015
1712041353693,3602.2189033967443
1712041353733,3606.375005555572
1712041353774,1062.3516528340988
1712041353814,-2702.254179405514
1712041353855,-5737.451698670629
1712041353894,-6980.882069148123
1712041353934,-7854.868028252851
1712041353974,-8158.103273067623
1712041354014,-8300.830626689596
1712041354055,-9327.03775248956
1712041354095,-9577.449397836812
1712041354135,-9647.858062677551
1712041354175,-8629.07670261804
1712041354216,-7434.5855916882865
1712041354256,-6364.344326145481
1712041354295,-5342.699331677053
1712041354335,-4325.349713454954
1712041354375,-3897.2721369247884
1712041354416,-5593.739143821644
1712041354456,-8422.736171586439
1712041354496,-10365.264039269648
1712041354536,-10817.572151059052
1712041354576,-10668.1965599393
1712041354616,-9582.469844131265
1712041354657,-8979.7008369877
1712041354697,-8386.28023073962
1712041354736,-7547.088795017917
1712041354777,-6168.635922451038
1712041354817,-4485.720341242151
1712041354858,-2566.513107530074
1712041354897,-590.6770733590238
1712041354937,1233.5750037727412
1712041354977,3181.2300823752303
1712041355017,1700.4261611369438
1712041355058,1610.3313355443534
1712041355098,-3080.787093758583
1712041355138,-10196.829285729676
1712041355178,-13301.963245238643
1712041355218,-14754.42439225223
1712041355259,-12647.070855870377
1712041355298,-8514.199695763644
1712041355338,-3381.3557511107065
1712041355379,1099.141027353704
1712041355419,4768.12958840467
1712041355460,7288.913366107037
1712041355499,10402.999935101252
1712041355539,12754.47548750299
1712041355579,14641.26939956029
1712041355619,16706.674285109155
1712041355660,18010.758020591456
1712041355700,17215.641045813914
1712041355740,15598.361709593795
1712041355780,15499.827407178003
1712041355820,16292.950454532867
1712041355861,17160.65401610313
1712041355900,18246.66347814584
1712041355940,18786.742986779893
1712041355980,19008.683222909458
1712041356021,19505.11144171469
1712041356061,20372.631231804844
1712041356101,20891.16957734106
1712041356141,21547.170523435576
1712041356181,22579.981732502813
1712041356221,24279.19330348214
1712041356262,24489.893312262837
1712041356302,26810.76150184078
1712041356342,23628.39496052405
1712041356382,22712.02748752851
1712041356422,22550.57805963559
1712041356463,21529.730516165262
1712041356502,22241.481872075005
1712041356542,22295.170678408816
1712041356582,22368.780492766295
1712041356623,22863.450416504405
1712041356663,23079.506675055716
1712041356703,23465.875906865112
1712041356743,23933.111258867662
1712041356783,24119.104131792206
1712041356823,25586.603068346856
1712041356864,26364.76795090409
1712041356904,24736.26252594986
1712041356944,23410.895582261495
1712041356984,22708.691627648193
1712041357024,22343.199665906606
1712041357065,22311.117206610274
1712041357104,22282.857202389976
1712041357144,22652.259701868054
1712041357184,22734.22931518755
1712041357226,22188.245747824665
1712041357265,22002.622280598618
1712041357305,20704.513345143292
1712041357345,20610.327994677005
1712041357385,20813.733672943898
1712041357425,21217.45741836331
1712041357466,21336.879042014014
1712041357505,19664.081377634313
1712041357545,16682.25833994802
1712041357585,14417.88729429408
1712041357625,13107.93964550132
1712041357666,12162.112918264
1712041357706,11863.623655715492
1712041357746,12312.763113060733
1712041357786,11859.849561459385
1712041357826,11318.84982072562
1712041357867,11091.967956970446
1712041357906,11121.591739191208
1712041357946,11860.04018979054
1712041357986,11933.022132203914
1712041358026,12676.076627613744
1712041358067,13690.252791889478
1712041358107,13628.611876495183
1712041358147,12853.386244283058
1712041358187,9964.399355435744
1712041358227,7093.503269104287
1712041358268,5667.794780076947
1712041358307,4667.839641120518
1712041358347,4929.20565634314
1712041358387,5159.420359138632
1712041358428,4987.223510611337
1712041358468,5104.331172805047
1712041358508,6661.894549969118
1712041358548,7803.6124418503605
1712041358588,9278.68169333646
1712041358628,9415.331846469315
1712041358669,9534.868957601953
1712041358708,9338.044079596875
1712041358748,9843.155899535399
1712041358789,10014.956322330516
1712041358829,8766.70860639168
1712041358869,7422.618605907541
1712041358909,6873.760340008419
1712041358949,6663.432415875373
1712041358989,7879.983516174369
1712041359029,8137.0077942956705
1712041359070,9283.262487582164
1712041359109,10439.146692879964
1712041359150,11559.885813501198
1712041359190,13671.801010889467
1712041359230,16248.571357644629
1712041359271,19805.152449916815
1712041359310,22437.789312828332
1712041359350,24396.426447122125
1712041359390,25932.245018637506
1712041359430,26898.421019570436
1712041359471,26000.80907056341
1712041359511,24803.996110132895
1712041359551,23435.485573482467
1712041359591,23207.93112121802
1712041359631,22700.80446454836
1712041359672,22592.67384325713
1712041359711,23036.70030616829
1712041359751,22926.580947549082
1712041359791,22340.591398967197
1712041359832,21603.036256536376
1712041359873,22271.859626889694
1712041359912,23282.727061438374
1712041359952,23205.456942468416
1712041359992,24019.555311142933
1712041360032,25337.35558333341
1712041360073,25493.18116252171
1712041360113,24112.33582972549
1712041360153,20494.4117701496
1712041360193,17192.058058692608
1712041360234,16229.791271660943
1712041360274,14232.661339317914
1712041360313,13664.99309574836
1712041360353,13050.314096387941
1712041360393,12912.000422219746
1712041360434,13607.525947133545
1712041360475,13292.01832959149
1712041360514,13633.153008628171
1712041360554,12785.266806546133
1712041360594,12444.704173553735
1712041360634,12552.517823469592
1712041360675,12490.679752072552
1712041360715,12205.009091384476
1712041360755,12372.65521824453
1712041360795,9177.973016940523
1712041360835,5905.152928981464
1712041360876,4664.106642632745
1712041360915,4272.232861908851
1712041360955,5063.742271505762
1712041360995,5316.546909648459
1712041361036,4590.09604621632
1712041361077,3579.2302257318515
1712041361116,3291.8100130374078
1712041361156,1399.7313729338348
1712041361196,-551.8852613070048
1712041361236,-143.51409696042538
1712041361277,384.8847219417803
1712041361317,58.659654318355024
1712041361357,829.7734917842317
1712041361397,-568.2281059306115
1712041361437,-3554.6681561903097
1712041361478,-5376.762171249837
1712041361517,-7410.37929512281
1712041361558,-7501.540680593811
1712041361598,-7351.161852813559
1712041361638,-6773.625406060368
1712041361679,-6714.932491053827
1712041361718,-7180.13353126822
1712041361758,-7833.261600690428
1712041361798,-7375.611586763756
1712041361839,-6748.958032655064
1712041361879,-6179.54155416647
1712041361919,-5132.159117631614
1712041361959,-4456.124265855644
1712041361999,-5514.142888968578
1712041362039,-9099.727534025442
1712041362080,-11767.926038116217
1712041362120,-12543.134169245139
1712041362160,-13468.132181547582
1712041362200,-12837.948259211378
1712041362240,-13931.285820781253
1712041362281,-15214.918879935984
1712041362320,-14718.981166082434
1712041362360,-14609.009321096586
1712041362401,-14096.678037552163
1712041362441,-12993.91269955784
1712041362482,-11322.9916132309
1712041362521,-10846.234273911454
1712041362561,-10055.983422766207
1712041362601,-9245.455763041507
1712041362642,-11897.051008916227
1712041362682,-14029.024114230648
1712041362722,-15072.551565966103
1712041362762,-15858.822781861294
1712041362802,-15437.282534090802
1712041362842,-14939.43862945633
1712041362883,-14832.858351497445
1712041362922,-14913.62618147186
1712041362962,-14954.523446359904
1712041363003,-14624.669952582568
1712041363043,-13635.887223296799
1712041363083,-13091.524835353484
1712041363123,-11929.434543976793
1712041363163,-10294.477467495017
1712041363203,-9187.288541486487
1712041363245,-8823.15073664533
1712041363284,-11280.686682244297
1712041363322,-13343.350633391412
1712041363363,-13456.49237716943
1712041363403,-13868.376912426436
1712041363443,-12424.18174705375
1712041363484,-12347.560431913007
1712041363523,-11843.232423394918
1712041363563,-11512.200838278979
1712041363603,-11883.761764380848
1712041363643,-11826.90550612146
1712041363684,-11161.832672016928
1712041363724,-9755.291586021427
1712041363764,-9264.931262990227
1712041363804,-8364.906782309292
1712041363844,-7892.19762183493
1712041363885,-10627.802936513443
1712041363924,-12907.884610225912
1712041363964,-14220.17016278999
1712041364004,-15243.806434850208
1712041364044,-14040.78767372109
1712041364085,-13996.555319250096
1712041364125,-13643.299869818846
1712041364165,-13581.523958908394
1712041364205,-13736.711009989027
1712041364245,-12975.283384669805
1712041364286,-11964.746423312463
1712041364325,-10171.65270227613
1712041364365,-8724.124172539217
1712041364405,-7734.894818355795
1712041364446,-8039.137377337785
1712041364486,-10020.865822754102
1712041364526,-12549.673892979976
1712041364566,-14350.837215666194
1712041364606,-14880.714386218227
1712041364646,-15064.499446575996
1712041364687,-14222.931323471945
1712041364726,-14094.994138997747
1712041364766,-13962.193549585063
1712041364806,-13679.559984726366
1712041364846,-12975.633362439927
1712041364887,-12432.716752951965
1712041364927,-10583.898269017227
1712041364967,-8676.781180722406
1712041365007,-7397.87084343005
1712041365047,-7005.281443025451
1712041365088,-8934.60232520895
1712041365127,-11178.877201088239
1712041365168,-12502.890066256747
1712041365208,-12757.39326333953
1712041365248,-12485.319008301478
1712041365289,-11291.252267750446
1712041365328,-11299.54499452142
1712041365368,-10644.175960883033
1712041365408,-9744.092924213968
1712041365448,-9143.522306081839
1712041365489,-7774.700505608227
1712041365529,-6447.142143994104
1712041365569,-5158.820145082194
1712041365609,-3881.4648748287
1712041365649,-2549.486766432412
1712041365690,-2577.256209309213
1712041365729,-4674.2764313486405
1712041365769,-6128.727270082105
1712041365809,-6495.777215211187
1712041365850,-6015.459809534252
1712041365891,-5194.60689264629
1712041365930,-4083.8346404149197
1712041365970,-3440.787243250292
1712041366010,-3503.8780771035235
1712041366050,-2691.911061555147
1712041366091,-1703.147378048161
1712041366131,-271.2742891537491
1712041366171,1342.1372366680298
1712041366211,2980.4080338936765
1712041366253,4045.429199044127
1712041366292,4813.916013413109
1712041366331,4454.743748577312
1712041366372,2988.376996944193
1712041366412,1784.1581067154184
1712041366452,1672.1889669862576
1712041366493,2253.663615524536
1712041366532,3223.8792816870846
1712041366572,4062.8986380933784
1712041366612,4597.000692106318
1712041366653,4898.609151461627
1712041366693,5284.702333319699
1712041366733,6374.351651913021
1712041366773,7348.316461301176
1712041366813,8776.840205612127
1712041366853,9542.717662595678
1712041366894,10717.371095880866
1712041366933,10645.682110503083
1712041366974,8959.866421372397
1712041367014,7032.962560066255
1712041367054,5842.937730380101
1712041367095,5612.6211570422165
1712041367134,5762.047963461839
1712041367174,6267.857140155975
1712041367215,5929.9597787803505
1712041367255,5148.322781412397
1712041367295,6084.448484282475
1712041367335,6113.672772869701
1712041367375,7724.62798722554
1712041367415,8408.676471741172
1712041367455,8772.547140141018
1712041367496,9997.152366424678
1712041367536,10978.121358288918
1712041367576,11248.484346628655
1712041367616,10323.119259294821
1712041367656,10839.386827000184
1712041367697,11801.256184917875
1712041367736,13473.490951548796
1712041367777,14644.025808456354
1712041367817,15485.727492694976
1712041367857,16525.674071423244
1712041367898,17640.958380824886
1712041367937,18923.01909202058
1712041367977,20008.91480268468
1712041368017,20636.827223668806
1712041368058,21374.838320323965
1712041368098,22963.23408056423
1712041368138,24338.400504896417
1712041368178,24133.958123535383
1712041368218,22425.558350944193
1712041368258,21206.609693110455
1712041368299,19885.043176401407
1712041368339,19500.2861657585
1712041368379,19264.328419307014
1712041368419,19900.68332744576
1712041368459,20160.14803733304
1712041368500,20804.531453803647
1712041368540,21103.127903058194
1712041368580,21544.94953696523
1712041368620,22783.24289911543
1712041368660,25465.714924747124
1712041368701,26524.32083582296
1712041368740,27982.498542233137
1712041368780,27860.089571343036
1712041368820,27784.177488651127
1712041368860,28153.347182406345
1712041368901,29534.103650811827
1712041368941,31219.927641465794
1712041368981,33544.35089589516
1712041369021,35080.12488667178
1712041369061,37356.130670920014
1712041369102,39810.53004808002
1712041369141,41340.172375582624
1712041369181,42942.968884483445
1712041369221,43994.0842740722
1712041369263,46021.70137712639
1712041369302,47940.67143315915
1712041369342,48812.42653777404
1712041369382,48498.13162288838
1712041369422,48396.73149257898
1712041369462,45645.464506161865
1712041369503,42516.719248990994
1712041369542,40639.81026495434
1712041369582,39286.4135296857
1712041369623,35397.64121984504
1712041369663,29573.60432277387
1712041369704,21746.368278739974
1712041369743,14321.26989773009
1712041369783,7878.3696625097655
1712041369823,4292.936492261011
1712041369863,2922.3515025526285
1712041369904,4292.266594459303
1712041369944,6075.562627713196
1712041369984,7015.0069026942365
1712041370024,9355.890172366984
1712041370064,11777.227904929314
1712041370105,12563.36624603672
1712041370144,10678.17652344983
1712041370184,8890.110581702087
1712041370224,9143.69168815529
1712041370265,9434.144548962358
1712041370305,11181.522924843244
1712041370345,12443.390390871093
1712041370385,13410.623707631137
1712041370425,13320.475874744356
1712041370465,9926.14354970958
1712041370506,1282.2334801480174
1712041370545,-5412.799207512289
1712041370586,-8156.104488442652
1712041370626,-9131.164661610499
1712041370666,-10119.897974633612
1712041370707,-10798.806704906281
1712041370746,-9474.382776757237
1712041370786,-8750.186925870366
1712041370826,-10245.178171905689
1712041370866,-9738.705087803304
1712041370907,-8694.013064458966
1712041370947,-6330.24762008898
1712041370987,-3608.7601713752374
1712041371027,-1908.0900614131242
1712041371067,272.00087520247325
1712041371108,2350.225606989581
1712041371147,4078.481725137215
1712041371188,3848.3518932010047
1712041371227,2241.887846292462
1712041371268,394.00095426570624
1712041371309,-5096.640128756408
1712041371348,-10448.884376495145
1712041371388,-15009.826864534523
1712041371428,-18635.27864146512
1712041371468,-24941.952751856763
1712041371509,-33698.34869780578
1712041371549,-40190.00142160617
1712041371589,-45471.33245081734
1712041371629,-47932.15079890704
1712041371669,-49283.45885530254
1712041371710,-49609.823642609874
1712041371749,-51352.27196240402
1712041371789,-52307.89192489907
1712041371830,-53238.11787155364
1712041371870,-53122.780350451125
1712041371911,-52409.90886624716
1712041371950,-51767.8614080078
1712041371990,-49997.09694809909
1712041372030,-48377.16852751607
1712041372070,-48210.82287697657
1712041372111,-50534.23891294841
1712041372151,-55197.192796801915
1712041372191,-57741.13492151466
1712041372231,-59564.69735156349
1712041372273,-59541.32567690406
1712041372312,-58105.767875095364
1712041372351,-56981.34176534647
1712041372392,-57010.08247952303
1712041372432,-56914.608286490664
1712041372472,-55447.69614002528
1712041372513,-54272.31921780668
1712041372552,-52631.54071957711
1712041372592,-50398.6540283747
1712041372632,-49010.95268924534
1712041372673,-46995.112133162096
1712041372713,-45556.62193121831
1712041372753,-47979.40561653022
1712041372793,-51370.58073758613
1712041372833,-53560.61729853903
1712041372874,-53353.578064533416
1712041372914,-52200.037933815736
1712041372954,-50764.511737825815
1712041372994,-50020.14804218849
1712041373034,-49055.09472423326
1712041373074,-47917.52304544579
1712041373115,-45820.12092397385
1712041373155,-43739.80360882473
1712041373195,-41460.89116025041
1712041373235,-38628.39658578485
1712041373275,-36540.92528328067
1712041373316,-33922.8094603268
1712041373355,-32478.5568348933
1712041373395,-34747.373040207895
1712041373436,-37545.378491738345
1712041373476,-38273.28362123924
1712041373517,-42404.294208761305
1712041373556,-41843.50883254642
1712041373596,-40336.27056795359
1712041373636,-38933.445322109386
1712041373677,-39009.31685698405
1712041373718,-37388.24562227214
1712041373757,-35626.35478742188
1712041373797,-34086.59440007387
1712041373837,-31585.385021708906
1712041373877,-29149.65011465689
1712041373918,-26274.0671832012
1712041373958,-23462.166002840735
1712041373998,-22576.258485778235
1712041374038,-25180.596949799452
1712041374078,-27316.890567951836
1712041374119,-28697.106470029103
1712041374158,-27489.941435088404
1712041374199,-24405.49782518996
1712041374238,-20932.169516535476
1712041374279,-17238.992900791112
1712041374320,-15085.226173810195
1712041374359,-12887.855259725358
1712041374399,-10456.439361242577
1712041374439,-8065.800604884047
1712041374479,-5163.169423750136
1712041374520,-3824.2352605091874
1712041374559,-1076.6798504358158
1712041374599,-60.19988001929596
1712041374639,-153.4127197433263
1712041374680,-3356.6582145763095
1712041374720,-6294.891344920266
1712041374760,-8485.221758805215
1712041374800,-4965.393513391726
1712041374840,-4279.280665712198
1712041374880,-3674.068604066968
1712041374921,-4186.4380447031
1712041374960,-3611.161772909574
1712041375000,-4204.46999189863
1712041375040,-3944.0283453939483
1712041375080,-2355.974431326613
1712041375121,-530.3984638818074
1712041375161,836.0192513410002
1712041375201,1747.0064735347405
1712041375241,3112.7868567649275
1712041375283,3484.670404038392
1712041375322,1301.9171540886164
1712041375362,-531.8468493740074
1712041375403,-364.2951407751534
1712041375442,-648.3139493595809
1712041375483,-130.85127375717275
1712041375524,1989.0859651560895
1712041375563,3025.495831016451
1712041375603,4091.831519725267
1712041375643,6096.3633637151215
1712041375683,9041.507005216787
1712041375724,12301.793022018857
1712041375764,14674.122120810905
1712041375804,17638.036249070195
1712041375844,19939.69614392193
1712041375884,21168.319172280375
1712041375924,19345.88104713871
1712041375964,17086.005051596556
1712041376004,15125.079882133752
1712041376044,14585.782385876402
1712041376084,14406.006477416493
1712041376125,14755.067322104238
1712041376164,14133.646164176986
1712041376205,13635.138403533958
1712041376245,13028.372435975121
1712041376285,13686.712862983113
1712041376325,13769.739585249452
1712041376365,14703.666439774912
1712041376405,15991.685594722163
1712041376445,17749.03068262455
1712041376485,18727.922977956943
1712041376526,17853.95864620409
1712041376565,15072.75410174625
1712041376606,12726.260619005654
1712041376646,10922.074172835797
1712041376686,9876.927365029696
1712041376727,10016.884645855986
1712041376766,10141.188810925698
1712041376806,9490.801613746677
1712041376846,8390.653352777474
1712041376886,9108.375878890976
1712041376927,7836.342551785521
1712041376967,6837.148255765671
1712041377007,7043.83304437669
1712041377047,8755.302334102336
1712041377087,11161.538923412096
1712041377128,12045.217164194444
1712041377167,10207.47648025304
1712041377207,7977.702182119479
1712041377247,5964.303652100731
1712041377288,5175.664807089139
1712041377328,5252.829094643705
1712041377368,5735.098093045875
1712041377408,6213.781458337093
1712041377448,6542.3050315657165
1712041377488,6337.570614805445
1712041377529,7215.077304915991
1712041377569,7019.194928362267
1712041377609,7979.141750108218
1712041377649,8782.031571038533
1712041377689,9354.522131866775
1712041377730,10148.466370273847
1712041377769,8649.329919659533
1712041377809,5438.526961152442
1712041377849,3036.67542806454
1712041377889,1637.392400488723
1712041377930,511.03522469010204
1712041377970,412.4300826995168
1712041378010,738.8906763950363
1712041378050,236.49748159153387
1712041378090,1.9788131343666464
1712041378131,57.67468603583984
1712041378170,398.7593638252001
1712041378211,1368.0935029219836
