dataReceived,timestamp,ppg,status
1712041242939,1712041230893,2066173,0
1712041242939,1712041230933,2065470,0
1712041242939,1712041230973,2063556,0
1712041242939,1712041231013,2060998,0
1712041242939,1712041231055,2059453,0
1712041242939,1712041231094,2059437,0
1712041242939,1712041231134,2059147,0
1712041242939,1712041231174,2057801,0
1712041242939,1712041231214,2054247,0
1712041242939,1712041231251,2051139,0
1712041242939,1712041231291,2048850,0
1712041242939,1712041231331,2047687,0
1712041242939,1712041231371,2048500,0
1712041242939,1712041231411,2050079,0
1712041242939,1712041231452,2049314,0
1712041242939,1712041231491,2049909,0
1712041242939,1712041231531,2048808,0
1712041242939,1712041231571,2047067,0
1712041242939,1712041231611,2048369,0
1712041242939,1712041231652,2049910,0
1712041242939,1712041231692,2049007,0
1712041242939,1712041231732,2048757,0
1712041242939,1712041231772,2048115,0
1712041242939,1712041231812,2044949,0
1712041242939,1712041231853,2043171,0
1712041242939,1712041231892,2041353,0
1712041242939,1712041231932,2040096,0
1712041242939,1712041231972,2039505,0
1712041242939,1712041232015,2039568,0
1712041242939,1712041232053,2039143,0
1712041242939,1712041232093,2038267,0
1712041242939,1712041232133,2037924,0
1712041242939,1712041232173,2037893,0
1712041242939,1712041232213,2038294,0
1712041242939,1712041232254,2039905,0
1712041242939,1712041232293,2042471,0
1712041242939,1712041232333,2044893,0
1712041242939,1712041232374,2047942,0
1712041242939,1712041232414,2048398,0
1712041242939,1712041232455,2047019,0
1712041242939,1712041232494,2046418,0
1712041242939,1712041232534,2047163,0
1712041242939,1712041232574,2048724,0
1712041242939,1712041232614,2050132,0
1712041242939,1712041232655,2051062,0
1712041242939,1712041232694,2051792,0
1712041242939,1712041232735,2052757,0
1712041242939,1712041232775,2053912,0
1712041242939,1712041232816,2055174,0
1712041242939,1712041232856,2056626,0
1712041242939,1712041232895,2058336,0
1712041242939,1712041232935,2060075,0
1712041242939,1712041232976,2061389,0
1712041242939,1712041233016,2059915,0
1712041242939,1712041233057,2056907,0
1712041242939,1712041233096,2054579,0
1712041242939,1712041233136,2052873,0
1712041242939,1712041233176,2051983,0
1712041242939,1712041233216,2051538,0
1712041242939,1712041233257,2051106,0
1712041242939,1712041233297,2050317,0
1712041242939,1712041233337,2049822,0
1712041242939,1712041233377,2049359,0
1712041242939,1712041233417,2049439,0
1712041242939,1712041233458,2049510,0
1712041242939,1712041233497,2049965,0
1712041242939,1712041233537,2050466,0
1712041242939,1712041233577,2051031,0
1712041242939,1712041233617,2050376,0
1712041242939,1712041233659,2047412,0
1712041242939,1712041233698,2043891,0
1712041242939,1712041233738,2041346,0
1712041242939,1712041233778,2040182,0
1712041242939,1712041233819,2040213,0
1712041242939,1712041233859,2040441,0
1712041242939,1712041233898,2039851,0
1712041242939,1712041233939,2039293,0
1712041242939,1712041233979,2039160,0
1712041242939,1712041234019,2039451,0
1712041242939,1712041234060,2040172,0
1712041242939,1712041234099,2041113,0
1712041242939,1712041234139,2042162,0
1712041242939,1712041234179,2043002,0
1712041242939,1712041234222,2043934,0
1712041242939,1712041234261,2044396,0
1712041242939,1712041234300,2042665,0
1712041242939,1712041234340,2040677,0
1712041242939,1712041234380,2039536,0
1712041242939,1712041234420,2039451,0
1712041242939,1712041234461,2040497,0
1712041242939,1712041234500,2042511,0
1712041242939,1712041234541,2044308,0
1712041242939,1712041234581,2045235,0
1712041242939,1712041234621,2045813,0
1712041242939,1712041234662,2046698,0
1712041242939,1712041234701,2047544,0
1712041242939,1712041234741,2048888,0
1712041242939,1712041234782,2050761,0
1712041242939,1712041234823,2053011,0
1712041242939,1712041234863,2055297,0
1712041242939,1712041234902,2056110,0
1712041242939,1712041234942,2054674,0
1712041242939,1712041234982,2053091,0
1712041242939,1712041235022,2052593,0
1712041242939,1712041235063,2052645,0
1712041242939,1712041235103,2053124,0
1712041242939,1712041235143,2054055,0
1712041242939,1712041235183,2054256,0
1712041242939,1712041235223,2054290,0
1712041242939,1712041235264,2054874,0
1712041242939,1712041235303,2054910,0
1712041242939,1712041235344,2055423,0
1712041242939,1712041235384,2056528,0
1712041242939,1712041235424,2057633,0
1712041242939,1712041235465,2059144,0
1712041242939,1712041235504,2060889,0
1712041242939,1712041235544,2060054,0
1712041242939,1712041235584,2057258,0
1712041242939,1712041235625,2055307,0
1712041242939,1712041235666,2054498,0
1712041242939,1712041235705,2054802,0
1712041242939,1712041235745,2055606,0
1712041242939,1712041235785,2056619,0
1712041242939,1712041235827,2056883,0
1712041242939,1712041235867,2056878,0
1712041242939,1712041235906,2057347,0
1712041242939,1712041235946,2058370,0
1712041242939,1712041235986,2059471,0
1712041242939,1712041236026,2060552,0
1712041242939,1712041236067,2061696,0
1712041242939,1712041236107,2062329,0
1712041242939,1712041236147,2060661,0
1712041242939,1712041236187,2058098,0
1712041242939,1712041236227,2056289,0
1712041242939,1712041236268,2055349,0
1712041242939,1712041236307,2055310,0
1712041242939,1712041236348,2055419,0
1712041242939,1712041236388,2055264,0
1712041242939,1712041236428,2055167,0
1712041242939,1712041236469,2055429,0
1712041242939,1712041236508,2055955,0
1712041242939,1712041236548,2056830,0
1712041242939,1712041236589,2057925,0
1712041242939,1712041236629,2059132,0
1712041242939,1712041236670,2060308,0
1712041242939,1712041236709,2060659,0
1712041242939,1712041236749,2058661,0
1712041242939,1712041236789,2056649,0
1712041242939,1712041236831,2055181,0
1712041242939,1712041236870,2054379,0
1712041242939,1712041236910,2054104,0
1712041242939,1712041236950,2053845,0
1712041242939,1712041236990,2054318,0
1712041242939,1712041237030,2055671,0
1712041242939,1712041237071,2058002,0
1712041242939,1712041237110,2059234,0
1712041242939,1712041237150,2058341,0
1712041242939,1712041237190,2057064,0
1712041242939,1712041237230,2057137,0
1712041242939,1712041237271,2059780,0
1712041242939,1712041237311,2062109,0
1712041242939,1712041237350,2061225,0
1712041242939,1712041237391,2058903,0
1712041242939,1712041237431,2056447,0
1712041242939,1712041237472,2053440,0
1712041242939,1712041237511,2051244,0
1712041242939,1712041237551,2051705,0
1712041242939,1712041237591,2053187,0
1712041242939,1712041237631,2053929,0
1712041242939,1712041237672,2054081,0
1712041242939,1712041237711,2053944,0
1712041242939,1712041237752,2053699,0
1712041242939,1712041237792,2053641,0
1712041242939,1712041237833,2054361,0
1712041242939,1712041237873,2055290,0
1712041242939,1712041237912,2055961,0
1712041242939,1712041237952,2054263,0
1712041242939,1712041237992,2051294,0
1712041242939,1712041238032,2049366,0
1712041242939,1712041238073,2048162,0
1712041242939,1712041238113,2047268,0
1712041242939,1712041238153,2046294,0
1712041242939,1712041238193,2045022,0
1712041242939,1712041238233,2042901,0
1712041242939,1712041238274,2043052,0
1712041242939,1712041238313,2043164,0
1712041242939,1712041238353,2043944,0
1712041242939,1712041238394,2046077,0
1712041242939,1712041238434,2047800,0
1712041242939,1712041238475,2048159,0
1712041242939,1712041238514,2047543,0
1712041242939,1712041238554,2045644,0
1712041242939,1712041238594,2045815,0
1712041242939,1712041238634,2046742,0
1712041242939,1712041238675,2047515,0
1712041242939,1712041238714,2047954,0
1712041242939,1712041238754,2049614,0
1712041242939,1712041238794,2050750,0
1712041242939,1712041238836,2051292,0
1712041242939,1712041238876,2051813,0
1712041242939,1712041238915,2052742,0
1712041242939,1712041238955,2053434,0
1712041242939,1712041238995,2053671,0
1712041242939,1712041239035,2054124,0
1712041242939,1712041239076,2054045,0
1712041242939,1712041239116,2053596,0
1712041242939,1712041239156,2051559,0
1712041242939,1712041239196,2047925,0
1712041242939,1712041239236,2044869,0
1712041242939,1712041239277,2042939,0
1712041242939,1712041239316,2041608,0
1712041242939,1712041239356,2040961,0
1712041242939,1712041239396,2040952,0
1712041242939,1712041239436,2040850,0
1712041242939,1712041239478,2041047,0
1712041242939,1712041239517,2040836,0
1712041242939,1712041239557,2040796,0
1712041242939,1712041239597,2040795,0
1712041242939,1712041239637,2041168,0
1712041242939,1712041239678,2041670,0
1712041242939,1712041239717,2042341,0
1712041242939,1712041239757,2042628,0
1712041242939,1712041239798,2041401,0
1712041242939,1712041239841,2039851,0
1712041242939,1712041239879,2039511,0
1712041242939,1712041239918,2038969,0
1712041242939,1712041239958,2037659,0
1712041242939,1712041239998,2035773,0
1712041242939,1712041240038,2034026,0
1712041242939,1712041240080,2033396,0
1712041242939,1712041240119,2033523,0
1712041242939,1712041240159,2034083,0
1712041242939,1712041240199,2035409,0
1712041242939,1712041240239,2037034,0
1712041242939,1712041240280,2038833,0
1712041242939,1712041240320,2040517,0
1712041242939,1712041240360,2042675,0
1712041242939,1712041240400,2045423,0
1712041242939,1712041240440,2046797,0
1712041242939,1712041240481,2046417,0
1712041242939,1712041240520,2045117,0
1712041242939,1712041240560,2044318,0
1712041242939,1712041240600,2043441,0
1712041242939,1712041240641,2043985,0
1712041242939,1712041240682,2047019,0
1712041242939,1712041240721,2052364,0
1712041242939,1712041240761,2058141,0
1712041242939,1712041240801,2058277,0
1712041242939,1712041240841,2055833,0
1712041242939,1712041240882,2056553,0
1712041242939,1712041240922,2056920,0
1712041242939,1712041240962,2057139,0
1712041242939,1712041241002,2058061,0
1712041242939,1712041241042,2059083,0
1712041242939,1712041241083,2059572,0
1712041242939,1712041241122,2057668,0
1712041242939,1712041241163,2055077,0
1712041242939,1712041241203,2053440,0
1712041242939,1712041241243,2052101,0
1712041242939,1712041241284,2051553,0
1712041242939,1712041241323,2051552,0
1712041242939,1712041241363,2051296,0
1712041242939,1712041241404,2050921,0
1712041242939,1712041241444,2050838,0
1712041242939,1712041241485,2050980,0
1712041242939,1712041241524,2051286,0
1712041242939,1712041241564,2052110,0
1712041242939,1712041241604,2053204,0
1712041242939,1712041241645,2058002,0
1712041242939,1712041241686,2063126,0
1712041242939,1712041241725,2060590,0
1712041242939,1712041241765,2059580,0
1712041242939,1712041241805,2057084,0
1712041242939,1712041241845,2054692,0
1712041242939,1712041241886,2053703,0
1712041242939,1712041241925,2052965,0
1712041242939,1712041241966,2052754,0
1712041242939,1712041242006,2052852,0
1712041242939,1712041242046,2052731,0
1712041242939,1712041242087,2052399,0
1712041242939,1712041242126,2052736,0
1712041242939,1712041242166,2053191,0
1712041242939,1712041242207,2054133,0
1712041242939,1712041242247,2055486,0
1712041242939,1712041242288,2056616,0
1712041242939,1712041242327,2057783,0
1712041242939,1712041242367,2059396,0
1712041242939,1712041242407,2063691,0
1712041242939,1712041242448,2064426,0
1712041242939,1712041242489,2061413,0
1712041242939,1712041242528,2059150,0
1712041242939,1712041242568,2057630,0
1712041242939,1712041242608,2056929,0
1712041242939,1712041242648,2056654,0
1712041242939,1712041242689,2056205,0
1712041242939,1712041242729,2055954,0
1712041242939,1712041242768,2056280,0
1712041242939,1712041242809,2056649,0
1712041242939,1712041242850,2057565,0
1712041242939,1712041242890,2058495,0
1712041254999,1712041242932,2059666,0
1712041254999,1712041242972,2060608,0
1712041254999,1712041243012,2061661,0
1712041254999,1712041243052,2062558,0
1712041254999,1712041243094,2061348,0
1712041254999,1712041243132,2059131,0
1712041254999,1712041243173,2057743,0
1712041254999,1712041243213,2056971,0
1712041254999,1712041243253,2056354,0
1712041254999,1712041243294,2056768,0
1712041254999,1712041243333,2056764,0
1712041254999,1712041243373,2056709,0
1712041254999,1712041243413,2056741,0
1712041254999,1712041243454,2057216,0
1712041254999,1712041243494,2057876,0
1712041254999,1712041243534,2058847,0
1712041254999,1712041243574,2060234,0
1712041254999,1712041243614,2061641,0
1712041254999,1712041243654,2063047,0
1712041254999,1712041243695,2064671,0
1712041254999,1712041243734,2066425,0
1712041254999,1712041243774,2066336,0
1712041254999,1712041243814,2064387,0
1712041254999,1712041243854,2062958,0
1712041254999,1712041243896,2062339,0
1712041254999,1712041243935,2062000,0
1712041254999,1712041243975,2062265,0
1712041254999,1712041244015,2062679,0
1712041254999,1712041244055,2062871,0
1712041254999,1712041244096,2063021,0
1712041254999,1712041244135,2062885,0
1712041254999,1712041244175,2063197,0
1712041254999,1712041244215,2063989,0
1712041254999,1712041244256,2065187,0
1712041254999,1712041244297,2067266,0
1712041254999,1712041244336,2069869,0
1712041254999,1712041244376,2072066,0
1712041254999,1712041244416,2073603,0
1712041254999,1712041244456,2072586,0
1712041254999,1712041244497,2070215,0
1712041254999,1712041244536,2068874,0
1712041254999,1712041244576,2067834,0
1712041254999,1712041244616,2068037,0
1712041254999,1712041244657,2068695,0
1712041254999,1712041244698,2069448,0
1712041254999,1712041244737,2070820,0
1712041254999,1712041244777,2072797,0
1712041254999,1712041244817,2074589,0
1712041254999,1712041244857,2075001,0
1712041254999,1712041244898,2074860,0
1712041254999,1712041244938,2074606,0
1712041254999,1712041244978,2074598,0
1712041254999,1712041245018,2075375,0
1712041254999,1712041245058,2076904,0
1712041254999,1712041245099,2078413,0
1712041254999,1712041245138,2078491,0
1712041254999,1712041245178,2077322,0
1712041254999,1712041245218,2076872,0
1712041254999,1712041245259,2076122,0
1712041254999,1712041245300,2075549,0
1712041254999,1712041245339,2075225,0
1712041254999,1712041245379,2074975,0
1712041254999,1712041245419,2075003,0
1712041254999,1712041245459,2075242,0
1712041254999,1712041245501,2076149,0
1712041254999,1712041245540,2077590,0
1712041254999,1712041245580,2078907,0
1712041254999,1712041245620,2079941,0
1712041254999,1712041245660,2081039,0
1712041254999,1712041245701,2081969,0
1712041254999,1712041245740,2083288,0
1712041254999,1712041245780,2084310,0
1712041254999,1712041245820,2083610,0
1712041254999,1712041245862,2081921,0
1712041254999,1712041245902,2080490,0
1712041254999,1712041245941,2080015,0
1712041254999,1712041245981,2080179,0
1712041254999,1712041246021,2080653,0
1712041254999,1712041246061,2081222,0
1712041254999,1712041246103,2081426,0
1712041254999,1712041246142,2081811,0
1712041254999,1712041246182,2082196,0
1712041254999,1712041246222,2082851,0
1712041254999,1712041246262,2083677,0
1712041254999,1712041246303,2084979,0
1712041254999,1712041246342,2086514,0
1712041254999,1712041246382,2088129,0
1712041254999,1712041246423,2089517,0
1712041254999,1712041246463,2089495,0
1712041254999,1712041246504,2087831,0
1712041254999,1712041246543,2086758,0
1712041254999,1712041246583,2086000,0
1712041254999,1712041246623,2085367,0
1712041254999,1712041246663,2085486,0
1712041254999,1712041246705,2085488,0
1712041254999,1712041246744,2085144,0
1712041254999,1712041246784,2084514,0
1712041254999,1712041246824,2084160,0
1712041254999,1712041246864,2084433,0
1712041254999,1712041246905,2085089,0
1712041254999,1712041246945,2085512,0
1712041254999,1712041246985,2085804,0
1712041254999,1712041247025,2086295,0
1712041254999,1712041247065,2087196,0
1712041254999,1712041247106,2086161,0
1712041254999,1712041247145,2084085,0
1712041254999,1712041247186,2082077,0
1712041254999,1712041247226,2080796,0
1712041254999,1712041247266,2080283,0
1712041254999,1712041247307,2080070,0
1712041254999,1712041247346,2079906,0
1712041254999,1712041247386,2079405,0
1712041254999,1712041247426,2079282,0
1712041254999,1712041247467,2079417,0
1712041254999,1712041247508,2080022,0
1712041254999,1712041247547,2080700,0
1712041254999,1712041247587,2081413,0
1712041254999,1712041247627,2082288,0
1712041254999,1712041247667,2083337,0
1712041254999,1712041247709,2083856,0
1712041254999,1712041247748,2082165,0
1712041254999,1712041247788,2079721,0
1712041254999,1712041247828,2078082,0
1712041254999,1712041247868,2077267,0
1712041254999,1712041247909,2076985,0
1712041254999,1712041247949,2077030,0
1712041254999,1712041247989,2076894,0
1712041254999,1712041248029,2076629,0
1712041254999,1712041248069,2076312,0
1712041254999,1712041248110,2076058,0
1712041254999,1712041248149,2076089,0
1712041254999,1712041248189,2076429,0
1712041254999,1712041248230,2077568,0
1712041254999,1712041248270,2078358,0
1712041254999,1712041248311,2078873,0
1712041254999,1712041248350,2078905,0
1712041254999,1712041248390,2077036,0
1712041254999,1712041248430,2073969,0
1712041254999,1712041248470,2072194,0
1712041254999,1712041248512,2071423,0
1712041254999,1712041248551,2071122,0
1712041254999,1712041248591,2071384,0
1712041254999,1712041248631,2071628,0
1712041254999,1712041248671,2071674,0
1712041254999,1712041248712,2072177,0
1712041254999,1712041248751,2072786,0
1712041254999,1712041248791,2073543,0
1712041254999,1712041248831,2074508,0
1712041254999,1712041248873,2075925,0
1712041254999,1712041248913,2077832,0
1712041254999,1712041248952,2079787,0
1712041254999,1712041248992,2081598,0
1712041254999,1712041249032,2082153,0
1712041254999,1712041249072,2080239,0
1712041254999,1712041249113,2078151,0
1712041254999,1712041249152,2076736,0
1712041254999,1712041249192,2075726,0
1712041254999,1712041249233,2075545,0
1712041254999,1712041249273,2075718,0
1712041254999,1712041249314,2075593,0
1712041254999,1712041249353,2075228,0
1712041254999,1712041249393,2075378,0
1712041254999,1712041249433,2075710,0
1712041254999,1712041249473,2076440,0
1712041254999,1712041249514,2077073,0
1712041254999,1712041249554,2077876,0
1712041254999,1712041249594,2078897,0
1712041254999,1712041249634,2079812,0
1712041254999,1712041249674,2079588,0
1712041254999,1712041249715,2077779,0
1712041254999,1712041249754,2075818,0
1712041254999,1712041249794,2074551,0
1712041254999,1712041249835,2074046,0
1712041254999,1712041249875,2074025,0
1712041254999,1712041249916,2074249,0
1712041254999,1712041249955,2074236,0
1712041254999,1712041249995,2074059,0
1712041254999,1712041250035,2074057,0
1712041254999,1712041250075,2074036,0
1712041254999,1712041250116,2074619,0
1712041254999,1712041250155,2075328,0
1712041254999,1712041250196,2075825,0
1712041254999,1712041250236,2076824,0
1712041254999,1712041250276,2077648,0
1712041254999,1712041250317,2077283,0
1712041254999,1712041250356,2075228,0
1712041254999,1712041250396,2073817,0
1712041254999,1712041250437,2072551,0
1712041254999,1712041250477,2071897,0
1712041254999,1712041250518,2071644,0
1712041254999,1712041250557,2071685,0
1712041254999,1712041250597,2071641,0
1712041254999,1712041250637,2071474,0
1712041254999,1712041250677,2071539,0
1712041254999,1712041250718,2071890,0
1712041254999,1712041250757,2072079,0
1712041254999,1712041250798,2072746,0
1712041254999,1712041250838,2073707,0
1712041254999,1712041250878,2074490,0
1712041254999,1712041250919,2074982,0
1712041254999,1712041250958,2073662,0
1712041254999,1712041250998,2071696,0
1712041254999,1712041251038,2070183,0
1712041254999,1712041251078,2069136,0
1712041254999,1712041251120,2068355,0
1712041254999,1712041251159,2067914,0
1712041254999,1712041251199,2067671,0
1712041254999,1712041251239,2067228,0
1712041254999,1712041251279,2066813,0
1712041254999,1712041251320,2066579,0
1712041254999,1712041251359,2066537,0
1712041254999,1712041251400,2067386,0
1712041254999,1712041251440,2068821,0
1712041254999,1712041251480,2070378,0
1712041254999,1712041251521,2071995,0
1712041254999,1712041251560,2074307,0
1712041254999,1712041251600,2075536,0
1712041254999,1712041251641,2078982,0
1712041254999,1712041251681,2084821,0
1712041254999,1712041251722,2089415,0
1712041254999,1712041251761,2093204,0
1712041254999,1712041251801,2094270,0
1712041254999,1712041251841,2096257,0
1712041254999,1712041251883,2098483,0
1712041254999,1712041251922,2102111,0
1712041254999,1712041251962,2105342,0
1712041254999,1712041252002,2109469,0
1712041254999,1712041252042,2113993,0
1712041254999,1712041252082,2118857,0
1712041254999,1712041252123,2124105,0
1712041254999,1712041252162,2128998,0
1712041254999,1712041252202,2133932,0
1712041254999,1712041252243,2137557,0
1712041254999,1712041252283,2139924,0
1712041254999,1712041252324,2142041,0
1712041254999,1712041252363,2144934,0
1712041254999,1712041252403,2149006,0
1712041254999,1712041252443,2153966,0
1712041254999,1712041252484,2159368,0
1712041254999,1712041252524,2164613,0
1712041254999,1712041252564,2171881,0
1712041254999,1712041252604,2178737,0
1712041254999,1712041252644,2185354,0
1712041254999,1712041252684,2188163,0
1712041254999,1712041252725,2188037,0
1712041254999,1712041252764,2186086,0
1712041254999,1712041252805,2184894,0
1712041254999,1712041252845,2182504,0
1712041254999,1712041252885,2177381,0
1712041254999,1712041252926,2175035,0
1712041254999,1712041252965,2170937,0
1712041254999,1712041253005,2166242,0
1712041254999,1712041253046,2164920,0
1712041254999,1712041253086,2165335,0
1712041254999,1712041253127,2164014,0
1712041254999,1712041253166,2162549,0
1712041254999,1712041253206,2162717,0
1712041254999,1712041253246,2165030,0
1712041254999,1712041253287,2169297,0
1712041254999,1712041253328,2173582,0
1712041254999,1712041253367,2177586,0
1712041254999,1712041253407,2182210,0
1712041254999,1712041253447,2187253,0
1712041254999,1712041253487,2193309,0
1712041254999,1712041253529,2191147,0
1712041254999,1712041253568,2191682,0
1712041254999,1712041253608,2192523,0
1712041254999,1712041253648,2194266,0
1712041254999,1712041253688,2196582,0
1712041254999,1712041253729,2198801,0
1712041254999,1712041253769,2201641,0
1712041254999,1712041253809,2204162,0
1712041254999,1712041253849,2205125,0
1712041254999,1712041253889,2206091,0
1712041254999,1712041253930,2206053,0
1712041254999,1712041253969,2206491,0
1712041254999,1712041254009,2206825,0
1712041254999,1712041254049,2207406,0
1712041254999,1712041254089,2204629,0
1712041254999,1712041254131,2195028,0
1712041254999,1712041254170,2188161,0
1712041254999,1712041254210,2187704,0
1712041254999,1712041254250,2184551,0
1712041254999,1712041254290,2184496,0
1712041254999,1712041254331,2187079,0
1712041254999,1712041254370,2190872,0
1712041254999,1712041254411,2194415,0
1712041254999,1712041254451,2198045,0
1712041254999,1712041254491,2201192,0
1712041254999,1712041254532,2205418,0
1712041254999,1712041254571,2210639,0
1712041254999,1712041254611,2214424,0
1712041254999,1712041254651,2213294,0
1712041254999,1712041254691,2214228,0
1712041254999,1712041254732,2217192,0
1712041254999,1712041254772,2218256,0
1712041254999,1712041254812,2219376,0
1712041254999,1712041254852,2219661,0
1712041254999,1712041254894,2219573,0
1712041254999,1712041254933,2219660,0
1712041267044,1712041254972,2219353,0
1712041267044,1712041255012,2218773,0
1712041267044,1712041255052,2217994,0
1712041267044,1712041255093,2217501,0
1712041267044,1712041255134,2217183,0
1712041267044,1712041255173,2216097,0
1712041267044,1712041255213,2213033,0
1712041267044,1712041255253,2205715,0
1712041267044,1712041255293,2204822,0
1712041267044,1712041255334,2208088,0
1712041267044,1712041255373,2205104,0
1712041267044,1712041255414,2209400,0
1712041267044,1712041255454,2217678,0
1712041267044,1712041255494,2225484,0
1712041267044,1712041255535,2231978,0
1712041267044,1712041255574,2238851,0
1712041267044,1712041255614,2243876,0
1712041267044,1712041255654,2242280,0
1712041267044,1712041255694,2242129,0
1712041267044,1712041255736,2241777,0
1712041267044,1712041255775,2240755,0
1712041267044,1712041255815,2241019,0
1712041267044,1712041255855,2240743,0
1712041267044,1712041255895,2238190,0
1712041267044,1712041255936,2226442,0
1712041267044,1712041255975,2220928,0
1712041267044,1712041256015,2226866,0
1712041267044,1712041256056,2223346,0
1712041267044,1712041256096,2225420,0
1712041267044,1712041256137,2231949,0
1712041267044,1712041256176,2239096,0
1712041267044,1712041256216,2244952,0
1712041267044,1712041256256,2246478,0
1712041267044,1712041256296,2238737,0
1712041267044,1712041256338,2232403,0
1712041267044,1712041256377,2226190,0
1712041267044,1712041256417,2220246,0
1712041267044,1712041256457,2215399,0
1712041267044,1712041256497,2210593,0
1712041267044,1712041256538,2205653,0
1712041267044,1712041256577,2201937,0
1712041267044,1712041256618,2202051,0
1712041267044,1712041256658,2203814,0
1712041267044,1712041256698,2203732,0
1712041267044,1712041256739,2208707,0
1712041267044,1712041256778,2214780,0
1712041267044,1712041256818,2218888,0
1712041267044,1712041256858,2223490,0
1712041267044,1712041256899,2224432,0
1712041267044,1712041256940,2217475,0
1712041267044,1712041256979,2212238,0
1712041267044,1712041257019,2208507,0
1712041267044,1712041257059,2203884,0
1712041267044,1712041257099,2199654,0
1712041267044,1712041257140,2196376,0
1712041267044,1712041257180,2189707,0
1712041267044,1712041257220,2182073,0
1712041267044,1712041257260,2181471,0
1712041267044,1712041257300,2183217,0
1712041267044,1712041257341,2181918,0
1712041267044,1712041257380,2182928,0
1712041267044,1712041257421,2187615,0
1712041267044,1712041257461,2193527,0
1712041267044,1712041257501,2198962,0
1712041267044,1712041257542,2201992,0
1712041267044,1712041257581,2199896,0
1712041267044,1712041257621,2201426,0
1712041267044,1712041257661,2201218,0
1712041267044,1712041257701,2203185,0
1712041267044,1712041257742,2205498,0
1712041267044,1712041257782,2207712,0
1712041267044,1712041257822,2209220,0
1712041267044,1712041257862,2208446,0
1712041267044,1712041257904,2200245,0
1712041267044,1712041257943,2195497,0
1712041267044,1712041257983,2192658,0
1712041267044,1712041258023,2190028,0
1712041267044,1712041258063,2192005,0
1712041267044,1712041258103,2196972,0
1712041267044,1712041258144,2203715,0
1712041267044,1712041258183,2206565,0
1712041267044,1712041258223,2200946,0
1712041267044,1712041258264,2194579,0
1712041267044,1712041258304,2193491,0
1712041267044,1712041258345,2191443,0
1712041267044,1712041258384,2190104,0
1712041267044,1712041258424,2188025,0
1712041267044,1712041258464,2185604,0
1712041267044,1712041258505,2179547,0
1712041267044,1712041258545,2169419,0
1712041267044,1712041258585,2164910,0
1712041267044,1712041258625,2160296,0
1712041267044,1712041258665,2158289,0
1712041267044,1712041258705,2159096,0
1712041267044,1712041258746,2161529,0
1712041267044,1712041258786,2166038,0
1712041267044,1712041258826,2167847,0
1712041267044,1712041258866,2161540,0
1712041267044,1712041258906,2155367,0
1712041267044,1712041258947,2152825,0
1712041267044,1712041258987,2151134,0
1712041267044,1712041259027,2149992,0
1712041267044,1712041259067,2148802,0
1712041267044,1712041259107,2148162,0
1712041267044,1712041259148,2146188,0
1712041267044,1712041259187,2140431,0
1712041267044,1712041259227,2131997,0
1712041267044,1712041259268,2125178,0
1712041267044,1712041259308,2118427,0
1712041267044,1712041259349,2116098,0
1712041267044,1712041259388,2120016,0
1712041267044,1712041259428,2125333,0
1712041267044,1712041259468,2131054,0
1712041267044,1712041259508,2131230,0
1712041267044,1712041259549,2127246,0
1712041267044,1712041259588,2127773,0
1712041267044,1712041259628,2125800,0
1712041267044,1712041259669,2126006,0
1712041267044,1712041259709,2126404,0
1712041267044,1712041259749,2125140,0
1712041267044,1712041259789,2124616,0
1712041267044,1712041259829,2124034,0
1712041267044,1712041259869,2120669,0
1712041267044,1712041259909,2114012,0
1712041267044,1712041259950,2107366,0
1712041267044,1712041259989,2101520,0
1712041267044,1712041260029,2095810,0
1712041267044,1712041260070,2090825,0
1712041267044,1712041260110,2085894,0
1712041267044,1712041260151,2080404,0
1712041267044,1712041260190,2074873,0
1712041267044,1712041260230,2069458,0
1712041267044,1712041260270,2064577,0
1712041267044,1712041260310,2060245,0
1712041267044,1712041260351,2056450,0
1712041267044,1712041260391,2052798,0
1712041267044,1712041260431,2049907,0
1712041267044,1712041260471,2046650,0
1712041267044,1712041260511,2041400,0
1712041267044,1712041260552,2033861,0
1712041267044,1712041260591,2026867,0
1712041267044,1712041260631,2020725,0
1712041267044,1712041260672,2015780,0
1712041267044,1712041260712,2011872,0
1712041267044,1712041260752,2008016,0
1712041267044,1712041260792,2004197,0
1712041267044,1712041260832,2000360,0
1712041267044,1712041260872,1997071,0
1712041267044,1712041260914,1994362,0
1712041267044,1712041260953,1992405,0
1712041267044,1712041260992,1990522,0
1712041267044,1712041261033,1988776,0
1712041267044,1712041261073,1987039,0
1712041267044,1712041261113,1984456,0
1712041267044,1712041261154,1978744,0
1712041267044,1712041261193,1972912,0
1712041267044,1712041261233,1968140,0
1712041267044,1712041261273,1964334,0
1712041267044,1712041261313,1961459,0
1712041267044,1712041261354,1958976,0
1712041267044,1712041261394,1956296,0
1712041267044,1712041261434,1953643,0
1712041267044,1712041261474,1951341,0
1712041267044,1712041261514,1949613,0
1712041267044,1712041261555,1948341,0
1712041267044,1712041261594,1947519,0
1712041267044,1712041261635,1946694,0
1712041267044,1712041261675,1946226,0
1712041267044,1712041261715,1944930,0
1712041267044,1712041261756,1940626,0
1712041267044,1712041261795,1935565,0
1712041267044,1712041261835,1931290,0
1712041267044,1712041261875,1927910,0
1712041267044,1712041261915,1925642,0
1712041267044,1712041261956,1924149,0
1712041267044,1712041261996,1922554,0
1712041267044,1712041262035,1920460,0
1712041267044,1712041262076,1918874,0
1712041267044,1712041262116,1917684,0
1712041267044,1712041262157,1916888,0
1712041267044,1712041262196,1916507,0
1712041267044,1712041262236,1916101,0
1712041267044,1712041262276,1916164,0
1712041267044,1712041262316,1916027,0
1712041267044,1712041262357,1913597,0
1712041267044,1712041262397,1909309,0
1712041267044,1712041262437,1905676,0
1712041267044,1712041262477,1902873,0
1712041267044,1712041262517,1900727,0
1712041267044,1712041262558,1899624,0
1712041267044,1712041262597,1898764,0
1712041267044,1712041262637,1897698,0
1712041267044,1712041262677,1896541,0
1712041267044,1712041262718,1895890,0
1712041267044,1712041262758,1895946,0
1712041267044,1712041262798,1896082,0
1712041267044,1712041262838,1896667,0
1712041267044,1712041262878,1897382,0
1712041267044,1712041262918,1898364,0
1712041267044,1712041262959,1898983,0
1712041267044,1712041262998,1897053,0
1712041267044,1712041263039,1893700,0
1712041267044,1712041263079,1890858,0
1712041267044,1712041263119,1888506,0
1712041267044,1712041263160,1887143,0
1712041267044,1712041263199,1886502,0
1712041267044,1712041263239,1885967,0
1712041267044,1712041263279,1885167,0
1712041267044,1712041263320,1884898,0
1712041267044,1712041263360,1884750,0
1712041267044,1712041263400,1885080,0
1712041267044,1712041263440,1885736,0
1712041267044,1712041263480,1886358,0
1712041267044,1712041263520,1887288,0
1712041267044,1712041263561,1888160,0
1712041267044,1712041263601,1888939,0
1712041267044,1712041263641,1888414,0
1712041267044,1712041263681,1885510,0
1712041267044,1712041263721,1882828,0
1712041267044,1712041263762,1880539,0
1712041267044,1712041263801,1878892,0
1712041267044,1712041263841,1878296,0
1712041267044,1712041263882,1877783,0
1712041267044,1712041263923,1877626,0
1712041267044,1712041263963,1877369,0
1712041267044,1712041264002,1877614,0
1712041267044,1712041264042,1878370,0
1712041267044,1712041264082,1879572,0
1712041267044,1712041264122,1880728,0
1712041267044,1712041264163,1881947,0
1712041267044,1712041264203,1883051,0
1712041267044,1712041264243,1884409,0
1712041267044,1712041264283,1885654,0
1712041267044,1712041264323,1884919,0
1712041267044,1712041264364,1882905,0
1712041267044,1712041264404,1881680,0
1712041267044,1712041264444,1880902,0
1712041267044,1712041264484,1880772,0
1712041267044,1712041264524,1881197,0
1712041267044,1712041264565,1881434,0
1712041267044,1712041264604,1881360,0
1712041267044,1712041264645,1881605,0
1712041267044,1712041264685,1882221,0
1712041267044,1712041264725,1883127,0
1712041267044,1712041264766,1884257,0
1712041267044,1712041264805,1885341,0
1712041267044,1712041264845,1886839,0
1712041267044,1712041264886,1888250,0
1712041267044,1712041264926,1889848,0
1712041267044,1712041264966,1890231,0
1712041267044,1712041265006,1888884,0
1712041267044,1712041265046,1887504,0
1712041267044,1712041265086,1886735,0
1712041267044,1712041265126,1886535,0
1712041267044,1712041265167,1886210,0
1712041267044,1712041265206,1885771,0
1712041267044,1712041265247,1884918,0
1712041267044,1712041265287,1884856,0
1712041267044,1712041265327,1885419,0
1712041267044,1712041265368,1886390,0
1712041267044,1712041265407,1887442,0
1712041267044,1712041265447,1888850,0
1712041267044,1712041265487,1890140,0
1712041267044,1712041265527,1891706,0
1712041267044,1712041265568,1892899,0
1712041267044,1712041265608,1891982,0
1712041267044,1712041265648,1890501,0
1712041267044,1712041265688,1889620,0
1712041267044,1712041265728,1889265,0
1712041267044,1712041265769,1889184,0
1712041267044,1712041265808,1888800,0
1712041267044,1712041265848,1887912,0
1712041267044,1712041265888,1887321,0
1712041267044,1712041265928,1887295,0
1712041267044,1712041265969,1887788,0
1712041267044,1712041266009,1888415,0
1712041267044,1712041266049,1889074,0
1712041267044,1712041266089,1890230,0
1712041267044,1712041266129,1891362,0
1712041267044,1712041266170,1892478,0
1712041267044,1712041266209,1891838,0
1712041267044,1712041266249,1889560,0
1712041267044,1712041266289,1887641,0
1712041267044,1712041266330,1886066,0
1712041267044,1712041266370,1885317,0
1712041267044,1712041266410,1885271,0
1712041267044,1712041266450,1885104,0
1712041267044,1712041266490,1884824,0
1712041267044,1712041266530,1884657,0
1712041267044,1712041266571,1884752,0
1712041267044,1712041266610,1884755,0
1712041267044,1712041266650,1885281,0
1712041267044,1712041266691,1885923,0
1712041267044,1712041266731,1886561,0
1712041267044,1712041266772,1887492,0
1712041267044,1712041266811,1887553,0
1712041267044,1712041266851,1886020,0
1712041267044,1712041266891,1883852,0
1712041267044,1712041266933,1882412,0
1712041267044,1712041266972,1881785,0
1712041279098,1712041267014,1881953,0
1712041279098,1712041267055,1882432,0
1712041279098,1712041267095,1882521,0
1712041279098,1712041267135,1882466,0
1712041279098,1712041267176,1882559,0
1712041279098,1712041267215,1882834,0
1712041279098,1712041267255,1883455,0
1712041279098,1712041267295,1884301,0
1712041279098,1712041267335,1885216,0
1712041279098,1712041267376,1886677,0
1712041279098,1712041267416,1887959,0
1712041279098,1712041267456,1888530,0
1712041279098,1712041267496,1886784,0
1712041279098,1712041267536,1884363,0
1712041279098,1712041267577,1882284,0
1712041279098,1712041267616,1880701,0
1712041279098,1712041267657,1879557,0
1712041279098,1712041267697,1879097,0
1712041279098,1712041267737,1878492,0
1712041279098,1712041267778,1877843,0
1712041279098,1712041267817,1877421,0
1712041279098,1712041267857,1877714,0
1712041279098,1712041267897,1878387,0
1712041279098,1712041267937,1879311,0
1712041279098,1712041267978,1880483,0
1712041279098,1712041268018,1881500,0
1712041279098,1712041268058,1882717,0
1712041279098,1712041268098,1883497,0
1712041279098,1712041268138,1882232,0
1712041279098,1712041268179,1879284,0
1712041279098,1712041268218,1876979,0
1712041279098,1712041268259,1875297,0
1712041279098,1712041268299,1874241,0
1712041279098,1712041268339,1874030,0
1712041279098,1712041268380,1873959,0
1712041279098,1712041268419,1873729,0
1712041279098,1712041268459,1873687,0
1712041279098,1712041268499,1873862,0
1712041279098,1712041268539,1874146,0
1712041279098,1712041268580,1875261,0
1712041279098,1712041268620,1876448,0
1712041279098,1712041268660,1877694,0
1712041279098,1712041268700,1879495,0
1712041279098,1712041268740,1880902,0
1712041279098,1712041268781,1880816,0
1712041279098,1712041268820,1879240,0
1712041279098,1712041268860,1877747,0
1712041279098,1712041268901,1876922,0
1712041279098,1712041268941,1876490,0
1712041279098,1712041268982,1876711,0
1712041279098,1712041269021,1877011,0
1712041279098,1712041269061,1876945,0
1712041279098,1712041269101,1876935,0
1712041279098,1712041269141,1877440,0
1712041279098,1712041269182,1878146,0
1712041279098,1712041269222,1879334,0
1712041279098,1712041269262,1880520,0
1712041279098,1712041269302,1881739,0
1712041279098,1712041269342,1883272,0
1712041279098,1712041269383,1884427,0
1712041279098,1712041269422,1884093,0
1712041279098,1712041269463,1882173,0
1712041279098,1712041269503,1880559,0
1712041279098,1712041269543,1879618,0
1712041279098,1712041269584,1879514,0
1712041279098,1712041269623,1879660,0
1712041279098,1712041269663,1879984,0
1712041279098,1712041269704,1879985,0
1712041279098,1712041269744,1879993,0
1712041279098,1712041269784,1880075,0
1712041279098,1712041269824,1880523,0
1712041279098,1712041269864,1881470,0
1712041279098,1712041269904,1882519,0
1712041279098,1712041269946,1883682,0
1712041279098,1712041269985,1884783,0
1712041279098,1712041270025,1885678,0
1712041279098,1712041270065,1884383,0
1712041279098,1712041270105,1882283,0
1712041279098,1712041270145,1880690,0
1712041279098,1712041270186,1879727,0
1712041279098,1712041270225,1879145,0
1712041279098,1712041270266,1879140,0
1712041279098,1712041270306,1879145,0
1712041279098,1712041270346,1879013,0
1712041279098,1712041270387,1879296,0
1712041279098,1712041270426,1879722,0
1712041279098,1712041270466,1880284,0
1712041279098,1712041270506,1881247,0
1712041279098,1712041270547,1882425,0
1712041279098,1712041270588,1883416,0
1712041279098,1712041270627,1884439,0
1712041279098,1712041270667,1884954,0
1712041279098,1712041270707,1883572,0
1712041279098,1712041270748,1881288,0
1712041279098,1712041270789,1879564,0
1712041279098,1712041270828,1878369,0
1712041279098,1712041270868,1877855,0
1712041279098,1712041270908,1877691,0
1712041279098,1712041270948,1877626,0
1712041279098,1712041270989,1877588,0
1712041279098,1712041271028,1877693,0
1712041279098,1712041271068,1878238,0
1712041279098,1712041271108,1879018,0
1712041279098,1712041271149,1880056,0
1712041279098,1712041271189,1881294,0
1712041279098,1712041271229,1882596,0
1712041279098,1712041271269,1883651,0
1712041279098,1712041271309,1884431,0
1712041279098,1712041271349,1883502,0
1712041279098,1712041271390,1881471,0
1712041279098,1712041271429,1879677,0
1712041279098,1712041271469,1878354,0
1712041279098,1712041271510,1877723,0
1712041279098,1712041271550,1877596,0
1712041279098,1712041271590,1877431,0
1712041279098,1712041271630,1877271,0
1712041279098,1712041271670,1877331,0
1712041279098,1712041271710,1877704,0
1712041279098,1712041271750,1878404,0
1712041279098,1712041271791,1879617,0
1712041279098,1712041271830,1880849,0
1712041279098,1712041271871,1882516,0
1712041279098,1712041271910,1884161,0
1712041279098,1712041271951,1885412,0
1712041279098,1712041271992,1884842,0
1712041279098,1712041272031,1882870,0
1712041279098,1712041272071,1881344,0
1712041279098,1712041272111,1880555,0
1712041279098,1712041272151,1880273,0
1712041279098,1712041272192,1880346,0
1712041279098,1712041272232,1880614,0
1712041279098,1712041272272,1880818,0
1712041279098,1712041272312,1881376,0
1712041279098,1712041272352,1882393,0
1712041279098,1712041272392,1883612,0
1712041279098,1712041272432,1885050,0
1712041279098,1712041272472,1886512,0
1712041279098,1712041272512,1888215,0
1712041279098,1712041272552,1890106,0
1712041279098,1712041272593,1892276,0
1712041279098,1712041272632,1893487,0
1712041279098,1712041272673,1892692,0
1712041279098,1712041272713,1891558,0
1712041279098,1712041272753,1891181,0
1712041279098,1712041272794,1891325,0
1712041279098,1712041272833,1892008,0
1712041279098,1712041272873,1892823,0
1712041279098,1712041272913,1893585,0
1712041279098,1712041272955,1894209,0
1712041279098,1712041272994,1895089,0
1712041279098,1712041273034,1896442,0
1712041279098,1712041273074,1898019,0
1712041279098,1712041273114,1899813,0
1712041279098,1712041273154,1901814,0
1712041279098,1712041273195,1903820,0
1712041279098,1712041273234,1905782,0
1712041279098,1712041273274,1906723,0
1712041279098,1712041273315,1905786,0
1712041279098,1712041273355,1904509,0
1712041279098,1712041273395,1903765,0
1712041279098,1712041273435,1903681,0
1712041279098,1712041273475,1904221,0
1712041279098,1712041273515,1904776,0
1712041279098,1712041273555,1905212,0
1712041279098,1712041273596,1905506,0
1712041279098,1712041273635,1906270,0
1712041279098,1712041273675,1907318,0
1712041279098,1712041273716,1908639,0
1712041279098,1712041273756,1910164,0
1712041279098,1712041273797,1912044,0
1712041279098,1712041273836,1913898,0
1712041279098,1712041273876,1915592,0
1712041279098,1712041273916,1915797,0
1712041279098,1712041273956,1913917,0
1712041279098,1712041273997,1912479,0
1712041279098,1712041274037,1911841,0
1712041279098,1712041274076,1911555,0
1712041279098,1712041274117,1912156,0
1712041279098,1712041274157,1913079,0
1712041279098,1712041274198,1913515,0
1712041279098,1712041274237,1914033,0
1712041279098,1712041274277,1914763,0
1712041279098,1712041274317,1915944,0
1712041279098,1712041274357,1917063,0
1712041279098,1712041274398,1918313,0
1712041279098,1712041274438,1919581,0
1712041279098,1712041274478,1921082,0
1712041279098,1712041274518,1921588,0
1712041279098,1712041274558,1919810,0
1712041279098,1712041274599,1917515,0
1712041279098,1712041274638,1916043,0
1712041279098,1712041274678,1914857,0
1712041279098,1712041274718,1914224,0
1712041279098,1712041274759,1913928,0
1712041279098,1712041274799,1913550,0
1712041279098,1712041274839,1913252,0
1712041279098,1712041274879,1913135,0
1712041279098,1712041274919,1913471,0
1712041279098,1712041274959,1913693,0
1712041279098,1712041275000,1914409,0
1712041279098,1712041275040,1915252,0
1712041279098,1712041275080,1915942,0
1712041279098,1712041275120,1916350,0
1712041279098,1712041275160,1914589,0
1712041279098,1712041275201,1911276,0
1712041279098,1712041275240,1908545,0
1712041279098,1712041275280,1906519,0
1712041279098,1712041275320,1904982,0
1712041279098,1712041275361,1904003,0
1712041279098,1712041275402,1903049,0
1712041279098,1712041275441,1902234,0
1712041279098,1712041275481,1901787,0
1712041279098,1712041275521,1901732,0
1712041279098,1712041275561,1901863,0
1712041279098,1712041275602,1902344,0
1712041279098,1712041275642,1902851,0
1712041279098,1712041275682,1903649,0
1712041279098,1712041275722,1904382,0
1712041279098,1712041275762,1904769,0
1712041279098,1712041275803,1902818,0
1712041279098,1712041275842,1899898,0
1712041279098,1712041275882,1897285,0
1712041279098,1712041275923,1895355,0
1712041279098,1712041275964,1893551,0
1712041279098,1712041276004,1892431,0
1712041279098,1712041276043,1891685,0
1712041279098,1712041276083,1891240,0
1712041279098,1712041276123,1890799,0
1712041279098,1712041276164,1890604,0
1712041279098,1712041276204,1890779,0
1712041279098,1712041276244,1891323,0
1712041279098,1712041276284,1892412,0
1712041279098,1712041276324,1893346,0
1712041279098,1712041276364,1894084,0
1712041279098,1712041276405,1895091,0
1712041279098,1712041276445,1894188,0
1712041279098,1712041276485,1892027,0
1712041279098,1712041276525,1890159,0
1712041279098,1712041276565,1888615,0
1712041279098,1712041276606,1887662,0
1712041279098,1712041276645,1887812,0
1712041279098,1712041276685,1888178,0
1712041279098,1712041276725,1888560,0
1712041279098,1712041276766,1888621,0
1712041279098,1712041276806,1888974,0
1712041279098,1712041276846,1889534,0
1712041279098,1712041276886,1890509,0
1712041279098,1712041276926,1891700,0
1712041279098,1712041276966,1893618,0
1712041279098,1712041277007,1895805,0
1712041279098,1712041277047,1897973,0
1712041279098,1712041277087,1899833,0
1712041279098,1712041277127,1897483,0
1712041279098,1712041277167,1896311,0
1712041279098,1712041277207,1895627,0
1712041279098,1712041277247,1895312,0
1712041279098,1712041277287,1895555,0
1712041279098,1712041277327,1895516,0
1712041279098,1712041277367,1895214,0
1712041279098,1712041277408,1895058,0
1712041279098,1712041277447,1894620,0
1712041279098,1712041277487,1894812,0
1712041279098,1712041277528,1895461,0
1712041279098,1712041277568,1896030,0
1712041279098,1712041277608,1897124,0
1712041279098,1712041277648,1898362,0
1712041279098,1712041277688,1899257,0
1712041279098,1712041277728,1898440,0
1712041279098,1712041277768,1897407,0
1712041279098,1712041277809,1896523,0
1712041279098,1712041277848,1896075,0
1712041279098,1712041277889,1895675,0
1712041279098,1712041277929,1896074,0
1712041279098,1712041277969,1896391,0
1712041279098,1712041278010,1896491,0
1712041279098,1712041278049,1896496,0
1712041279098,1712041278089,1896840,0
1712041279098,1712041278129,1897635,0
1712041279098,1712041278169,1898564,0
1712041279098,1712041278210,1899695,0
1712041279098,1712041278250,1900616,0
1712041279098,1712041278290,1901396,0
1712041279098,1712041278330,1901529,0
1712041279098,1712041278370,1899970,0
1712041279098,1712041278411,1898486,0
1712041279098,1712041278450,1897246,0
1712041279098,1712041278490,1896320,0
1712041279098,1712041278530,1895833,0
1712041279098,1712041278570,1895691,0
1712041279098,1712041278611,1895480,0
1712041279098,1712041278651,1895326,0
1712041279098,1712041278691,1895710,0
1712041279098,1712041278731,1897075,0
1712041279098,1712041278771,1899020,0
1712041279098,1712041278812,1900692,0
1712041279098,1712041278851,1901928,0
1712041279098,1712041278891,1903095,0
1712041279098,1712041278931,1904348,0
1712041279098,1712041278973,1904071,0
1712041279098,1712041279012,1902430,0
1712041291150,1712041279104,1901471,0
1712041291150,1712041279144,1900905,0
1712041291150,1712041279184,1900437,0
1712041291150,1712041279224,1900781,0
1712041291150,1712041279265,1901811,0
1712041291150,1712041279304,1902472,0
1712041291150,1712041279344,1902536,0
1712041291150,1712041279385,1903227,0
1712041291150,1712041279425,1904212,0
1712041291150,1712041279466,1905325,0
1712041291150,1712041279505,1906624,0
1712041291150,1712041279545,1907551,0
1712041291150,1712041279585,1908609,0
1712041291150,1712041279625,1909808,0
1712041291150,1712041279666,1909998,0
1712041291150,1712041279705,1908804,0
1712041291150,1712041279746,1907658,0
1712041291150,1712041279786,1907235,0
1712041291150,1712041279826,1907040,0
1712041291150,1712041279867,1907214,0
1712041291150,1712041279906,1907717,0
1712041291150,1712041279946,1908018,0
1712041291150,1712041279986,1908451,0
1712041291150,1712041280026,1908722,0
1712041291150,1712041280067,1909233,0
1712041291150,1712041280107,1910428,0
1712041291150,1712041280147,1911658,0
1712041291150,1712041280187,1912826,0
1712041291150,1712041280227,1914167,0
1712041291150,1712041280268,1915093,0
1712041291150,1712041280307,1914601,0
1712041291150,1712041280348,1913240,0
1712041291150,1712041280388,1912057,0
1712041291150,1712041280428,1911606,0
1712041291150,1712041280469,1911395,0
1712041291150,1712041280508,1911679,0
1712041291150,1712041280548,1911899,0
1712041291150,1712041280588,1912277,0
1712041291150,1712041280628,1912562,0
1712041291150,1712041280669,1913074,0
1712041291150,1712041280709,1914067,0
1712041291150,1712041280749,1915786,0
1712041291150,1712041280789,1917313,0
1712041291150,1712041280829,1918864,0
1712041291150,1712041280870,1920502,0
1712041291150,1712041280909,1921446,0
1712041291150,1712041280949,1920816,0
1712041291150,1712041280989,1920082,0
1712041291150,1712041281029,1919510,0
1712041291150,1712041281070,1919160,0
1712041291150,1712041281110,1919679,0
1712041291150,1712041281150,1920450,0
1712041291150,1712041281190,1920729,0
1712041291150,1712041281230,1921031,0
1712041291150,1712041281271,1921617,0
1712041291150,1712041281310,1922359,0
1712041291150,1712041281350,1923210,0
1712041291150,1712041281390,1924254,0
1712041291150,1712041281431,1925016,0
1712041291150,1712041281471,1925996,0
1712041291150,1712041281511,1926822,0
1712041291150,1712041281551,1926559,0
1712041291150,1712041281591,1924878,0
1712041291150,1712041281631,1923624,0
1712041291150,1712041281672,1922938,0
1712041291150,1712041281711,1922855,0
1712041291150,1712041281751,1923262,0
1712041291150,1712041281792,1923407,0
1712041291150,1712041281832,1923545,0
1712041291150,1712041281873,1923863,0
1712041291150,1712041281912,1924089,0
1712041291150,1712041281952,1924778,0
1712041291150,1712041281992,1925565,0
1712041291150,1712041282034,1926773,0
1712041291150,1712041282073,1927667,0
1712041291150,1712041282113,1928472,0
1712041291150,1712041282153,1929104,0
1712041291150,1712041282193,1928048,0
1712041291150,1712041282233,1926679,0
1712041291150,1712041282274,1925797,0
1712041291150,1712041282313,1925279,0
1712041291150,1712041282354,1925106,0
1712041291150,1712041282394,1925550,0
1712041291150,1712041282434,1925926,0
1712041291150,1712041282475,1925770,0
1712041291150,1712041282514,1926149,0
1712041291150,1712041282554,1926698,0
1712041291150,1712041282594,1927476,0
1712041291150,1712041282635,1928448,0
1712041291150,1712041282675,1929757,0
1712041291150,1712041282715,1930716,0
1712041291150,1712041282755,1931910,0
1712041291150,1712041282795,1932574,0
1712041291150,1712041282835,1931071,0
1712041291150,1712041282876,1929547,0
1712041291150,1712041282915,1928724,0
1712041291150,1712041282956,1928109,0
1712041291150,1712041282996,1927869,0
1712041291150,1712041283036,1928167,0
1712041291150,1712041283077,1928092,0
1712041291150,1712041283116,1928075,0
1712041291150,1712041283156,1928470,0
1712041291150,1712041283197,1929007,0
1712041291150,1712041283237,1929933,0
1712041291150,1712041283278,1931058,0
1712041291150,1712041283317,1931931,0
1712041291150,1712041283357,1932876,0
1712041291150,1712041283397,1933886,0
1712041291150,1712041283437,1934085,0
1712041291150,1712041283478,1932874,0
1712041291150,1712041283517,1931479,0
1712041291150,1712041283557,1930252,0
1712041291150,1712041283598,1929618,0
1712041291150,1712041283638,1929766,0
1712041291150,1712041283678,1930234,0
1712041291150,1712041283718,1930498,0
1712041291150,1712041283758,1930621,0
1712041291150,1712041283798,1930443,0
1712041291150,1712041283838,1930667,0
1712041291150,1712041283879,1931219,0
1712041291150,1712041283918,1931823,0
1712041291150,1712041283958,1932723,0
1712041291150,1712041283998,1934164,0
1712041291150,1712041284038,1935639,0
1712041291150,1712041284079,1935750,0
1712041291150,1712041284119,1935598,0
1712041291150,1712041284159,1937929,0
1712041291150,1712041284199,1941133,0
1712041291150,1712041284239,1943697,0
1712041291150,1712041284280,1944520,0
1712041291150,1712041284319,1943634,0
1712041291150,1712041284359,1942405,0
1712041291150,1712041284399,1941306,0
1712041291150,1712041284440,1941670,0
1712041291150,1712041284480,1942705,0
1712041291150,1712041284520,1943863,0
1712041291150,1712041284560,1944844,0
1712041291150,1712041284600,1946268,0
1712041291150,1712041284640,1947613,0
1712041291150,1712041284681,1949144,0
1712041291150,1712041284720,1950203,0
1712041291150,1712041284760,1950750,0
1712041291150,1712041284801,1951012,0
1712041291150,1712041284841,1950578,0
1712041291150,1712041284881,1949764,0
1712041291150,1712041284921,1948993,0
1712041291150,1712041284961,1948575,0
1712041291150,1712041285001,1948494,0
1712041291150,1712041285043,1948816,0
1712041291150,1712041285082,1949640,0
1712041291150,1712041285121,1950079,0
1712041291150,1712041285162,1950704,0
1712041291150,1712041285201,1951687,0
1712041291150,1712041285242,1952708,0
1712041291150,1712041285283,1954057,0
1712041291150,1712041285322,1954904,0
1712041291150,1712041285362,1953920,0
1712041291150,1712041285402,1952789,0
1712041291150,1712041285442,1952113,0
1712041291150,1712041285483,1951417,0
1712041291150,1712041285523,1951656,0
1712041291150,1712041285563,1951869,0
1712041291150,1712041285603,1952128,0
1712041291150,1712041285644,1952802,0
1712041291150,1712041285684,1953502,0
1712041291150,1712041285724,1954457,0
1712041291150,1712041285765,1956009,0
1712041291150,1712041285805,1957911,0
1712041291150,1712041285847,1959638,0
1712041291150,1712041285888,1961241,0
1712041291150,1712041285927,1962047,0
1712041291150,1712041285968,1960663,0
1712041291150,1712041286008,1958781,0
1712041291150,1712041286048,1957473,0
1712041291150,1712041286089,1956549,0
1712041291150,1712041286129,1956204,0
1712041291150,1712041286169,1956478,0
1712041291150,1712041286209,1956208,0
1712041291150,1712041286250,1955883,0
1712041291150,1712041286291,1955513,0
1712041291150,1712041286330,1955596,0
1712041291150,1712041286370,1955628,0
1712041291150,1712041286410,1955978,0
1712041291150,1712041286451,1956625,0
1712041291150,1712041286492,1957382,0
1712041291150,1712041286532,1956926,0
1712041291150,1712041286572,1955181,0
1712041291150,1712041286613,1953648,0
1712041291150,1712041286653,1952163,0
1712041291150,1712041286694,1950761,0
1712041291150,1712041286733,1949830,0
1712041291150,1712041286773,1949432,0
1712041291150,1712041286814,1948764,0
1712041291150,1712041286854,1947840,0
1712041291150,1712041286895,1947626,0
1712041291150,1712041286934,1947676,0
1712041291150,1712041286975,1948417,0
1712041291150,1712041287015,1949707,0
1712041291150,1712041287055,1950826,0
1712041291150,1712041287096,1951742,0
1712041291150,1712041287135,1952232,0
1712041291150,1712041287176,1950852,0
1712041291150,1712041287216,1948748,0
1712041291150,1712041287259,1947665,0
1712041291150,1712041287297,1946543,0
1712041291150,1712041287337,1946751,0
1712041291150,1712041287377,1946770,0
1712041291150,1712041287417,1946673,0
1712041291150,1712041287458,1946615,0
1712041291150,1712041287498,1947234,0
1712041291150,1712041287538,1948025,0
1712041291150,1712041287578,1948987,0
1712041291150,1712041287618,1950057,0
1712041291150,1712041287658,1951137,0
1712041291150,1712041287699,1952235,0
1712041291150,1712041287740,1952798,0
1712041291150,1712041287780,1951400,0
1712041291150,1712041287821,1949677,0
1712041291150,1712041287861,1948654,0
1712041291150,1712041287902,1948055,0
1712041291150,1712041287941,1947682,0
1712041291150,1712041287981,1947690,0
1712041291150,1712041288021,1947554,0
1712041291150,1712041288063,1947545,0
1712041291150,1712041288102,1947776,0
1712041291150,1712041288142,1948747,0
1712041291150,1712041288182,1949895,0
1712041291150,1712041288222,1951380,0
1712041291150,1712041288263,1953163,0
1712041291150,1712041288304,1954955,0
1712041291150,1712041288343,1956899,0
1712041291150,1712041288383,1958497,0
1712041291150,1712041288424,1958200,0
1712041291150,1712041288464,1957017,0
1712041291150,1712041288505,1956225,0
1712041291150,1712041288544,1956046,0
1712041291150,1712041288584,1956315,0
1712041291150,1712041288625,1956837,0
1712041291150,1712041288665,1957335,0
1712041291150,1712041288706,1957932,0
1712041291150,1712041288745,1958766,0
1712041291150,1712041288786,1959550,0
1712041291150,1712041288826,1961024,0
1712041291150,1712041288866,1962947,0
1712041291150,1712041288907,1964848,0
1712041291150,1712041288947,1966114,0
1712041291150,1712041288987,1967532,0
1712041291150,1712041289027,1969230,0
1712041291150,1712041289067,1969231,0
1712041291150,1712041289109,1967584,0
1712041291150,1712041289148,1966556,0
1712041291150,1712041289188,1966115,0
1712041291150,1712041289228,1965753,0
1712041291150,1712041289269,1965951,0
1712041291150,1712041289310,1966408,0
1712041291150,1712041289349,1966535,0
1712041291150,1712041289390,1966675,0
1712041291150,1712041289430,1966992,0
1712041291150,1712041289473,1967636,0
1712041291150,1712041289511,1968549,0
1712041291150,1712041289550,1969680,0
1712041291150,1712041289591,1970705,0
1712041291150,1712041289631,1971836,0
1712041291150,1712041289671,1972949,0
1712041291150,1712041289712,1972518,0
1712041291150,1712041289752,1971053,0
1712041291150,1712041289792,1969730,0
1712041291150,1712041289832,1968885,0
1712041291150,1712041289873,1965585,0
1712041291150,1712041289914,1961980,0
1712041291150,1712041289953,1958346,0
1712041291150,1712041289993,1953382,0
1712041291150,1712041290033,1948065,0
1712041291150,1712041290074,1943064,0
1712041291150,1712041290115,1937859,0
1712041291150,1712041290154,1933332,0
1712041291150,1712041290194,1928648,0
1712041291150,1712041290235,1922510,0
1712041291150,1712041290275,1917767,0
1712041291150,1712041290316,1915735,0
1712041291150,1712041290356,1913980,0
1712041291150,1712041290396,1910394,0
1712041291150,1712041290436,1907270,0
1712041291150,1712041290477,1905261,0
1712041291150,1712041290517,1903371,0
1712041291150,1712041290557,1902151,0
1712041291150,1712041290597,1901502,0
1712041291150,1712041290637,1900229,0
1712041291150,1712041290677,1898820,0
1712041291150,1712041290718,1897134,0
1712041291150,1712041290758,1895372,0
1712041291150,1712041290798,1893753,0
1712041291150,1712041290838,1892206,0
1712041291150,1712041290878,1890336,0
1712041291150,1712041290919,1888649,0
1712041291150,1712041290959,1887044,0
1712041291150,1712041290999,1884116,0
1712041291150,1712041291039,1879808,0
1712041291150,1712041291081,1875227,0
1712041291150,1712041291120,1871604,0
1712041303166,1712041291159,1868654,0
1712041303166,1712041291198,1867914,0
1712041303166,1712041291237,1868010,0
1712041303166,1712041291276,1867593,0
1712041303166,1712041291315,1866637,0
1712041303166,1712041291354,1865505,0
1712041303166,1712041291393,1864554,0
1712041303166,1712041291432,1864326,0
1712041303166,1712041291471,1865000,0
1712041303166,1712041291510,1867132,0
1712041303166,1712041291549,1871130,0
1712041303166,1712041291588,1876199,0
1712041303166,1712041291627,1880699,0
1712041303166,1712041291666,1884108,0
1712041303166,1712041291705,1887288,0
1712041303166,1712041291744,1890784,0
1712041303166,1712041291783,1894735,0
1712041303166,1712041291822,1899060,0
1712041303166,1712041291862,1903274,0
1712041303166,1712041291902,1907186,0
1712041303166,1712041291942,1910981,0
1712041303166,1712041291982,1915155,0
1712041303166,1712041292022,1919166,0
1712041303166,1712041292062,1923997,0
1712041303166,1712041292102,1928661,0
1712041303166,1712041292142,1933111,0
1712041303166,1712041292182,1938274,0
1712041303166,1712041292222,1943219,0
1712041303166,1712041292262,1947360,0
1712041303166,1712041292302,1949187,0
1712041303166,1712041292342,1950440,0
1712041303166,1712041292382,1952131,0
1712041303166,1712041292422,1954016,0
1712041303166,1712041292462,1956042,0
1712041303166,1712041292502,1958262,0
1712041303166,1712041292542,1959868,0
1712041303166,1712041292582,1961243,0
1712041303166,1712041292622,1963340,0
1712041303166,1712041292662,1965613,0
1712041303166,1712041292702,1967989,0
1712041303166,1712041292742,1970660,0
1712041303166,1712041292782,1973372,0
1712041303166,1712041292822,1972336,0
1712041303166,1712041292862,1968899,0
1712041303166,1712041292902,1968748,0
1712041303166,1712041292942,1966553,0
1712041303166,1712041292982,1962687,0
1712041303166,1712041293022,1959922,0
1712041303166,1712041293062,1957985,0
1712041303166,1712041293102,1956881,0
1712041303166,1712041293142,1956954,0
1712041303166,1712041293182,1956982,0
1712041303166,1712041293222,1956810,0
1712041303166,1712041293262,1957031,0
1712041303166,1712041293302,1957262,0
1712041303166,1712041293342,1957949,0
1712041303166,1712041293382,1959474,0
1712041303166,1712041293422,1961357,0
1712041303166,1712041293462,1963314,0
1712041303166,1712041293502,1965016,0
1712041303166,1712041293542,1965049,0
1712041303166,1712041293582,1963821,0
1712041303166,1712041293622,1962979,0
1712041303166,1712041293662,1962537,0
1712041303166,1712041293702,1962749,0
1712041303166,1712041293742,1963136,0
1712041303166,1712041293782,1964056,0
1712041303166,1712041293822,1964963,0
1712041303166,1712041293862,1966460,0
1712041303166,1712041293902,1968129,0
1712041303166,1712041293942,1970096,0
1712041303166,1712041293982,1972694,0
1712041303166,1712041294022,1975652,0
1712041303166,1712041294062,1978400,0
1712041303166,1712041294102,1981162,0
1712041303166,1712041294142,1982905,0
1712041303166,1712041294182,1981802,0
1712041303166,1712041294222,1979615,0
1712041303166,1712041294262,1977787,0
1712041303166,1712041294302,1976267,0
1712041303166,1712041294342,1975519,0
1712041303166,1712041294382,1975010,0
1712041303166,1712041294422,1974259,0
1712041303166,1712041294462,1973398,0
1712041303166,1712041294502,1972733,0
1712041303166,1712041294542,1972195,0
1712041303166,1712041294582,1972137,0
1712041303166,1712041294622,1972097,0
1712041303166,1712041294662,1971999,0
1712041303166,1712041294702,1971846,0
1712041303166,1712041294742,1971855,0
1712041303166,1712041294782,1969569,0
1712041303166,1712041294822,1966334,0
1712041303166,1712041294862,1963886,0
1712041303166,1712041294902,1962051,0
1712041303166,1712041294942,1960775,0
1712041303166,1712041294982,1960080,0
1712041303166,1712041295022,1959392,0
1712041303166,1712041295062,1958521,0
1712041303166,1712041295102,1957802,0
1712041303166,1712041295142,1957654,0
1712041303166,1712041295182,1957569,0
1712041303166,1712041295222,1957851,0
1712041303166,1712041295262,1958613,0
1712041303166,1712041295302,1959374,0
1712041303166,1712041295342,1960138,0
1712041303166,1712041295382,1960293,0
1712041303166,1712041295422,1958404,0
1712041303166,1712041295462,1956054,0
1712041303166,1712041295502,1954773,0
1712041303166,1712041295542,1954054,0
1712041303166,1712041295582,1953908,0
1712041303166,1712041295622,1954308,0
1712041303166,1712041295662,1954207,0
1712041303166,1712041295702,1953868,0
1712041303166,1712041295742,1954293,0
1712041303166,1712041295782,1955267,0
1712041303166,1712041295822,1956414,0
1712041303166,1712041295862,1958403,0
1712041303166,1712041295902,1958934,0
1712041303166,1712041295942,1958443,0
1712041303166,1712041295982,1956218,0
1712041303166,1712041296022,1953112,0
1712041303166,1712041296062,1950813,0
1712041303166,1712041296102,1949401,0
1712041303166,1712041296142,1949230,0
1712041303166,1712041296182,1950150,0
1712041303166,1712041296222,1950787,0
1712041303166,1712041296262,1950951,0
1712041303166,1712041296302,1951652,0
1712041303166,1712041296342,1952957,0
1712041303166,1712041296382,1954599,0
1712041303166,1712041296422,1956017,0
1712041303166,1712041296462,1956984,0
1712041303166,1712041296502,1957849,0
1712041303166,1712041296542,1958489,0
1712041303166,1712041296582,1957342,0
1712041303166,1712041296622,1955738,0
1712041303166,1712041296662,1954511,0
1712041303166,1712041296702,1953114,0
1712041303166,1712041296742,1951919,0
1712041303166,1712041296782,1951316,0
1712041303166,1712041296822,1949850,0
1712041303166,1712041296862,1947885,0
1712041303166,1712041296902,1946016,0
1712041303166,1712041296942,1944978,0
1712041303166,1712041296982,1944547,0
1712041303166,1712041297022,1944592,0
1712041303166,1712041297062,1945180,0
1712041303166,1712041297102,1946110,0
1712041303166,1712041297142,1947089,0
1712041303166,1712041297182,1947482,0
1712041303166,1712041297222,1945822,0
1712041303166,1712041297262,1944656,0
1712041303166,1712041297302,1944273,0
1712041303166,1712041297342,1944461,0
1712041303166,1712041297382,1944864,0
1712041303166,1712041297422,1945410,0
1712041303166,1712041297462,1946191,0
1712041303166,1712041297502,1947018,0
1712041303166,1712041297542,1948116,0
1712041303166,1712041297582,1949375,0
1712041303166,1712041297622,1951211,0
1712041303166,1712041297662,1953156,0
1712041303166,1712041297702,1954919,0
1712041303166,1712041297742,1956878,0
1712041303166,1712041297782,1958325,0
1712041303166,1712041297822,1957966,0
1712041303166,1712041297862,1956705,0
1712041303166,1712041297902,1956084,0
1712041303166,1712041297942,1955627,0
1712041303166,1712041297982,1955568,0
1712041303166,1712041298022,1956481,0
1712041303166,1712041298062,1957803,0
1712041303166,1712041298102,1960265,0
1712041303166,1712041298142,1963795,0
1712041303166,1712041298182,1966664,0
1712041303166,1712041298222,1968505,0
1712041303166,1712041298262,1968493,0
1712041303166,1712041298302,1968046,0
1712041303166,1712041298342,1968417,0
1712041303166,1712041298382,1969820,0
1712041303166,1712041298422,1969927,0
1712041303166,1712041298462,1967926,0
1712041303166,1712041298502,1965490,0
1712041303166,1712041298542,1963964,0
1712041303166,1712041298582,1962860,0
1712041303166,1712041298622,1962708,0
1712041303166,1712041298662,1962735,0
1712041303166,1712041298702,1962484,0
1712041303166,1712041298742,1962111,0
1712041303166,1712041298782,1962355,0
1712041303166,1712041298822,1962783,0
1712041303166,1712041298862,1963352,0
1712041303166,1712041298902,1963877,0
1712041303166,1712041298942,1964733,0
1712041303166,1712041298982,1966162,0
1712041303166,1712041299022,1966952,0
1712041303166,1712041299062,1966035,0
1712041303166,1712041299102,1964548,0
1712041303166,1712041299142,1962885,0
1712041303166,1712041299182,1961964,0
1712041303166,1712041299222,1962077,0
1712041303166,1712041299262,1962949,0
1712041303166,1712041299302,1963493,0
1712041303166,1712041299342,1964307,0
1712041303166,1712041299382,1965599,0
1712041303166,1712041299422,1966667,0
1712041303166,1712041299462,1967458,0
1712041303166,1712041299502,1968117,0
1712041303166,1712041299542,1969211,0
1712041303166,1712041299582,1970275,0
1712041303166,1712041299622,1970442,0
1712041303166,1712041299662,1968620,0
1712041303166,1712041299702,1967897,0
1712041303166,1712041299742,1967897,0
1712041303166,1712041299782,1968050,0
1712041303166,1712041299822,1968765,0
1712041303166,1712041299862,1969867,0
1712041303166,1712041299902,1971094,0
1712041303166,1712041299942,1972597,0
1712041303166,1712041299982,1974209,0
1712041303166,1712041300022,1975623,0
1712041303166,1712041300062,1977697,0
1712041303166,1712041300102,1979703,0
1712041303166,1712041300142,1981518,0
1712041303166,1712041300182,1983900,0
1712041303166,1712041300222,1986103,0
1712041303166,1712041300262,1987041,0
1712041303166,1712041300302,1987030,0
1712041303166,1712041300342,1987607,0
1712041303166,1712041300382,1988857,0
1712041303166,1712041300422,1989857,0
1712041303166,1712041300462,1991131,0
1712041303166,1712041300502,1992437,0
1712041303166,1712041300542,1993292,0
1712041303166,1712041300582,1993943,0
1712041303166,1712041300622,1995175,0
1712041303166,1712041300662,1996944,0
1712041303166,1712041300702,1998843,0
1712041303166,1712041300742,2000666,0
1712041303166,1712041300782,2002692,0
1712041303166,1712041300822,2004818,0
1712041303166,1712041300862,2006788,0
1712041303166,1712041300902,2007383,0
1712041303166,1712041300942,2006256,0
1712041303166,1712041300982,2005516,0
1712041303166,1712041301022,2005428,0
1712041303166,1712041301062,2006203,0
1712041303166,1712041301102,2007268,0
1712041303166,1712041301142,2008333,0
1712041303166,1712041301182,2009177,0
1712041303166,1712041301222,2009833,0
1712041303166,1712041301262,2010571,0
1712041303166,1712041301302,2011410,0
1712041303166,1712041301342,2012427,0
1712041303166,1712041301382,2013672,0
1712041303166,1712041301422,2015029,0
1712041303166,1712041301462,2016889,0
1712041303166,1712041301502,2019259,0
1712041303166,1712041301542,2021192,0
1712041303166,1712041301582,2020908,0
1712041303166,1712041301622,2020254,0
1712041303166,1712041301662,2020418,0
1712041303166,1712041301702,2020503,0
1712041303166,1712041301742,2020974,0
1712041303166,1712041301782,2021818,0
1712041303166,1712041301822,2022121,0
1712041303166,1712041301862,2022359,0
1712041303166,1712041301902,2022582,0
1712041303166,1712041301942,2023337,0
1712041303166,1712041301982,2024359,0
1712041303166,1712041302022,2025819,0
1712041303166,1712041302062,2027286,0
1712041303166,1712041302102,2028971,0
1712041303166,1712041302142,2030783,0
1712041303166,1712041302182,2031687,0
1712041303166,1712041302222,2030516,0
1712041303166,1712041302262,2029180,0
1712041303166,1712041302302,2028552,0
1712041303166,1712041302342,2028428,0
1712041303166,1712041302382,2029014,0
1712041303166,1712041302422,2029651,0
1712041303166,1712041302462,2030070,0
1712041303166,1712041302502,2030380,0
1712041303166,1712041302542,2031002,0
1712041303166,1712041302582,2031823,0
1712041303166,1712041302622,2033015,0
1712041303166,1712041302662,2034464,0
1712041303166,1712041302702,2035685,0
1712041303166,1712041302742,2037179,0
1712041303166,1712041302782,2038963,0
1712041303166,1712041302822,2039778,0
1712041303166,1712041302862,2038508,0
1712041303166,1712041302902,2037090,0
1712041303166,1712041302942,2036410,0
1712041303166,1712041302982,2036031,0
1712041303166,1712041303022,2036119,0
1712041303166,1712041303062,2036794,0
1712041303166,1712041303102,2036973,0
1712041315245,1712041303194,2036890,0
1712041315245,1712041303234,2037315,0
1712041315245,1712041303274,2037895,0
1712041315245,1712041303314,2038492,0
1712041315245,1712041303355,2039453,0
1712041315245,1712041303394,2040716,0
1712041315245,1712041303435,2041702,0
1712041315245,1712041303475,2042958,0
1712041315245,1712041303515,2044038,0
1712041315245,1712041303556,2043069,0
1712041315245,1712041303595,2041496,0
1712041315245,1712041303635,2040587,0
1712041315245,1712041303675,2040204,0
1712041315245,1712041303715,2039682,0
1712041315245,1712041303756,2038428,0
1712041315245,1712041303796,2036625,0
1712041315245,1712041303836,2033549,0
1712041315245,1712041303876,2030099,0
1712041315245,1712041303916,2028040,0
1712041315245,1712041303957,2026354,0
1712041315245,1712041303996,2026409,0
1712041315245,1712041304036,2028026,0
1712041315245,1712041304076,2029840,0
1712041315245,1712041304116,2031004,0
1712041315245,1712041304157,2031390,0
1712041315245,1712041304197,2029334,0
1712041315245,1712041304237,2024567,0
1712041315245,1712041304277,2020542,0
1712041315245,1712041304317,2016741,0
1712041315245,1712041304358,2013587,0
1712041315245,1712041304397,2011325,0
1712041315245,1712041304438,2009726,0
1712041315245,1712041304478,2009246,0
1712041315245,1712041304518,2009975,0
1712041315245,1712041304559,2011756,0
1712041315245,1712041304598,2013491,0
1712041315245,1712041304638,2015735,0
1712041315245,1712041304678,2018130,0
1712041315245,1712041304718,2020603,0
1712041315245,1712041304759,2022351,0
1712041315245,1712041304799,2021774,0
1712041315245,1712041304839,2018777,0
1712041315245,1712041304879,2015695,0
1712041315245,1712041304919,2013684,0
1712041315245,1712041304960,2012106,0
1712041315245,1712041304999,2011339,0
1712041315245,1712041305039,2010538,0
1712041315245,1712041305080,2009621,0
1712041315245,1712041305120,2009050,0
1712041315245,1712041305161,2008480,0
1712041315245,1712041305200,2008416,0
1712041315245,1712041305240,2008307,0
1712041315245,1712041305280,2008405,0
1712041315245,1712041305320,2008668,0
1712041315245,1712041305361,2008959,0
1712041315245,1712041305401,2008350,0
1712041315245,1712041305441,2005461,0
1712041315245,1712041305481,2002613,0
1712041315245,1712041305521,2000788,0
1712041315245,1712041305562,1998323,0
1712041315245,1712041305601,1996201,0
1712041315245,1712041305642,1994480,0
1712041315245,1712041305682,1992380,0
1712041315245,1712041305722,1990546,0
1712041315245,1712041305763,1988924,0
1712041315245,1712041305802,1987196,0
1712041315245,1712041305842,1985612,0
1712041315245,1712041305883,1984381,0
1712041315245,1712041305923,1982793,0
1712041315245,1712041305964,1981423,0
1712041315245,1712041306003,1979755,0
1712041315245,1712041306043,1975551,0
1712041315245,1712041306083,1970968,0
1712041315245,1712041306125,1968162,0
1712041315245,1712041306164,1967562,0
1712041315245,1712041306204,1968977,0
1712041315245,1712041306244,1971203,0
1712041315245,1712041306284,1973049,0
1712041315245,1712041306324,1974402,0
1712041315245,1712041306365,1975489,0
1712041315245,1712041306405,1976551,0
1712041315245,1712041306445,1977526,0
1712041315245,1712041306485,1979032,0
1712041315245,1712041306525,1980421,0
1712041315245,1712041306566,1982071,0
1712041315245,1712041306606,1983084,0
1712041315245,1712041306645,1981529,0
1712041315245,1712041306686,1979146,0
1712041315245,1712041306726,1977753,0
1712041315245,1712041306767,1976957,0
1712041315245,1712041306806,1976586,0
1712041315245,1712041306847,1976917,0
1712041315245,1712041306887,1976779,0
1712041315245,1712041306927,1976602,0
1712041315245,1712041306968,1976162,0
1712041315245,1712041307007,1976579,0
1712041315245,1712041307047,1977093,0
1712041315245,1712041307088,1977861,0
1712041315245,1712041307128,1978721,0
1712041315245,1712041307169,1979890,0
1712041315245,1712041307208,1981024,0
1712041315245,1712041307248,1980766,0
1712041315245,1712041307288,1976356,0
1712041315245,1712041307328,1975071,0
1712041315245,1712041307369,1974524,0
1712041315245,1712041307409,1974045,0
1712041315245,1712041307449,1973765,0
1712041315245,1712041307489,1973499,0
1712041315245,1712041307529,1973168,0
1712041315245,1712041307570,1973483,0
1712041315245,1712041307609,1973956,0
1712041315245,1712041307649,1974792,0
1712041315245,1712041307689,1975913,0
1712041315245,1712041307729,1977297,0
1712041315245,1712041307770,1978527,0
1712041315245,1712041307810,1979633,0
1712041315245,1712041307850,1978831,0
1712041315245,1712041307890,1976311,0
1712041315245,1712041307930,1974131,0
1712041315245,1712041307971,1972827,0
1712041315245,1712041308010,1972862,0
1712041315245,1712041308050,1973218,0
1712041315245,1712041308090,1972310,0
1712041315245,1712041308131,1973144,0
1712041315245,1712041308171,1976660,0
1712041315245,1712041308211,1982335,0
1712041315245,1712041308251,1988039,0
1712041315245,1712041308291,1993500,0
1712041315245,1712041308331,1999184,0
1712041315245,1712041308372,2005278,0
1712041315245,1712041308412,2011288,0
1712041315245,1712041308452,2016409,0
1712041315245,1712041308492,2018727,0
1712041315245,1712041308532,2018346,0
1712041315245,1712041308573,2018383,0
1712041315245,1712041308612,2020867,0
1712041315245,1712041308652,2026257,0
1712041315245,1712041308692,2032132,0
1712041315245,1712041308733,2036576,0
1712041315245,1712041308774,2039940,0
1712041315245,1712041308813,2041800,0
1712041315245,1712041308853,2043595,0
1712041315245,1712041308893,2043397,0
1712041315245,1712041308933,2042401,0
1712041315245,1712041308974,2050346,0
1712041315245,1712041309014,2055172,0
1712041315245,1712041309054,2063721,0
1712041315245,1712041309094,2071952,0
1712041315245,1712041309135,2074520,0
1712041315245,1712041309175,2078861,0
1712041315245,1712041309214,2082039,0
1712041315245,1712041309254,2084865,0
1712041315245,1712041309294,2084961,0
1712041315245,1712041309334,2085618,0
1712041315245,1712041309375,2086525,0
1712041315245,1712041309415,2087420,0
1712041315245,1712041309455,2089201,0
1712041315245,1712041309495,2091131,0
1712041315245,1712041309535,2093106,0
1712041315245,1712041309576,2094823,0
1712041315245,1712041309615,2097358,0
1712041315245,1712041309655,2099292,0
1712041315245,1712041309695,2101063,0
1712041315245,1712041309736,2101635,0
1712041315245,1712041309776,2100716,0
1712041315245,1712041309816,2100282,0
1712041315245,1712041309856,2099855,0
1712041315245,1712041309896,2099667,0
1712041315245,1712041309936,2099997,0
1712041315245,1712041309977,2100753,0
1712041315245,1712041310017,2101562,0
1712041315245,1712041310057,2103632,0
1712041315245,1712041310097,2105059,0
1712041315245,1712041310137,2106683,0
1712041315245,1712041310178,2108153,0
1712041315245,1712041310217,2110123,0
1712041315245,1712041310257,2112572,0
1712041315245,1712041310298,2114176,0
1712041315245,1712041310338,2115955,0
1712041315245,1712041310378,2115762,0
1712041315245,1712041310418,2114881,0
1712041315245,1712041310458,2114327,0
1712041315245,1712041310498,2114484,0
1712041315245,1712041310538,2115285,0
1712041315245,1712041310579,2116192,0
1712041315245,1712041310619,2116630,0
1712041315245,1712041310659,2117270,0
1712041315245,1712041310699,2119562,0
1712041315245,1712041310739,2122624,0
1712041315245,1712041310780,2125746,0
1712041315245,1712041310819,2129314,0
1712041315245,1712041310859,2132131,0
1712041315245,1712041310900,2134554,0
1712041315245,1712041310940,2136248,0
1712041315245,1712041310981,2137493,0
1712041315245,1712041311020,2137349,0
1712041315245,1712041311060,2136397,0
1712041315245,1712041311100,2135674,0
1712041315245,1712041311140,2134991,0
1712041315245,1712041311181,2134840,0
1712041315245,1712041311221,2135426,0
1712041315245,1712041311261,2135549,0
1712041315245,1712041311301,2135536,0
1712041315245,1712041311341,2135868,0
1712041315245,1712041311382,2136622,0
1712041315245,1712041311422,2137490,0
1712041315245,1712041311462,2138482,0
1712041315245,1712041311502,2139679,0
1712041315245,1712041311542,2141513,0
1712041315245,1712041311583,2143980,0
1712041315245,1712041311622,2145959,0
1712041315245,1712041311663,2145723,0
1712041315245,1712041311703,2144318,0
1712041315245,1712041311743,2143318,0
1712041315245,1712041311784,2142935,0
1712041315245,1712041311823,2143498,0
1712041315245,1712041311863,2144330,0
1712041315245,1712041311904,2144494,0
1712041315245,1712041311944,2144498,0
1712041315245,1712041311984,2144661,0
1712041315245,1712041312024,2145184,0
1712041315245,1712041312064,2145639,0
1712041315245,1712041312104,2146440,0
1712041315245,1712041312146,2147685,0
1712041315245,1712041312185,2149273,0
1712041315245,1712041312225,2150659,0
1712041315245,1712041312265,2150341,0
1712041315245,1712041312305,2148341,0
1712041315245,1712041312345,2147046,0
1712041315245,1712041312386,2146407,0
1712041315245,1712041312426,2145896,0
1712041315245,1712041312466,2145892,0
1712041315245,1712041312506,2145984,0
1712041315245,1712041312546,2145584,0
1712041315245,1712041312587,2145163,0
1712041315245,1712041312627,2145253,0
1712041315245,1712041312666,2145759,0
1712041315245,1712041312707,2146688,0
1712041315245,1712041312747,2147322,0
1712041315245,1712041312788,2147902,0
1712041315245,1712041312827,2149143,0
1712041315245,1712041312867,2150770,0
1712041315245,1712041312907,2150365,0
1712041315245,1712041312947,2147790,0
1712041315245,1712041312988,2145665,0
1712041315245,1712041313027,2144000,0
1712041315245,1712041313068,2142966,0
1712041315245,1712041313108,2142318,0
1712041315245,1712041313148,2141679,0
1712041315245,1712041313189,2141018,0
1712041315245,1712041313228,2140515,0
1712041315245,1712041313268,2140506,0
1712041315245,1712041313308,2140601,0
1712041315245,1712041313349,2140970,0
1712041315245,1712041313389,2141291,0
1712041315245,1712041313429,2141801,0
1712041315245,1712041313469,2142514,0
1712041315245,1712041313509,2142960,0
1712041315245,1712041313549,2141953,0
1712041315245,1712041313590,2138717,0
1712041315245,1712041313629,2135825,0
1712041315245,1712041313669,2133161,0
1712041315245,1712041313709,2130894,0
1712041315245,1712041313749,2129437,0
1712041315245,1712041313790,2128944,0
1712041315245,1712041313830,2128163,0
1712041315245,1712041313870,2126867,0
1712041315245,1712041313910,2126052,0
1712041315245,1712041313950,2125816,0
1712041315245,1712041313991,2125789,0
1712041315245,1712041314030,2125805,0
1712041315245,1712041314070,2126345,0
1712041315245,1712041314110,2126851,0
1712041315245,1712041314150,2127079,0
1712041315245,1712041314191,2124672,0
1712041315245,1712041314231,2118515,0
1712041315245,1712041314271,2113089,0
1712041315245,1712041314311,2112969,0
1712041315245,1712041314351,2126741,0
1712041315245,1712041314392,2136922,0
1712041315245,1712041314431,2144536,0
1712041315245,1712041314471,2150185,0
1712041315245,1712041314511,2156539,0
1712041315245,1712041314552,2160383,0
1712041315245,1712041314592,2162851,0
1712041315245,1712041314632,2164853,0
1712041315245,1712041314672,2166049,0
1712041315245,1712041314712,2166566,0
1712041315245,1712041314752,2165364,0
1712041315245,1712041314793,2164202,0
1712041315245,1712041314832,2162280,0
1712041315245,1712041314873,2158316,0
1712041315245,1712041314913,2152944,0
1712041315245,1712041314953,2148079,0
1712041315245,1712041314994,2143474,0
1712041315245,1712041315034,2139618,0
1712041315245,1712041315074,2136391,0
1712041315245,1712041315114,2133635,0
1712041315245,1712041315156,2130990,0
1712041315245,1712041315195,2129109,0
1712041327276,1712041315234,2127670,0
1712041327276,1712041315273,2127033,0
1712041327276,1712041315312,2126858,0
1712041327276,1712041315351,2127601,0
1712041327276,1712041315390,2129204,0
1712041327276,1712041315429,2131234,0
1712041327276,1712041315468,2132622,0
1712041327276,1712041315507,2133466,0
1712041327276,1712041315546,2133014,0
1712041327276,1712041315585,2134819,0
1712041327276,1712041315624,2136966,0
1712041327276,1712041315663,2141852,0
1712041327276,1712041315702,2148989,0
1712041327276,1712041315741,2157368,0
1712041327276,1712041315780,2166197,0
1712041327276,1712041315820,2176143,0
1712041327276,1712041315860,2183176,0
1712041327276,1712041315900,2190877,0
1712041327276,1712041315940,2198953,0
1712041327276,1712041315980,2207837,0
1712041327276,1712041316020,2214762,0
1712041327276,1712041316060,2220399,0
1712041327276,1712041316100,2226429,0
1712041327276,1712041316140,2230213,0
1712041327276,1712041316180,2233932,0
1712041327276,1712041316220,2236764,0
1712041327276,1712041316260,2240463,0
1712041327276,1712041316300,2243728,0
1712041327276,1712041316340,2246707,0
1712041327276,1712041316380,2249199,0
1712041327276,1712041316420,2251205,0
1712041327276,1712041316460,2252441,0
1712041327276,1712041316500,2254159,0
1712041327276,1712041316540,2256572,0
1712041327276,1712041316580,2259413,0
1712041327276,1712041316620,2261080,0
1712041327276,1712041316660,2263895,0
1712041327276,1712041316700,2267580,0
1712041327276,1712041316740,2271442,0
1712041327276,1712041316780,2274060,0
1712041327276,1712041316820,2276563,0
1712041327276,1712041316860,2276594,0
1712041327276,1712041316900,2275970,0
1712041327276,1712041316940,2275408,0
1712041327276,1712041316980,2275848,0
1712041327276,1712041317020,2277684,0
1712041327276,1712041317060,2278790,0
1712041327276,1712041317100,2281840,0
1712041327276,1712041317140,2284899,0
1712041327276,1712041317180,2286372,0
1712041327276,1712041317220,2288132,0
1712041327276,1712041317260,2292822,0
1712041327276,1712041317300,2295886,0
1712041327276,1712041317340,2301974,0
1712041327276,1712041317380,2307902,0
1712041327276,1712041317420,2315002,0
1712041327276,1712041317460,2320192,0
1712041327276,1712041317500,2325053,0
1712041327276,1712041317540,2323119,0
1712041327276,1712041317580,2325548,0
1712041327276,1712041317620,2327170,0
1712041327276,1712041317660,2328540,0
1712041327276,1712041317700,2330028,0
1712041327276,1712041317740,2332294,0
1712041327276,1712041317780,2334778,0
1712041327276,1712041317820,2335547,0
1712041327276,1712041317860,2338320,0
1712041327276,1712041317900,2337689,0
1712041327276,1712041317940,2342088,0
1712041327276,1712041317980,2346480,0
1712041327276,1712041318020,2347821,0
1712041327276,1712041318060,2349354,0
1712041327276,1712041318100,2349850,0
1712041327276,1712041318140,2349360,0
1712041327276,1712041318180,2349300,0
1712041327276,1712041318220,2348070,0
1712041327276,1712041318260,2349267,0
1712041327276,1712041318300,2351932,0
1712041327276,1712041318340,2355590,0
1712041327276,1712041318380,2355548,0
1712041327276,1712041318420,2356274,0
1712041327276,1712041318460,2360942,0
1712041327276,1712041318500,2365570,0
1712041327276,1712041318540,2367590,0
1712041327276,1712041318580,2368989,0
1712041327276,1712041318620,2368978,0
1712041327276,1712041318660,2370178,0
1712041327276,1712041318700,2369054,0
1712041327276,1712041318740,2366132,0
1712041327276,1712041318780,2362590,0
1712041327276,1712041318820,2359227,0
1712041327276,1712041318860,2357089,0
1712041327276,1712041318900,2355589,0
1712041327276,1712041318940,2354122,0
1712041327276,1712041318980,2354575,0
1712041327276,1712041319020,2354775,0
1712041327276,1712041319060,2354977,0
1712041327276,1712041319100,2354970,0
1712041327276,1712041319140,2354876,0
1712041327276,1712041319180,2354408,0
1712041327276,1712041319220,2353426,0
1712041327276,1712041319260,2356248,0
1712041327276,1712041319300,2356350,0
1712041327276,1712041319340,2354938,0
1712041327276,1712041319380,2354252,0
1712041327276,1712041319420,2355770,0
1712041327276,1712041319460,2355982,0
1712041327276,1712041319500,2357054,0
1712041327276,1712041319540,2358479,0
1712041327276,1712041319580,2359195,0
1712041327276,1712041319620,2360244,0
1712041327276,1712041319660,2361220,0
1712041327276,1712041319700,2362438,0
1712041327276,1712041319740,2363513,0
1712041327276,1712041319780,2364706,0
1712041327276,1712041319820,2365824,0
1712041327276,1712041319860,2367236,0
1712041327276,1712041319900,2368017,0
1712041327276,1712041319940,2367992,0
1712041327276,1712041319980,2367861,0
1712041327276,1712041320020,2366991,0
1712041327276,1712041320060,2365220,0
1712041327276,1712041320100,2362604,0
1712041327276,1712041320140,2360166,0
1712041327276,1712041320180,2358003,0
1712041327276,1712041320220,2356231,0
1712041327276,1712041320260,2355232,0
1712041327276,1712041320300,2355073,0
1712041327276,1712041320340,2355263,0
1712041327276,1712041320380,2356592,0
1712041327276,1712041320420,2358395,0
1712041327276,1712041320460,2360007,0
1712041327276,1712041320500,2363584,0
1712041327276,1712041320540,2367023,0
1712041327276,1712041320580,2370727,0
1712041327276,1712041320620,2374258,0
1712041327276,1712041320660,2378190,0
1712041327276,1712041320700,2382321,0
1712041327276,1712041320740,2385586,0
1712041327276,1712041320780,2388860,0
1712041327276,1712041320820,2393261,0
1712041327276,1712041320860,2398430,0
1712041327276,1712041320900,2403866,0
1712041327276,1712041320940,2410491,0
1712041327276,1712041320980,2417964,0
1712041327276,1712041321020,2425007,0
1712041327276,1712041321060,2429528,0
1712041327276,1712041321100,2433634,0
1712041327276,1712041321140,2436684,0
1712041327276,1712041321180,2439233,0
1712041327276,1712041321220,2440946,0
1712041327276,1712041321260,2443254,0
1712041327276,1712041321300,2444291,0
1712041327276,1712041321340,2444750,0
1712041327276,1712041321380,2441076,0
1712041327276,1712041321420,2436947,0
1712041327276,1712041321460,2437347,0
1712041327276,1712041321500,2439352,0
1712041327276,1712041321540,2438982,0
1712041327276,1712041321580,2438099,0
1712041327276,1712041321620,2439024,0
1712041327276,1712041321660,2437864,0
1712041327276,1712041321700,2436626,0
1712041327276,1712041321740,2440691,0
1712041327276,1712041321780,2443111,0
1712041327276,1712041321820,2446385,0
1712041327276,1712041321860,2448760,0
1712041327276,1712041321900,2452500,0
1712041327276,1712041321940,2456605,0
1712041327276,1712041321980,2458265,0
1712041327276,1712041322020,2457601,0
1712041327276,1712041322060,2457109,0
1712041327276,1712041322100,2457425,0
1712041327276,1712041322140,2459034,0
1712041327276,1712041322180,2463064,0
1712041327276,1712041322220,2467606,0
1712041327276,1712041322260,2468137,0
1712041327276,1712041322300,2471168,0
1712041327276,1712041322340,2470363,0
1712041327276,1712041322380,2471368,0
1712041327276,1712041322420,2474675,0
1712041327276,1712041322460,2475886,0
1712041327276,1712041322500,2475408,0
1712041327276,1712041322540,2474698,0
1712041327276,1712041322580,2472309,0
1712041327276,1712041322620,2475135,0
1712041327276,1712041322660,2476216,0
1712041327276,1712041322700,2476691,0
1712041327276,1712041322740,2475822,0
1712041327276,1712041322780,2476587,0
1712041327276,1712041322820,2475394,0
1712041327276,1712041322860,2473955,0
1712041327276,1712041322900,2474317,0
1712041327276,1712041322940,2472339,0
1712041327276,1712041322980,2470857,0
1712041327276,1712041323020,2470125,0
1712041327276,1712041323060,2468009,0
1712041327276,1712041323100,2466048,0
1712041327276,1712041323140,2465423,0
1712041327276,1712041323180,2465311,0
1712041327276,1712041323220,2464958,0
1712041327276,1712041323260,2464808,0
1712041327276,1712041323300,2465566,0
1712041327276,1712041323340,2466509,0
1712041327276,1712041323380,2465463,0
1712041327276,1712041323420,2463800,0
1712041327276,1712041323460,2462667,0
1712041327276,1712041323500,2461343,0
1712041327276,1712041323540,2459745,0
1712041327276,1712041323580,2458403,0
1712041327276,1712041323620,2456389,0
1712041327276,1712041323660,2453308,0
1712041327276,1712041323700,2447496,0
1712041327276,1712041323740,2442237,0
1712041327276,1712041323780,2437125,0
1712041327276,1712041323820,2432531,0
1712041327276,1712041323860,2428425,0
1712041327276,1712041323900,2422615,0
1712041327276,1712041323940,2416288,0
1712041327276,1712041323980,2410852,0
1712041327276,1712041324020,2407710,0
1712041327276,1712041324060,2404623,0
1712041327276,1712041324100,2401307,0
1712041327276,1712041324140,2398908,0
1712041327276,1712041324180,2395957,0
1712041327276,1712041324220,2389871,0
1712041327276,1712041324260,2381166,0
1712041327276,1712041324300,2369841,0
1712041327276,1712041324340,2359043,0
1712041327276,1712041324380,2352697,0
1712041327276,1712041324420,2344250,0
1712041327276,1712041324460,2340348,0
1712041327276,1712041324500,2338763,0
1712041327276,1712041324540,2335400,0
1712041327276,1712041324580,2330763,0
1712041327276,1712041324620,2326696,0
1712041327276,1712041324660,2323807,0
1712041327276,1712041324700,2322571,0
1712041327276,1712041324740,2321103,0
1712041327276,1712041324780,2319048,0
1712041327276,1712041324820,2316600,0
1712041327276,1712041324860,2314154,0
1712041327276,1712041324900,2309694,0
1712041327276,1712041324940,2299852,0
1712041327276,1712041324980,2288336,0
1712041327276,1712041325020,2277986,0
1712041327276,1712041325060,2269736,0
1712041327276,1712041325100,2261171,0
1712041327276,1712041325140,2253424,0
1712041327276,1712041325180,2244082,0
1712041327276,1712041325220,2232695,0
1712041327276,1712041325260,2221613,0
1712041327276,1712041325300,2214396,0
1712041327276,1712041325340,2208577,0
1712041327276,1712041325380,2203027,0
1712041327276,1712041325420,2197579,0
1712041327276,1712041325460,2192314,0
1712041327276,1712041325500,2188067,0
1712041327276,1712041325540,2183428,0
1712041327276,1712041325580,2178603,0
1712041327276,1712041325620,2175872,0
1712041327276,1712041325660,2175263,0
1712041327276,1712041325700,2177137,0
1712041327276,1712041325740,2181723,0
1712041327276,1712041325780,2186189,0
1712041327276,1712041325820,2191833,0
1712041327276,1712041325860,2197246,0
1712041327276,1712041325900,2200683,0
1712041327276,1712041325940,2203643,0
1712041327276,1712041325980,2208351,0
1712041327276,1712041326020,2215396,0
1712041327276,1712041326060,2224189,0
1712041327276,1712041326100,2228179,0
1712041327276,1712041326140,2232050,0
1712041327276,1712041326180,2232188,0
1712041327276,1712041326220,2231778,0
1712041327276,1712041326260,2233030,0
1712041327276,1712041326300,2233800,0
1712041327276,1712041326340,2237938,0
1712041327276,1712041326380,2244831,0
1712041327276,1712041326420,2249670,0
1712041327276,1712041326460,2253554,0
1712041327276,1712041326500,2256176,0
1712041327276,1712041326540,2253927,0
1712041327276,1712041326580,2251478,0
1712041327276,1712041326620,2249514,0
1712041327276,1712041326660,2245223,0
1712041327276,1712041326700,2241654,0
1712041327276,1712041326740,2236261,0
1712041327276,1712041326780,2230440,0
1712041327276,1712041326820,2224419,0
1712041327276,1712041326860,2216914,0
1712041327276,1712041326900,2210329,0
1712041327276,1712041326940,2205214,0
1712041327276,1712041326980,2200133,0
1712041327276,1712041327020,2194073,0
1712041327276,1712041327060,2187150,0
1712041327276,1712041327100,2178363,0
1712041327276,1712041327140,2171565,0
1712041327276,1712041327180,2170081,0
1712041339290,1712041327217,2169090,0
1712041339290,1712041327258,2168037,0
1712041339290,1712041327297,2168775,0
1712041339290,1712041327338,2169931,0
1712041339290,1712041327379,2169717,0
1712041339290,1712041327418,2170543,0
1712041339290,1712041327458,2176020,0
1712041339290,1712041327498,2184909,0
1712041339290,1712041327538,2192283,0
1712041339290,1712041327579,2196271,0
1712041339290,1712041327619,2194708,0
1712041339290,1712041327659,2197321,0
1712041339290,1712041327699,2200235,0
1712041339290,1712041327739,2200655,0
1712041339290,1712041327780,2201689,0
1712041339290,1712041327819,2204511,0
1712041339290,1712041327859,2206070,0
1712041339290,1712041327899,2206637,0
1712041339290,1712041327939,2206991,0
1712041339290,1712041327981,2204364,0
1712041339290,1712041328020,2196656,0
1712041339290,1712041328060,2189164,0
1712041339290,1712041328100,2182955,0
1712041339290,1712041328140,2176430,0
1712041339290,1712041328181,2172419,0
1712041339290,1712041328220,2172817,0
1712041339290,1712041328260,2170776,0
1712041339290,1712041328301,2163665,0
1712041339290,1712041328341,2155741,0
1712041339290,1712041328382,2148697,0
1712041339290,1712041328421,2142298,0
1712041339290,1712041328461,2137265,0
1712041339290,1712041328501,2132931,0
1712041339290,1712041328541,2128769,0
1712041339290,1712041328583,2124016,0
1712041339290,1712041328622,2114995,0
1712041339290,1712041328662,2104752,0
1712041339290,1712041328702,2095672,0
1712041339290,1712041328742,2087659,0
1712041339290,1712041328783,2081345,0
1712041339290,1712041328822,2076121,0
1712041339290,1712041328862,2071064,0
1712041339290,1712041328903,2065663,0
1712041339290,1712041328943,2060222,0
1712041339290,1712041328984,2054931,0
1712041339290,1712041329023,2050037,0
1712041339290,1712041329063,2045671,0
1712041339290,1712041329103,2042617,0
1712041339290,1712041329143,2039993,0
1712041339290,1712041329185,2037410,0
1712041339290,1712041329224,2033189,0
1712041339290,1712041329264,2025087,0
1712041339290,1712041329304,2017093,0
1712041339290,1712041329344,2010899,0
1712041339290,1712041329385,2005881,0
1712041339290,1712041329424,2002503,0
1712041339290,1712041329464,2000046,0
1712041339290,1712041329505,1997393,0
1712041339290,1712041329545,1994480,0
1712041339290,1712041329586,1991753,0
1712041339290,1712041329625,1989620,0
1712041339290,1712041329665,1987913,0
1712041339290,1712041329705,1986659,0
1712041339290,1712041329745,1985701,0
1712041339290,1712041329787,1984843,0
1712041339290,1712041329826,1983846,0
1712041339290,1712041329866,1979524,0
1712041339290,1712041329906,1972648,0
1712041339290,1712041329946,1966742,0
1712041339290,1712041329987,1961962,0
1712041339290,1712041330026,1958297,0
1712041339290,1712041330066,1956047,0
1712041339290,1712041330107,1953559,0
1712041339290,1712041330148,1950516,0
1712041339290,1712041330188,1947830,0
1712041339290,1712041330227,1945536,0
1712041339290,1712041330267,1944234,0
1712041339290,1712041330307,1943606,0
1712041339290,1712041330347,1943355,0
1712041339290,1712041330389,1943598,0
1712041339290,1712041330428,1943778,0
1712041339290,1712041330468,1941503,0
1712041339290,1712041330508,1936204,0
1712041339290,1712041330548,1931367,0
1712041339290,1712041330589,1927812,0
1712041339290,1712041330629,1925197,0
1712041339290,1712041330669,1923788,0
1712041339290,1712041330709,1922462,0
1712041339290,1712041330749,1920782,0
1712041339290,1712041330790,1919251,0
1712041339290,1712041330829,1918047,0
1712041339290,1712041330869,1918508,0
1712041339290,1712041330909,1919269,0
1712041339290,1712041330949,1920150,0
1712041339290,1712041330991,1921284,0
1712041339290,1712041331030,1920418,0
1712041339290,1712041331070,1916066,0
1712041339290,1712041331110,1911950,0
1712041339290,1712041331150,1908892,0
1712041339290,1712041331191,1906884,0
1712041339290,1712041331230,1906103,0
1712041339290,1712041331270,1906108,0
1712041339290,1712041331310,1905839,0
1712041339290,1712041331350,1905383,0
1712041339290,1712041331391,1905460,0
1712041339290,1712041331431,1906008,0
1712041339290,1712041331471,1907039,0
1712041339290,1712041331511,1908562,0
1712041339290,1712041331551,1910294,0
1712041339290,1712041331592,1912174,0
1712041339290,1712041331631,1913968,0
1712041339290,1712041331671,1913038,0
1712041339290,1712041331711,1909700,0
1712041339290,1712041331751,1907138,0
1712041339290,1712041331792,1905782,0
1712041339290,1712041331832,1905466,0
1712041339290,1712041331872,1906155,0
1712041339290,1712041331912,1907093,0
1712041339290,1712041331952,1907582,0
1712041339290,1712041331993,1907922,0
1712041339290,1712041332032,1908938,0
1712041339290,1712041332072,1910355,0
1712041339290,1712041332112,1912308,0
1712041339290,1712041332152,1914577,0
1712041339290,1712041332194,1916925,0
1712041339290,1712041332233,1919537,0
1712041339290,1712041332273,1921805,0
1712041339290,1712041332313,1921059,0
1712041339290,1712041332353,1918923,0
1712041339290,1712041332394,1917826,0
1712041339290,1712041332433,1917575,0
1712041339290,1712041332473,1918107,0
1712041339290,1712041332513,1919737,0
1712041339290,1712041332554,1920971,0
1712041339290,1712041332594,1921939,0
1712041339290,1712041332634,1922998,0
1712041339290,1712041332674,1924201,0
1712041339290,1712041332714,1926057,0
1712041339290,1712041332754,1927966,0
1712041339290,1712041332795,1930178,0
1712041339290,1712041332834,1932599,0
1712041339290,1712041332874,1935028,0
1712041339290,1712041332915,1936091,0
1712041339290,1712041332955,1934324,0
1712041339290,1712041332995,1932625,0
1712041339290,1712041333035,1931971,0
1712041339290,1712041333075,1932312,0
1712041339290,1712041333115,1933361,0
1712041339290,1712041333157,1934587,0
1712041339290,1712041333196,1935155,0
1712041339290,1712041333236,1935528,0
1712041339290,1712041333276,1936349,0
1712041339290,1712041333316,1937254,0
1712041339290,1712041333356,1938553,0
1712041339290,1712041333397,1940242,0
1712041339290,1712041333436,1942079,0
1712041339290,1712041333476,1943974,0
1712041339290,1712041333517,1945328,0
1712041339290,1712041333557,1943961,0
1712041339290,1712041333598,1941393,0
1712041339290,1712041333637,1939897,0
1712041339290,1712041333677,1939070,0
1712041339290,1712041333717,1939267,0
1712041339290,1712041333757,1940037,0
1712041339290,1712041333798,1940451,0
1712041339290,1712041333838,1940525,0
1712041339290,1712041333878,1940694,0
1712041339290,1712041333918,1941527,0
1712041339290,1712041333958,1942428,0
1712041339290,1712041333999,1943798,0
1712041339290,1712041334038,1945364,0
1712041339290,1712041334078,1946926,0
1712041339290,1712041334119,1948697,0
1712041339290,1712041334159,1948973,0
1712041339290,1712041334199,1946331,0
1712041339290,1712041334239,1943677,0
1712041339290,1712041334279,1942054,0
1712041339290,1712041334319,1941233,0
1712041339290,1712041334359,1941150,0
1712041339290,1712041334400,1941445,0
1712041339290,1712041334440,1941340,0
1712041339290,1712041334480,1941043,0
1712041339290,1712041334520,1940930,0
1712041339290,1712041334560,1941326,0
1712041339290,1712041334601,1942107,0
1712041339290,1712041334640,1943235,0
1712041339290,1712041334680,1944674,0
1712041339290,1712041334721,1946282,0
1712041339290,1712041334761,1948002,0
1712041339290,1712041334801,1947601,0
1712041339290,1712041334841,1944651,0
1712041339290,1712041334881,1942372,0
1712041339290,1712041334921,1941030,0
1712041339290,1712041334962,1940811,0
1712041339290,1712041335002,1941101,0
1712041339290,1712041335042,1941610,0
1712041339290,1712041335082,1941564,0
1712041339290,1712041335122,1941434,0
1712041339290,1712041335162,1941731,0
1712041339290,1712041335203,1942410,0
1712041339290,1712041335242,1943486,0
1712041339290,1712041335282,1944874,0
1712041339290,1712041335323,1946222,0
1712041339290,1712041335363,1947850,0
1712041339290,1712041335403,1949171,0
1712041339290,1712041335443,1947668,0
1712041339290,1712041335483,1944797,0
1712041339290,1712041335523,1942758,0
1712041339290,1712041335563,1941735,0
1712041339290,1712041335604,1941453,0
1712041339290,1712041335643,1941894,0
1712041339290,1712041335683,1942074,0
1712041339290,1712041335723,1941905,0
1712041339290,1712041335763,1941780,0
1712041339290,1712041335804,1942150,0
1712041339290,1712041335843,1942975,0
1712041339290,1712041335883,1944216,0
1712041339290,1712041335923,1945584,0
1712041339290,1712041335963,1947200,0
1712041339290,1712041336004,1948725,0
1712041339290,1712041336044,1948440,0
1712041339290,1712041336083,1945516,0
1712041339290,1712041336124,1943085,0
1712041339290,1712041336165,1941577,0
1712041339290,1712041336204,1941164,0
1712041339290,1712041336244,1941425,0
1712041339290,1712041336284,1941633,0
1712041339290,1712041336324,1941040,0
1712041339290,1712041336364,1940517,0
1712041339290,1712041336405,1940451,0
1712041339290,1712041336444,1940719,0
1712041339290,1712041336484,1941483,0
1712041339290,1712041336524,1942258,0
1712041339290,1712041336564,1943360,0
1712041339290,1712041336605,1944118,0
1712041339290,1712041336644,1943251,0
1712041339290,1712041336684,1939470,0
1712041339290,1712041336724,1936158,0
1712041339290,1712041336765,1934004,0
1712041339290,1712041336805,1932799,0
1712041339290,1712041336845,1932690,0
1712041339290,1712041336885,1932244,0
1712041339290,1712041336925,1931314,0
1712041339290,1712041336965,1930325,0
1712041339290,1712041337006,1929880,0
1712041339290,1712041337045,1929906,0
1712041339290,1712041337085,1930116,0
1712041339290,1712041337125,1930690,0
1712041339290,1712041337165,1931349,0
1712041339290,1712041337206,1931832,0
1712041339290,1712041337245,1929877,0
1712041339290,1712041337285,1925260,0
1712041339290,1712041337325,1921197,0
1712041339290,1712041337365,1918177,0
1712041339290,1712041337406,1916215,0
1712041339290,1712041337446,1915591,0
1712041339290,1712041337486,1914700,0
1712041339290,1712041337526,1913319,0
1712041339290,1712041337566,1912057,0
1712041339290,1712041337607,1910918,0
1712041339290,1712041337646,1910555,0
1712041339290,1712041337687,1910786,0
1712041339290,1712041337727,1911166,0
1712041339290,1712041337767,1911871,0
1712041339290,1712041337808,1912652,0
1712041339290,1712041337847,1911036,0
1712041339290,1712041337887,1906532,0
1712041339290,1712041337927,1902616,0
1712041339290,1712041337967,1899745,0
1712041339290,1712041338008,1897826,0
1712041339290,1712041338047,1896940,0
1712041339290,1712041338088,1896328,0
1712041339290,1712041338128,1895314,0
1712041339290,1712041338168,1894334,0
1712041339290,1712041338209,1893764,0
1712041339290,1712041338248,1893813,0
1712041339290,1712041338288,1894248,0
1712041339290,1712041338328,1895138,0
1712041339290,1712041338368,1896213,0
1712041339290,1712041338409,1897506,0
1712041339290,1712041338449,1897818,0
1712041339290,1712041338489,1894594,0
1712041339290,1712041338529,1890559,0
1712041339290,1712041338569,1887887,0
1712041339290,1712041338610,1886138,0
1712041339290,1712041338649,1885603,0
1712041339290,1712041338689,1885806,0
1712041339290,1712041338729,1885612,0
1712041339290,1712041338770,1885192,0
1712041339290,1712041338810,1885102,0
1712041339290,1712041338850,1885827,0
1712041339290,1712041338890,1886908,0
1712041339290,1712041338930,1888286,0
1712041339290,1712041338970,1889824,0
1712041339290,1712041339011,1891651,0
1712041339290,1712041339050,1893597,0
1712041339290,1712041339090,1894700,0
1712041339290,1712041339130,1892323,0
1712041339290,1712041339172,1889235,0
1712041339290,1712041339211,1887722,0
1712041351314,1712041339251,1887046,0
1712041351314,1712041339291,1887477,0
1712041351314,1712041339331,1888797,0
1712041351314,1712041339371,1889597,0
1712041351314,1712041339412,1890019,0
1712041351314,1712041339451,1890817,0
1712041351314,1712041339491,1892052,0
1712041351314,1712041339532,1893575,0
1712041351314,1712041339572,1895273,0
1712041351314,1712041339612,1897099,0
1712041351314,1712041339652,1899021,0
1712041351314,1712041339692,1900978,0
1712041351314,1712041339732,1901277,0
1712041351314,1712041339772,1898816,0
1712041351314,1712041339813,1896725,0
1712041351314,1712041339852,1895815,0
1712041351314,1712041339893,1895844,0
1712041351314,1712041339933,1896616,0
1712041351314,1712041339973,1897351,0
1712041351314,1712041340014,1897452,0
1712041351314,1712041340053,1897519,0
1712041351314,1712041340093,1898139,0
1712041351314,1712041340133,1899074,0
1712041351314,1712041340173,1900209,0
1712041351314,1712041340214,1901700,0
1712041351314,1712041340254,1903453,0
1712041351314,1712041340294,1905280,0
1712041351314,1712041340334,1906884,0
1712041351314,1712041340374,1905540,0
1712041351314,1712041340415,1903012,0
1712041351314,1712041340454,1901560,0
1712041351314,1712041340494,1900948,0
1712041351314,1712041340534,1901070,0
1712041351314,1712041340575,1902005,0
1712041351314,1712041340615,1902630,0
1712041351314,1712041340655,1902927,0
1712041351314,1712041340695,1903366,0
1712041351314,1712041340735,1904296,0
1712041351314,1712041340775,1905533,0
1712041351314,1712041340816,1907145,0
1712041351314,1712041340856,1908922,0
1712041351314,1712041340896,1910911,0
1712041351314,1712041340936,1912880,0
1712041351314,1712041340976,1914472,0
1712041351314,1712041341017,1913399,0
1712041351314,1712041341056,1911279,0
1712041351314,1712041341096,1910041,0
1712041351314,1712041341136,1909710,0
1712041351314,1712041341176,1910331,0
1712041351314,1712041341217,1911189,0
1712041351314,1712041341257,1911897,0
1712041351314,1712041341297,1912455,0
1712041351314,1712041341337,1912963,0
1712041351314,1712041341377,1914141,0
1712041351314,1712041341418,1915590,0
1712041351314,1712041341457,1917117,0
1712041351314,1712041341497,1918965,0
1712041351314,1712041341537,1920706,0
1712041351314,1712041341578,1922748,0
1712041351314,1712041341619,1924429,0
1712041351314,1712041341658,1923639,0
1712041351314,1712041341698,1921674,0
1712041351314,1712041341738,1920371,0
1712041351314,1712041341778,1920113,0
1712041351314,1712041341819,1920673,0
1712041351314,1712041341858,1921786,0
1712041351314,1712041341899,1922840,0
1712041351314,1712041341939,1923557,0
1712041351314,1712041341979,1925027,0
1712041351314,1712041342020,1927175,0
1712041351314,1712041342059,1930609,0
1712041351314,1712041342099,1933549,0
1712041351314,1712041342139,1935966,0
1712041351314,1712041342181,1940044,0
1712041351314,1712041342220,1946580,0
1712041351314,1712041342260,1952920,0
1712041351314,1712041342300,1957263,0
1712041351314,1712041342340,1959845,0
1712041351314,1712041342380,1965634,0
1712041351314,1712041342421,1971119,0
1712041351314,1712041342461,1977032,0
1712041351314,1712041342501,1982830,0
1712041351314,1712041342541,1985882,0
1712041351314,1712041342581,1984884,0
1712041351314,1712041342622,1979116,0
1712041351314,1712041342661,1973357,0
1712041351314,1712041342701,1966730,0
1712041351314,1712041342742,1958029,0
1712041351314,1712041342782,1950773,0
1712041351314,1712041342822,1948231,0
1712041351314,1712041342862,1951368,0
1712041351314,1712041342902,1954898,0
1712041351314,1712041342942,1955865,0
1712041351314,1712041342982,1956618,0
1712041351314,1712041343023,1958994,0
1712041351314,1712041343063,1961796,0
1712041351314,1712041343103,1965204,0
1712041351314,1712041343143,1969206,0
1712041351314,1712041343183,1972943,0
1712041351314,1712041343224,1976176,0
1712041351314,1712041343263,1979712,0
1712041351314,1712041343303,1983479,0
1712041351314,1712041343343,1987750,0
1712041351314,1712041343384,1991874,0
1712041351314,1712041343424,1995809,0
1712041351314,1712041343464,1999293,0
1712041351314,1712041343504,2002799,0
1712041351314,1712041343544,2003501,0
1712041351314,1712041343584,2002688,0
1712041351314,1712041343625,2003180,0
1712041351314,1712041343664,2004788,0
1712041351314,1712041343705,2007067,0
1712041351314,1712041343745,2010194,0
1712041351314,1712041343785,2013906,0
1712041351314,1712041343826,2017544,0
1712041351314,1712041343865,2021024,0
1712041351314,1712041343905,2024941,0
1712041351314,1712041343946,2028395,0
1712041351314,1712041343986,2031109,0
1712041351314,1712041344027,2035240,0
1712041351314,1712041344066,2036082,0
1712041351314,1712041344106,2034639,0
1712041351314,1712041344146,2031126,0
1712041351314,1712041344186,2028766,0
1712041351314,1712041344227,2028018,0
1712041351314,1712041344266,2028689,0
1712041351314,1712041344306,2029041,0
1712041351314,1712041344347,2030196,0
1712041351314,1712041344387,2030451,0
1712041351314,1712041344427,2029714,0
1712041351314,1712041344467,2029893,0
1712041351314,1712041344507,2031207,0
1712041351314,1712041344547,2033356,0
1712041351314,1712041344587,2035560,0
1712041351314,1712041344628,2037050,0
1712041351314,1712041344667,2037979,0
1712041351314,1712041344707,2036857,0
1712041351314,1712041344747,2030220,0
1712041351314,1712041344788,2020246,0
1712041351314,1712041344829,2009498,0
1712041351314,1712041344868,2000496,0
1712041351314,1712041344908,1993537,0
1712041351314,1712041344948,1987721,0
1712041351314,1712041344988,1982292,0
1712041351314,1712041345029,1977072,0
1712041351314,1712041345068,1971940,0
1712041351314,1712041345108,1967587,0
1712041351314,1712041345148,1964124,0
1712041351314,1712041345190,1961097,0
1712041351314,1712041345229,1958277,0
1712041351314,1712041345269,1955823,0
1712041351314,1712041345309,1952430,0
1712041351314,1712041345349,1946425,0
1712041351314,1712041345389,1938046,0
1712041351314,1712041345430,1931062,0
1712041351314,1712041345469,1925805,0
1712041351314,1712041345509,1921511,0
1712041351314,1712041345550,1918754,0
1712041351314,1712041345589,1915901,0
1712041351314,1712041345630,1912255,0
1712041351314,1712041345670,1908856,0
1712041351314,1712041345710,1906396,0
1712041351314,1712041345750,1904467,0
1712041351314,1712041345790,1903279,0
1712041351314,1712041345831,1902252,0
1712041351314,1712041345870,1901017,0
1712041351314,1712041345910,1899762,0
1712041351314,1712041345950,1896170,0
1712041351314,1712041345990,1890262,0
1712041351314,1712041346031,1884759,0
1712041351314,1712041346071,1880639,0
1712041351314,1712041346111,1877351,0
1712041351314,1712041346151,1875552,0
1712041351314,1712041346191,1874349,0
1712041351314,1712041346232,1872796,0
1712041351314,1712041346271,1870948,0
1712041351314,1712041346311,1869366,0
1712041351314,1712041346351,1868410,0
1712041351314,1712041346392,1868259,0
1712041351314,1712041346432,1868326,0
1712041351314,1712041346472,1868932,0
1712041351314,1712041346512,1869043,0
1712041351314,1712041346552,1865789,0
1712041351314,1712041346592,1860652,0
1712041351314,1712041346633,1856767,0
1712041351314,1712041346672,1854432,0
1712041351314,1712041346712,1852946,0
1712041351314,1712041346753,1852461,0
1712041351314,1712041346793,1851996,0
1712041351314,1712041346833,1851023,0
1712041351314,1712041346873,1850402,0
1712041351314,1712041346913,1850204,0
1712041351314,1712041346953,1850582,0
1712041351314,1712041346993,1851525,0
1712041351314,1712041347034,1853033,0
1712041351314,1712041347073,1854307,0
1712041351314,1712041347113,1854406,0
1712041351314,1712041347153,1851643,0
1712041351314,1712041347193,1848750,0
1712041351314,1712041347234,1847013,0
1712041351314,1712041347274,1846503,0
1712041351314,1712041347314,1847089,0
1712041351314,1712041347354,1848096,0
1712041351314,1712041347397,1848653,0
1712041351314,1712041347435,1848918,0
1712041351314,1712041347474,1849785,0
1712041351314,1712041347514,1851181,0
1712041351314,1712041347555,1852882,0
1712041351314,1712041347595,1854883,0
1712041351314,1712041347636,1857123,0
1712041351314,1712041347675,1859394,0
1712041351314,1712041347715,1859681,0
1712041351314,1712041347755,1857535,0
1712041351314,1712041347795,1856186,0
1712041351314,1712041347836,1856020,0
1712041351314,1712041347876,1856577,0
1712041351314,1712041347916,1858064,0
1712041351314,1712041347956,1859512,0
1712041351314,1712041347996,1860716,0
1712041351314,1712041348037,1861849,0
1712041351314,1712041348076,1863116,0
1712041351314,1712041348116,1864728,0
1712041351314,1712041348156,1866892,0
1712041351314,1712041348198,1869212,0
1712041351314,1712041348237,1871493,0
1712041351314,1712041348277,1873810,0
1712041351314,1712041348317,1873884,0
1712041351314,1712041348357,1872159,0
1712041351314,1712041348397,1871297,0
1712041351314,1712041348438,1871435,0
1712041351314,1712041348477,1872430,0
1712041351314,1712041348518,1874137,0
1712041351314,1712041348558,1875442,0
1712041351314,1712041348598,1876624,0
1712041351314,1712041348639,1877624,0
1712041351314,1712041348678,1879108,0
1712041351314,1712041348718,1880753,0
1712041351314,1712041348758,1882781,0
1712041351314,1712041348799,1884828,0
1712041351314,1712041348839,1887018,0
1712041351314,1712041348879,1888597,0
1712041351314,1712041348919,1887979,0
1712041351314,1712041348959,1886536,0
1712041351314,1712041348999,1886001,0
1712041351314,1712041349040,1886207,0
1712041351314,1712041349079,1887274,0
1712041351314,1712041349120,1888581,0
1712041351314,1712041349160,1889590,0
1712041351314,1712041349200,1890467,0
1712041351314,1712041349241,1891380,0
1712041351314,1712041349280,1892615,0
1712041351314,1712041349320,1894172,0
1712041351314,1712041349360,1895963,0
1712041351314,1712041349401,1897833,0
1712041351314,1712041349441,1899945,0
1712041351314,1712041349481,1901742,0
1712041351314,1712041349521,1901152,0
1712041351314,1712041349561,1899859,0
1712041351314,1712041349604,1899364,0
1712041351314,1712041349642,1899784,0
1712041351314,1712041349682,1900706,0
1712041351314,1712041349722,1902106,0
1712041351314,1712041349762,1903165,0
1712041351314,1712041349802,1904043,0
1712041351314,1712041349843,1904981,0
1712041351314,1712041349882,1906385,0
1712041351314,1712041349922,1907846,0
1712041351314,1712041349963,1909660,0
1712041351314,1712041350003,1911660,0
1712041351314,1712041350044,1913625,0
1712041351314,1712041350083,1915408,0
1712041351314,1712041350123,1915421,0
1712041351314,1712041350163,1914160,0
1712041351314,1712041350203,1913250,0
1712041351314,1712041350244,1913261,0
1712041351314,1712041350284,1913931,0
1712041351314,1712041350324,1914959,0
1712041351314,1712041350364,1915793,0
1712041351314,1712041350404,1916700,0
1712041351314,1712041350445,1917482,0
1712041351314,1712041350484,1918631,0
1712041351314,1712041350524,1919996,0
1712041351314,1712041350565,1921347,0
1712041351314,1712041350605,1923070,0
1712041351314,1712041350645,1924868,0
1712041351314,1712041350685,1926773,0
1712041351314,1712041350725,1928163,0
1712041351314,1712041350765,1927424,0
1712041351314,1712041350805,1926128,0
1712041351314,1712041350846,1925940,0
1712041351314,1712041350885,1926434,0
1712041351314,1712041350925,1927324,0
1712041351314,1712041350966,1928257,0
1712041351314,1712041351006,1929301,0
1712041351314,1712041351046,1930046,0
1712041351314,1712041351086,1931109,0
1712041351314,1712041351126,1932390,0
1712041351314,1712041351166,1934070,0
1712041351314,1712041351208,1935667,0
1712041351314,1712041351247,1937261,0
1712041363345,1712041351287,1938661,0
1712041363345,1712041351328,1940288,0
1712041363345,1712041351367,1940628,0
1712041363345,1712041351408,1939191,0
1712041363345,1712041351448,1937949,0
1712041363345,1712041351488,1937447,0
1712041363345,1712041351528,1937573,0
1712041363345,1712041351568,1938509,0
1712041363345,1712041351608,1939315,0
1712041363345,1712041351649,1939593,0
1712041363345,1712041351688,1939795,0
1712041363345,1712041351728,1940314,0
1712041363345,1712041351768,1941003,0
1712041363345,1712041351809,1941707,0
1712041363345,1712041351849,1942593,0
1712041363345,1712041351889,1943582,0
1712041363345,1712041351929,1944773,0
1712041363345,1712041351969,1944747,0
1712041363345,1712041352009,1942660,0
1712041363345,1712041352050,1940898,0
1712041363345,1712041352089,1939828,0
1712041363345,1712041352129,1939169,0
1712041363345,1712041352169,1939167,0
1712041363345,1712041352209,1938912,0
1712041363345,1712041352250,1938340,0
1712041363345,1712041352290,1937957,0
1712041363345,1712041352330,1937542,0
1712041363345,1712041352370,1937395,0
1712041363345,1712041352410,1937838,0
1712041363345,1712041352451,1938941,0
1712041363345,1712041352490,1940168,0
1712041363345,1712041352530,1941427,0
1712041363345,1712041352570,1940573,0
1712041363345,1712041352610,1938670,0
1712041363345,1712041352651,1938248,0
1712041363345,1712041352691,1939545,0
1712041363345,1712041352731,1941939,0
1712041363345,1712041352771,1944824,0
1712041363345,1712041352811,1947186,0
1712041363345,1712041352852,1948529,0
1712041363345,1712041352891,1948991,0
1712041363345,1712041352931,1949410,0
1712041363345,1712041352971,1950260,0
1712041363345,1712041353012,1951075,0
1712041363345,1712041353052,1952231,0
1712041363345,1712041353092,1953542,0
1712041363345,1712041353132,1954429,0
1712041363345,1712041353172,1952937,0
1712041363345,1712041353212,1950004,0
1712041363345,1712041353253,1947946,0
1712041363345,1712041353292,1946874,0
1712041363345,1712041353332,1946769,0
1712041363345,1712041353372,1947533,0
1712041363345,1712041353413,1948237,0
1712041363345,1712041353453,1949141,0
1712041363345,1712041353493,1949924,0
1712041363345,1712041353533,1950797,0
1712041363345,1712041353573,1951031,0
1712041363345,1712041353613,1950812,0
1712041363345,1712041353654,1950701,0
1712041363345,1712041353693,1950860,0
1712041363345,1712041353733,1951311,0
1712041363345,1712041353774,1949314,0
1712041363345,1712041353814,1945214,0
1712041363345,1712041353855,1941955,0
1712041363345,1712041353894,1939846,0
1712041363345,1712041353934,1938425,0
1712041363345,1712041353974,1937964,0
1712041363345,1712041354014,1937180,0
1712041363345,1712041354055,1936189,0
1712041363345,1712041354095,1935556,0
1712041363345,1712041354135,1935331,0
1712041363345,1712041354175,1935577,0
1712041363345,1712041354216,1936367,0
1712041363345,1712041354256,1937328,0
1712041363345,1712041354295,1938097,0
1712041363345,1712041354335,1939057,0
1712041363345,1712041354375,1939704,0
1712041363345,1712041354416,1937872,0
1712041363345,1712041354456,1935031,0
1712041363345,1712041354496,1932914,0
1712041363345,1712041354536,1931968,0
1712041363345,1712041354576,1931672,0
1712041363345,1712041354616,1932232,0
1712041363345,1712041354657,1932662,0
1712041363345,1712041354697,1932709,0
1712041363345,1712041354736,1933051,0
1712041363345,1712041354777,1934106,0
1712041363345,1712041354817,1935404,0
1712041363345,1712041354858,1936932,0
1712041363345,1712041354897,1938638,0
1712041363345,1712041354937,1940492,0
1712041363345,1712041354977,1942470,0
1712041363345,1712041355017,1944204,0
1712041363345,1712041355058,1943187,0
1712041363345,1712041355098,1939144,0
1712041363345,1712041355138,1932666,0
1712041363345,1712041355178,1928151,0
1712041363345,1712041355218,1926626,0
1712041363345,1712041355259,1927330,0
1712041363345,1712041355298,1930645,0
1712041363345,1712041355338,1935113,0
1712041363345,1712041355379,1939508,0
1712041363345,1712041355419,1943329,0
1712041363345,1712041355460,1946507,0
1712041363345,1712041355499,1950182,0
1712041363345,1712041355539,1953639,0
1712041363345,1712041355579,1956658,0
1712041363345,1712041355619,1959498,0
1712041363345,1712041355660,1961811,0
1712041363345,1712041355700,1962026,0
1712041363345,1712041355740,1961725,0
1712041363345,1712041355780,1962502,0
1712041363345,1712041355820,1964014,0
1712041363345,1712041355861,1966062,0
1712041363345,1712041355900,1968374,0
1712041363345,1712041355940,1970262,0
1712041363345,1712041355980,1971700,0
1712041363345,1712041356021,1973551,0
1712041363345,1712041356061,1975497,0
1712041363345,1712041356101,1977762,0
1712041363345,1712041356141,1979991,0
1712041363345,1712041356181,1982542,0
1712041363345,1712041356221,1985204,0
1712041363345,1712041356262,1987580,0
1712041363345,1712041356302,1988469,0
1712041363345,1712041356342,1987925,0
1712041363345,1712041356382,1987932,0
1712041363345,1712041356422,1988700,0
1712041363345,1712041356463,1990075,0
1712041363345,1712041356502,1991867,0
1712041363345,1712041356542,1993893,0
1712041363345,1712041356582,1995600,0
1712041363345,1712041356623,1997191,0
1712041363345,1712041356663,1999015,0
1712041363345,1712041356703,2000876,0
1712041363345,1712041356743,2002961,0
1712041363345,1712041356783,2005046,0
1712041363345,1712041356823,2007285,0
1712041363345,1712041356864,2009309,0
1712041363345,1712041356904,2009589,0
1712041363345,1712041356944,2009788,0
1712041363345,1712041356984,2010565,0
1712041363345,1712041357024,2011584,0
1712041363345,1712041357065,2013027,0
1712041363345,1712041357104,2014317,0
1712041363345,1712041357144,2015276,0
1712041363345,1712041357184,2016351,0
1712041363345,1712041357226,2017226,0
1712041363345,1712041357265,2018150,0
1712041363345,1712041357305,2018845,0
1712041363345,1712041357345,2019688,0
1712041363345,1712041357385,2021027,0
1712041363345,1712041357425,2022650,0
1712041363345,1712041357466,2024004,0
1712041363345,1712041357505,2023909,0
1712041363345,1712041357545,2022329,0
