Timestamp,Cleaned_PPG
1712124649093,0.0
1712124649134,0.0
1712124649173,0.0
1712124649213,0.0
1712124649253,0.0
1712124649294,0.0
1712124649335,0.0
1712124649374,0.0
1712124649414,0.0
1712124649454,0.0
1712124649494,0.0
1712124649535,0.0
1712124649574,0.0
1712124649614,0.0
1712124649655,0.0
1712124649694,0.0
1712124649736,0.0
1712124649775,0.0
1712124649815,0.0
1712124649855,0.0
1712124649895,0.0
1712124649936,0.0
1712124649975,0.0
1712124650015,0.0
1712124650055,0.0
1712124650095,0.0
1712124650137,0.0
1712124650176,0.0
1712124650218,0.0
1712124650256,0.0
1712124650296,0.0
1712124650337,0.0
1712124650376,2125304.0
1712124650416,1994005.0314799373
1712124650456,1870816.978453382
1712124650497,1755424.0807740092
1712124650537,1647021.7248777957
1712124650577,1545524.6680642334
1712124650617,1450305.5559858873
1712124650657,1360806.6579340447
1712124650697,1277087.2824299498
1712124650738,1198057.8692834447
1712124650777,1123035.9016656282
1712124650817,1053446.8765382916
1712124650858,987847.9556227461
1712124650898,929021.4523461098
1712124650939,873763.7461937824
1712124650978,822725.5802407986
1712124651019,771006.2578560268
1712124651058,718175.0405007908
1712124651098,663654.8089303253
1712124651139,624715.2452723277
1712124651178,591511.0864178888
1712124651219,558354.03217221
1712124651259,522761.2256769191
1712124651299,491017.14606141415
1712124651340,468471.7973527461
1712124651379,445258.298524942
1712124651419,398779.1556845431
1712124651459,374535.70101257786
1712124651499,350480.7440012549
1712124651540,312753.80655308464
1712124651580,292159.24094945984
1712124651620,278670.7871719219
1712124651660,266651.14539259346
1712124651700,251682.01411104086
1712124651741,230405.50574731128
1712124651780,221741.7097886291
1712124651820,218895.28188563185
1712124651860,212529.9776360239
1712124651900,203012.4339272594
1712124651941,193125.34189601126
1712124651981,186432.2971385112
1712124652022,180027.6701776865
1712124652061,174099.63204896473
1712124652101,162196.20936169662
1712124652142,156071.14396984875
1712124652181,150130.88545775926
1712124652222,148286.97493455512
1712124652262,151335.35564887244
1712124652302,170881.76407168922
1712124652342,176093.1558583565
1712124652382,170407.62517275685
1712124652425,149271.49945411878
1712124652462,119947.55601647776
1712124652502,93194.07269416051
1712124652543,82059.03784583835
1712124652583,74919.80886793835
1712124652623,52997.65745175816
1712124652663,46525.553584097885
1712124652703,62159.41305297613
1712124652744,56610.09214754985
1712124652783,64626.332448395435
1712124652823,76273.16892255913
1712124652863,78068.07095861528
1712124652904,71426.54878882808
1712124652944,63361.28050723346
1712124652984,59256.21437984705
1712124653025,64706.29276558198
1712124653064,56553.922952745575
1712124653104,40283.23492124397
1712124653145,28719.66273551993
1712124653184,22932.241777619347
1712124653225,20439.44368616026
1712124653265,13381.760592084378
1712124653305,8293.6370548876
1712124653346,3323.896341464948
1712124653385,2274.2018872927874
1712124653425,-1572.3044915609062
1712124653465,-7038.223176326137
1712124653506,-12986.922248152085
1712124653546,-23647.297405029647
1712124653586,-45098.69872021349
1712124653626,-52469.29207250476
1712124653666,-51694.11669774633
1712124653706,-39619.32615661854
1712124653747,-20597.831042592414
1712124653786,-21.195553089492023
1712124653826,12622.174873427022
1712124653867,13350.223258101847
1712124653907,21529.1284482684
1712124653947,18732.899206348695
1712124653987,19892.179299221374
1712124654028,19342.38344419794
1712124654067,17531.207227133214
1712124654107,17306.63860626798
1712124654148,16385.001966990996
1712124654188,14937.380012909882
1712124654228,13754.825697851833
1712124654268,12330.930699945427
1712124654308,11386.227291029878
1712124654349,10727.108822112437
1712124654388,10589.032506688498
1712124654428,10218.323316603899
1712124654469,10378.6478520073
1712124654509,10882.635442815255
1712124654549,11007.089412312955
1712124654589,10838.602413042448
1712124654629,10830.524755420629
1712124654669,10541.474211859051
1712124654709,9746.031861780211
1712124654750,9111.784915768076
1712124654790,7990.756526400335
1712124654830,6610.80177086778
1712124654870,5597.649635731243
1712124654910,4606.5104633793235
1712124654951,4573.436561894137
1712124654990,4680.966990447603
1712124655032,5114.829892794136
1712124655071,5181.16859808797
1712124655111,4929.492436498869
1712124655151,5403.745601473842
1712124655191,5940.54827330308
1712124655231,6153.180542579386
1712124655271,6879.777573790867
1712124655311,6989.562677963171
1712124655352,6302.034277846105
1712124655392,6379.9933505915105
1712124655432,6632.570610009134
1712124655472,7017.000734602101
1712124655512,7092.167622365989
1712124655553,6050.154100045562
1712124655592,5101.616065336391
1712124655632,3924.798443595879
1712124655673,2955.74185911566
1712124655713,2310.7015609843656
1712124655754,2389.195326369256
1712124655794,2140.845841415692
1712124655834,1865.6227047350258
1712124655874,2569.1618688041344
1712124655914,3697.637651797384
1712124655955,3803.003862236161
1712124655994,4359.306189075112
1712124656035,4967.758319541812
1712124656074,5297.7154474970885
1712124656114,5565.265695785172
1712124656155,5943.272065896075
1712124656195,6814.824430544395
1712124656235,6720.001438088715
1712124656275,5937.51911849156
1712124656315,4092.675274454057
1712124656355,2827.217378512025
1712124656395,1827.2502732379362
1712124656435,291.5955563671887
1712124656475,130.97404567012563
1712124656515,35.276951173786074
1712124656556,-153.7811523405835
1712124656595,132.77893571648747
1712124656636,1021.2686454332434
1712124656676,803.4701922107488
1712124656716,954.5229174187407
1712124656757,1359.9148591072299
1712124656796,1486.0592592293397
1712124656836,1890.9456268097274
1712124656876,2673.924149107188
1712124656916,2901.0149560794234
1712124656957,3514.0694646453485
1712124656996,3799.0948138493113
1712124657038,2908.1780594643205
1712124657076,1251.8581702765077
1712124657117,52.5407000631094
1712124657157,-1173.5225598108955
1712124657197,-2126.233160033822
1712124657237,-2032.684889272321
1712124657277,-1575.5608199443668
1712124657317,-1731.17960843537
1712124657358,-2091.9248192720115
1712124657397,-2351.5336179323494
1712124657437,-2538.3370840856805
1712124657477,-2869.591751032509
1712124657517,-2923.727561573498
1712124657558,-2526.2837336766534
1712124657598,-2121.3986490806565
1712124657638,-1338.2409253050573
1712124657678,-844.407588138245
1712124657718,324.4364856276661
1712124657759,451.91278563579544
1712124657798,-466.9523689239286
1712124657838,-1803.5463408315554
1712124657878,-3797.1850756229833
1712124657918,-4447.600497907028
1712124657959,-4447.05327192042
1712124657999,-4547.041328345891
1712124658040,-4299.079982987139
1712124658079,-4328.415421840735
1712124658119,-4464.9417065819725
1712124658160,-4728.935643122997
1712124658199,-4074.7446228829212
1712124658239,-3894.9767102170736
1712124658279,-3483.178562844172
1712124658320,-3616.5666182716377
1712124658360,-2715.8327046111226
1712124658400,-1995.3627076335251
1712124658440,-1748.7487742053345
1712124658480,-1049.0097614927217
1712124658520,-848.08611649042
1712124658561,-2346.8955893688835
1712124658600,-3606.515063574072
1712124658640,-4321.303964075632
1712124658681,-4704.533770623617
1712124658721,-5213.573300086893
1712124658762,-4926.20175035065
1712124658801,-4683.712223047391
1712124658841,-4697.914896669798
1712124658881,-4350.920927109662
1712124658921,-4534.6798679730855
1712124658962,-4361.748023473658
1712124659001,-3974.5338621083647
1712124659042,-3532.3678786852397
1712124659082,-3067.691741416231
1712124659122,-1853.9394842619076
1712124659163,-980.0223890696652
1712124659202,-687.8181993919425
1712124659242,-834.5443770159036
1712124659282,-2199.4989486820996
1712124659322,-3482.7361368099228
1712124659363,-4431.8522839117795
1712124659402,-5078.9036854868755
1712124659442,-5294.416484201327
1712124659482,-5428.5069183888845
1712124659523,-4552.351954283193
1712124659563,-4311.361015268136
1712124659603,-4349.285107552074
1712124659643,-4651.146856575273
1712124659683,-4497.878089676611
1712124659723,-3709.5478456243873
1712124659764,-3915.6674090735614
1712124659803,-3796.786069025751
1712124659844,-3482.345975408796
1712124659884,-3102.758730159141
1712124659924,-2286.540477270726
1712124659965,-2772.6536340210587
1712124660004,-3938.3329281769693
1712124660044,-4975.197145041078
1712124660084,-5896.737169907428
1712124660125,-6567.583509181626
1712124660165,-6730.098841864616
1712124660205,-6756.190105132759
1712124660245,-6881.563552058302
1712124660285,-7252.160849562846
1712124660325,-7090.575539267156
1712124660366,-6784.820234175306
1712124660405,-6269.951777734794
1712124660445,-5736.372489666566
1712124660485,-5485.600969182793
1712124660525,-5577.95542313531
1712124660566,-4846.36932155909
1712124660606,-4351.284454665147
1712124660646,-3738.386795659084
1712124660686,-4590.338051549159
1712124660726,-5661.617975989357
1712124660767,-6825.913166165352
1712124660806,-7636.0472842035815
1712124660846,-8811.658119577914
1712124660886,-8758.981533712707
1712124660927,-7903.3050104007125
1712124660968,-7666.73191397544
1712124661007,-7671.966893816367
1712124661048,-7398.269453193061
1712124661087,-6845.253198419698
1712124661180,-6181.481222925708
1712124661221,-5516.653601276688
1712124661261,-5457.788749366067
1712124661301,-4909.030883944593
1712124661341,-4772.400250167586
1712124661381,-4348.840410239063
1712124661422,-3578.082720884122
1712124661461,-3541.7591206301004
1712124661501,-5293.47082858067
1712124661541,-6591.658441522159
1712124661582,-7922.886598576792
1712124661623,-8669.431187105365
1712124661662,-9484.260203180835
1712124661702,-9591.31180614885
1712124661742,-9893.139853684232
1712124661782,-9714.782983042765
1712124661823,-9795.176735536195
1712124661863,-9837.940208423883
1712124661903,-9014.329561691731
1712124661943,-8412.445065380074
1712124661983,-7534.522841643076
1712124662024,-6642.339867664035
1712124662063,-6413.970624948852
1712124662103,-5786.989843227901
1712124662143,-5823.920666403137
1712124662184,-4421.8912373408675
1712124662224,-3221.5400242512114
1712124662264,-3471.443759198766
1712124662304,-4592.3277848702855
1712124662344,-5583.207861512434
1712124662384,-6078.939989413135
1712124662425,-6883.645456832834
1712124662465,-6686.716285773087
1712124662505,-6571.597799925134
1712124662545,-6169.663740674499
1712124662585,-5648.316480269656
1712124662626,-5303.824809196405
1712124662665,-4909.025432684459
1712124662705,-4545.764507203363
1712124662745,-4342.298354394734
1712124662785,-3362.7270451551303
1712124662826,-2765.057553219609
1712124662866,-1657.8309414256364
1712124662906,-827.5240775728598
1712124662946,-80.04223654884845
1712124662986,820.020348359365
1712124663027,776.1215291093104
1712124663066,-335.4901815834455
1712124663106,-1436.499117989093
1712124663146,-2142.3883604882285
1712124663186,-2697.7445052592084
1712124663227,-3153.0642288383096
1712124663266,-3718.288575193379
1712124663307,-3805.932662099134
1712124663347,-3009.98143150378
1712124663387,-2978.39220871171
1712124663428,-2353.2228341931477
1712124663467,-2135.9095721570775
1712124663507,-2075.9817052278668
1712124663547,-1860.967341019772
1712124663587,-1648.2208722280338
1712124663628,-1433.1404960583895
1712124663668,-498.6580283921212
1712124663708,804.152463064529
1712124663748,1201.4208175675012
1712124663788,1327.4535700324923
1712124663829,1471.7538402038626
1712124663868,170.3018341655843
1712124663909,-982.1239694971591
1712124663949,-1499.6486314628273
1712124663989,-1981.837296757847
1712124664030,-2209.3720455542207
1712124664070,-2358.697552282829
1712124664111,-1705.2661603484303
1712124664150,-1876.876893042121
1712124664190,-2058.162345936522
1712124664231,-1409.3702029064298
1712124664271,-1350.0602965541184
1712124664311,-1190.7999135022983
1712124664351,-754.8066731877625
1712124664391,-611.8061659922823
1712124664432,338.123283399269
1712124664472,208.97941240807995
1712124664512,1393.3694361560047
1712124664552,2784.465078691952
1712124664592,4339.678772327956
1712124664633,4068.8666427070275
1712124664673,5048.979416021146
1712124664713,3342.601030443795
1712124664753,4736.507325616665
1712124664793,5579.17270788271
1712124664834,5983.917414074764
1712124664874,6867.302283593919
1712124664914,6952.910979011096
1712124664955,7196.251236055978
1712124664995,6314.408655046485
1712124665036,5192.1334749646485
1712124665075,4712.80911434954
1712124665116,5379.20453268569
1712124665156,5532.885114717763
1712124665196,6231.50979130622
1712124665237,6696.7505996790715
1712124665277,6694.423962077592
1712124665317,7425.345516289119
1712124665357,8428.349631110206
1712124665397,9119.724100168794
1712124665438,10215.452297679614
1712124665478,11437.888163030613
1712124665518,11500.85586581286
1712124665558,10192.853454032913
1712124665599,10018.773169538472
1712124665640,8384.807297074702
1712124665679,8312.238656900823
1712124665719,7367.5972856506705
1712124665760,8570.293670883402
1712124665800,8196.782236238476
1712124665841,8397.21127505228
1712124665880,8005.816385803744
1712124665921,9279.055194745772
1712124665962,9410.092897486873
1712124666002,11545.102820341475
1712124666043,9360.505769008305
1712124666082,9191.983772921842
1712124666123,9581.85168727953
1712124666163,9442.839282197878
1712124666203,11223.206182399765
1712124666244,11526.975285782479
1712124666284,11953.571985805873
1712124666324,11962.628903584555
1712124666364,10974.291820726357
1712124666404,8931.376626683865
1712124666445,8860.896100120153
1712124666485,9020.410903433803
1712124666525,8317.983233024366
1712124666565,8969.839590977877
1712124666606,8398.321208728477
1712124666647,7665.425804284401
1712124666686,6647.883227002341
1712124666726,7166.996753491461
1712124666767,7477.7629381148145
1712124666807,7725.867333538365
1712124666847,8379.010005816352
1712124666887,7566.914206715301
1712124666927,7993.935197826009
1712124666967,7753.10049566254
1712124667007,7461.996113576926
1712124667048,8014.475456125103
1712124667088,7468.830106711015
1712124667129,7479.548827989493
1712124667168,6890.151723206043
1712124667208,6450.626179094426
1712124667249,6213.811546621844
1712124667289,6650.212228724733
1712124667329,8697.161720417906
1712124667369,10617.90202769544
1712124667409,11706.690456825309
1712124667450,12729.981836391613
1712124667490,13039.899156330153
1712124667530,13512.268148963805
1712124667570,14331.61141103413
1712124667610,14866.421863163356
1712124667651,15819.435883240309
1712124667690,15247.32475061249
1712124667731,16050.001372302882
1712124667771,15774.900013513863
1712124667811,16414.666438289452
1712124667852,17272.694752622396
1712124667892,17812.07902518101
1712124667932,17566.19157639891
1712124667972,16802.999977399595
1712124668012,15998.192319706082
1712124668053,15639.710279267747
1712124668092,14988.25664138794
1712124668133,14442.8718851991
1712124668173,13930.756853569299
1712124668213,14030.025267052464
1712124668254,13680.903138997499
1712124668294,14093.674929778092
1712124668334,13170.662819510326
1712124668374,13304.716911166906
1712124668415,12443.14832535386
1712124668456,12307.092739819083
1712124668496,12106.670378811657
1712124668536,12818.00121375639
1712124668576,12312.003748453222
1712124668616,11242.57181870751
1712124668657,11015.593406718224
1712124668697,10926.974177238997
1712124668737,11089.54761666432
1712124668777,10457.065154558513
1712124668817,9905.128116559703
1712124668859,8064.089906379115
1712124668898,6963.06511277426
1712124668938,5830.148789923638
1712124668979,5234.734302549623
1712124669019,4689.288359879982
1712124669060,4262.3144346401095
1712124669099,4275.727585992776
1712124669139,3593.316388633568
1712124669180,3881.8636724571697
1712124669220,4012.0037083514035
1712124669261,3949.9416544428095
1712124669301,4964.790731343441
1712124669341,4700.2128147822805
1712124669381,3638.568870065734
1712124669421,4635.474168623798
1712124669462,4228.261705988087
1712124669502,4459.248295926489
1712124669542,4842.555906790774
1712124669582,5465.721966636367
1712124669622,4002.5899747582152
1712124669663,2695.8286240422167
1712124669703,1883.947945155669
1712124669743,1047.5807808903046
1712124669783,-169.98064745636657
1712124669824,-1534.5344832576811
1712124669865,-1318.9976492845453
1712124669904,-1183.770050888881
1712124669945,-1854.59477161197
1712124669985,-1612.4590187137946
1712124670025,-2132.3573078117333
1712124670066,-2208.5244532693177
1712124670106,-2739.9344097012654
1712124670147,-2256.65074674692
1712124670186,-1881.5582038322464
1712124670226,-1487.5928267468698
1712124670267,-476.80167826404795
1712124670307,4.9115053419955075
1712124670347,494.32815248705447
1712124670387,303.44144563796
1712124670427,-1210.7934677619487
1712124670468,-2983.164181689732
1712124670508,-5095.808257614262
1712124670548,-5852.160413876176
1712124670588,-7838.821571966633
1712124670628,-7985.626286379527
1712124670669,-5835.439843676519
1712124670708,-7572.279125500005
1712124670749,-7261.6983816847205
1712124670789,-7725.006175610237
1712124670829,-8061.775283141062
1712124670870,-8342.9425263796
1712124670910,-7323.780529770069
1712124670950,-7140.579709830694
1712124670990,-6789.531088237651
1712124671030,-6377.302275475115
1712124671071,-6012.572411778849
1712124671110,-5025.251227506902
1712124671151,-4762.713860496413
1712124671191,-4019.3818165152334
1712124671231,-4595.652473913971
1712124671272,-7000.9460263545625
1712124671311,-9390.387010302395
1712124671351,-10844.46955278702
1712124671392,-12181.473216097802
1712124671432,-13118.672550858464
1712124671473,-12951.65331965778
1712124671512,-13992.005561982282
1712124671552,-13962.906762107275
1712124671593,-16375.573553202208
1712124671633,-15577.247250235174
1712124671674,-16562.206337515265
1712124671713,-16108.274899783544
1712124671754,-15719.934635595884
1712124671794,-15042.709984689951
1712124671834,-14271.314782082103
1712124671875,-13609.862171175424
1712124671915,-12187.733880800195
1712124671955,-12643.990198033862
1712124671995,-10749.229317516088
1712124672035,-9836.137859784998
1712124672076,-10568.752119217068
1712124672116,-12139.469868493266
1712124672156,-13397.993188980035
1712124672196,-14975.65699960012
1712124672237,-15598.028805284295
1712124672278,-16427.920535651036
1712124672317,-16255.098137517925
1712124672358,-15864.604546182789
1712124672398,-16671.509109896608
1712124672438,-16603.21064004954
1712124672479,-17129.67243447341
1712124672518,-16721.846829571296
1712124672559,-15865.086642968468
1712124672599,-15470.328105259687
1712124672639,-14937.701175560709
1712124672680,-14029.020566333085
1712124672720,-12741.542361298576
1712124672760,-11521.954432829283
1712124672800,-9819.685344601516
1712124672841,-8736.299535449594
1712124672881,-7032.0242260294035
1712124672921,-9341.709312681574
1712124672961,-9957.192758670077
1712124673002,-10985.1300106477
1712124673042,-11786.075200977735
1712124673083,-12023.223798894323
1712124673122,-11355.038081045263
1712124673164,-12573.657811516896
1712124673203,-12817.003957250156
1712124673249,-12866.689591682516
1712124673290,-12615.14845294552
1712124673329,-12693.05374742765
1712124673369,-11861.692025464028
1712124673409,-11411.78014862677
1712124673450,-11093.550183971412
1712124673490,-9999.554638974834
1712124673530,-9265.537059902214
1712124673570,-8366.00133850472
1712124673610,-7442.411091245245
1712124673650,-6464.628597793169
1712124673691,-5687.183138856199
1712124673730,-6921.932934208773
1712124673770,-8931.676210932434
1712124673811,-10028.321727138013
1712124673851,-10374.072140139062
1712124673891,-10007.859789912589
1712124673931,-9639.305470657535
1712124673971,-9586.365373253822
1712124674011,-9065.23607629072
1712124674051,-8752.469057469629
1712124674092,-8488.54383992264
1712124674131,-7897.405648954213
1712124674171,-7010.295652852394
1712124674211,-6073.563739654608
1712124674251,-4690.65651983954
1712124674292,-4931.643740070984
1712124674332,-3866.678322826978
1712124674372,-3308.422649934888
1712124674412,-3850.6603020206094
1712124674452,-3767.6879720734432
1712124674492,-5959.3517061518505
1712124674532,-6985.521243598312
1712124674572,-8151.81348504778
1712124674612,-7243.125848655589
1712124674652,-7417.269365494605
1712124674693,-7301.8813553215
1712124674732,-7492.445175785571
1712124674772,-7376.846653338987
1712124674812,-7170.543065056205
1712124674852,-6642.886696226429
1712124674893,-6401.165491648484
1712124674933,-6007.590415596496
1712124674973,-5843.327188889496
1712124675013,-5978.262901878916
1712124675053,-4906.444008279126
1712124675094,-3839.897064689547
1712124675133,-3326.8779149116017
1712124675173,-3063.0429953807034
1712124675213,-4631.127009164542
1712124675253,-7180.631903029978
1712124675294,-9327.325929538812
1712124675333,-11236.447853058111
1712124675374,-11889.898860591464
1712124675414,-12297.62962804921
1712124675454,-12908.941061832942
1712124675494,-12961.012304845266
1712124675534,-13677.36231846083
1712124675574,-12518.669824563898
1712124675614,-13265.392644463107
1712124675654,-12110.696950935293
1712124675695,-11550.442123817746
1712124675734,-10567.34322608728
1712124675774,-9612.880015261006
1712124675814,-8890.975270730443
1712124675855,-7560.420263159089
1712124675895,-7926.137628071941
1712124675935,-6829.721245521214
1712124675975,-6475.899844187312
1712124676015,-7407.430966225918
1712124676055,-8874.982054723427
1712124676096,-10187.982315573841
1712124676135,-10595.162914616987
1712124676177,-11657.079751786776
1712124676216,-11407.797353459056
1712124676256,-10964.447399873752
1712124676296,-10422.849874227773
1712124676336,-9905.127804736607
1712124676376,-9567.919869136997
1712124676416,-8711.306791034527
1712124676456,-7826.77984622214
1712124676497,-6479.250521540176
1712124676536,-5338.229727608385
1712124676576,-3988.1956681609154
1712124676616,-2810.6303767764475
1712124676656,-2649.964974343544
1712124676697,-1496.817981018452
1712124676737,-883.4450564875733
1712124676777,-1324.095110552851
1712124676817,-2895.413448419422
1712124676857,-5173.555897884304
1712124676898,-6361.149069201667
1712124676937,-7377.991197400494
1712124676977,-7866.993215198861
1712124677017,-7578.374580631964
1712124677057,-8048.502684796695
1712124677098,-8242.590342976386
1712124677137,-8648.35796161578
1712124677178,-8030.802375129424
1712124677218,-7736.322766292375
1712124677258,-7400.496106536593
1712124677299,-6423.718613579404
1712124677338,-5989.4690353425685
1712124677378,-5605.042217370821
1712124677418,-5218.499173083343
1712124677458,-3013.4658122537658
1712124677499,-1510.073653619038
1712124677539,-484.38195718452334
1712124677578,-438.34616633085534
1712124677618,-2111.994347483851
1712124677659,-3780.5363938636146
1712124677699,-4789.4283959446475
1712124677739,-4615.799971370958
1712124677779,-5731.893051845953
1712124677819,-5217.098976531532
1712124677859,-5027.594869688386
1712124677900,-4762.2705931770615
1712124677939,-3451.8298362083733
1712124677979,-3309.2623643735424
1712124678020,-1717.62757699145
1712124678059,-1150.8237895776983
1712124678100,-625.5006605314557
1712124678140,316.98155759531073
1712124678180,988.8272922378965
1712124678220,2530.271337839775
1712124678260,2930.8031179672107
1712124678301,3515.644838046748
1712124678340,2687.4496369529516
1712124678380,983.627726752311
1712124678420,-590.9640876117628
1712124678460,-2219.10124374507
1712124678501,-2441.4930277257226
1712124678541,-2699.9778648987412
1712124678581,-282.38324006740004
1712124678621,-1928.596058846917
1712124678661,-1061.6061750610825
1712124678702,-845.6915052896366
1712124678741,-1152.998722820077
1712124678781,-1507.8865409852006
1712124678821,-1335.2431798879988
1712124678861,-1112.0874955118634
1712124678902,-152.0391548469197
1712124678942,83.7697202139534
1712124678982,250.70780818304047
1712124679022,1298.7481536641717
1712124679062,2869.038319802843
1712124679103,3389.5963530717418
1712124679142,2177.184779567411
1712124679184,596.9590963912196
1712124679222,-1969.608968523331
1712124679262,-2831.8997386847623
1712124679303,-4267.318723265082
1712124679343,-5187.77298007207
1712124679383,-4991.9885593997315
1712124679423,-6235.421300563961
1712124679463,-6149.249743897468
1712124679504,-6461.108267597156
1712124679543,-5360.920074198162
1712124679584,-5713.080353659112
1712124679624,-5365.20659485762
1712124679664,-2179.2310063717887
1712124679705,-1764.7694285826292
1712124679744,324.19442559592426
1712124679784,1011.739572623279
1712124679824,2618.020959715126
1712124679864,1999.7915732027031
1712124679905,4998.283933399245
1712124679945,5663.996451566927
1712124679984,2837.342702716356
1712124680025,2510.7745794351213
1712124680065,3444.403058677446
1712124680106,3505.4482115504798
1712124680145,3870.8942558746785
1712124680185,3764.9627778870054
1712124680225,4544.706763578812
1712124680265,5814.580906571355
1712124680306,6087.8530979231
1712124680346,6372.483805078082
1712124680386,6426.28428789461
1712124680426,7259.983224207303
1712124680466,7140.405119719217
1712124680507,8993.49638198223
1712124680546,9868.820430109976
1712124680586,10376.297814059537
1712124680626,11754.358995781513
1712124680667,13018.754537572851
1712124680707,15633.670738893328
1712124680747,16033.32913471153
1712124680787,14645.028637627838
1712124680827,12514.515717658214
1712124680867,11937.490582424682
1712124680908,11789.016690672841
1712124680947,8909.719673082698
1712124680988,10423.766039351933
1712124681028,13694.085144482087
1712124681068,13972.48227766133
1712124681109,14158.246227672324
1712124681149,13864.395999257918
1712124681189,13393.575537142344
1712124681229,12993.972342060879
1712124681270,14149.982178485487
1712124681311,11942.586300604977
1712124681351,11125.781939488836
1712124681391,11629.557521732524
1712124681431,11679.938536968548
1712124681471,11882.646127261221
1712124681512,12106.996416200418
1712124681551,11369.995570749976
1712124681591,8409.033175181597
1712124681631,6068.942759803962
1712124681671,4962.118341701571
1712124681712,3745.7274295398965
1712124681752,3509.3182341177016
1712124681792,2317.2253390685655
1712124681832,1479.2745956359431
1712124681872,513.6963865119033
1712124681913,-502.0324377436191
1712124681953,-1856.4520918070339
1712124681993,-1987.8577008368447
1712124682033,-1597.9972990835086
1712124682073,-867.6956054330803
1712124682114,-341.8028645645827
1712124682153,355.21102690603584
1712124682195,1189.6150238653645
1712124682234,1625.8031551749445
1712124682274,965.406118851155
1712124682315,-1964.5359699130058
1712124682355,-2993.524114803411
1712124682394,-6230.384891718626
1712124682435,-8518.098539215978
1712124682475,-9928.16877574008
1712124682516,-10078.232626824174
1712124682555,-11017.690853178967
1712124682596,-9221.546938902698
1712124682635,-9615.49567444995
1712124682676,-9083.22689845413
1712124682717,-8646.884072228335
1712124682756,-7601.035878311377
1712124682796,-7948.754540621303
1712124682837,-7455.318890004884
1712124682877,-6246.777695834637
1712124682918,-5174.97772283433
1712124682957,-4490.593359739985
1712124682997,-2832.935801374726
1712124683038,-1670.4731981861405
1712124683078,-955.3310767705552
1712124683119,711.6583526674658
1712124683158,750.8621984133497
1712124683199,116.9835621076636
1712124683239,-4681.719809134491
1712124683279,-4591.547179439105
1712124683320,-5641.621245755814
1712124683360,-5827.833262444474
1712124683400,-6178.918972558808
1712124683444,-6265.079997464083
1712124683484,-6015.897425329313
1712124683525,-7364.127322123852
1712124683565,-6584.95654532779
1712124683605,-6509.308676077053
1712124683645,-5681.053219965659
1712124683686,-3925.882955532521
1712124683726,-3183.1414931192994
1712124683766,-2120.4666783325374
1712124683806,-1329.334263201803
1712124683846,318.6983863883652
1712124683887,414.30015525082126
1712124683928,1927.9198235291988
1712124683967,1394.756291769445
1712124684008,-136.61450963141397
1712124684048,-1561.6276182606816
1712124684088,-1955.5274526746944
1712124684129,-2582.589734255336
1712124684169,-2789.4212758420035
1712124684209,-2384.6025424008258
1712124684249,-2125.3401018590666
1712124684290,-2491.7269169017673
1712124684330,-2635.368026233744
1712124684370,-2446.381422577426
1712124684410,-2197.772418054752
1712124684450,-610.6126975473017
1712124684491,-11.33091560518369
1712124684532,4058.9678817382082
1712124684571,3857.4801950240508
1712124684611,4329.922468749806
1712124684652,5448.78841000516
1712124684692,5006.394448091276
1712124684732,3847.9903353215195
1712124684772,812.466080756858
1712124684812,604.484188798815
1712124684852,-526.7036647582427
1712124684892,-656.5895042023621
1712124684933,-1233.2494648541324
1712124684973,-1632.7663806481287
1712124685013,-1365.6351793352515
1712124685053,-1705.8596592424437
1712124685093,-1346.8759746495634
1712124685134,-790.9423231789842
1712124685174,-427.0817051269114
1712124685215,104.99169776123017
1712124685254,703.1579071478918
1712124685290,1209.5747323902324
1712124685331,1904.771427250933
1712124685370,1926.7386175110005
1712124685410,2473.554868329782
1712124685450,3133.746860363055
1712124685491,2279.5300635998137
1712124685531,309.7417605719529
1712124685571,-1930.6480826763436
1712124685611,-3250.9683628589846
1712124685651,-3567.029793109745
1712124685691,-4892.107240892947
1712124685732,-4725.883525839075
1712124685771,-5212.586004764773
1712124685811,-5869.148110007402
1712124685851,-5895.917094152421
1712124685891,-5199.022246165201
1712124685932,-5866.958863709588
1712124685972,-4764.545419293921
1712124686012,-4103.720521667041
1712124686052,-2530.5433578584343
1712124686092,-2193.5174149265513
1712124686133,-1498.2047456889413
1712124686172,-230.37325929943472
1712124686212,940.540120377671
1712124686252,1456.3586696349084
1712124686293,286.7822895334102
1712124686333,-1007.350110469386
1712124686373,-1795.9311029370874
1712124686413,-2739.8233112525195
1712124686453,-1958.2069237865508
1712124686493,-1615.8896896904334
1712124686534,-2121.6369267413393
1712124686573,-2005.1269873743877
1712124686613,-2441.793012929149
1712124686653,-2164.429713981226
1712124686694,-1645.4371503158472
1712124686734,-1513.4117757193744
1712124686774,-539.8960436459165
1712124686814,-712.6506750201806
1712124686854,350.8033434895333
1712124686894,922.6047347765416
1712124686935,743.453806623118
1712124686974,960.5800444337074
1712124687014,-1320.7479932582937
1712124687055,-3478.337373177521
1712124687095,-4286.7042075174395
1712124687135,-5615.1720001127105
1712124687175,-5792.74913562322
1712124687215,-5502.690544824582
1712124687255,-5055.716525780503
1712124687295,-5283.008903159993
1712124687336,-5593.8429221555125
1712124687375,-5121.746236312203
1712124687416,-4402.177392811514
1712124687456,-4644.225226797862
1712124687496,-3987.637770307716
1712124687537,-4621.15203006193
1712124687576,-3599.139164503198
1712124687616,-2316.9793042037636
1712124687656,-2481.559508523904
1712124687696,-2348.718222223688
1712124687737,-2310.952559911646
1712124687777,-3909.764368601842
1712124687817,-6045.311240126379
1712124687857,-8085.645066307392
1712124687897,-9311.632894746494
1712124687938,-9712.267387297004
1712124687977,-10792.19996700855
1712124688017,-11276.271151117282
1712124688057,-11409.911040333565
1712124688097,-11573.955322959227
1712124688138,-12039.00786838634
1712124688178,-12332.01339214854
1712124688219,-11910.658882977907
1712124688258,-10604.492257723585
1712124688298,-9814.631845954107
1712124688339,-8393.130147419637
1712124688378,-8714.252797469962
1712124688418,-10513.199013350066
1712124688459,-9332.331811906537
1712124688499,-11177.090483993758
1712124688539,-10449.258893997874
1712124688579,-12322.039275037125
1712124688619,-14145.37488948158
1712124688659,-13479.406790183857
1712124688699,-8988.285160870291
1712124688740,-1099.595929545816
1712124688780,3073.131845360389
1712124688820,4694.527360670734
1712124688860,5511.718874119921
1712124688900,2797.858031665208
1712124688941,4317.125959352823
1712124688980,7502.851889979094
1712124689020,5159.063151382608
1712124689060,971.0271512393374
1712124689101,258.82819653954357
1712124689141,-6304.458744076546
1712124689181,2645.49199933256
1712124689221,9443.684030155186
1712124689261,17909.029754326213
1712124689301,17101.40495419642
1712124689342,13861.148886819836
1712124689381,11511.247027907055
1712124689421,10257.497715042671
1712124689462,10742.697069549235
1712124689502,11091.905310217524
1712124689542,8827.157961447723
1712124689582,7589.660536227748
1712124689622,6742.655706346501
1712124689662,5250.96373477974
1712124689702,6551.2705062376335
1712124689743,7977.446859723423
1712124689783,13663.79288081848
1712124689823,11102.652271016967
1712124689863,10086.7664235509
1712124689903,18345.19311795477
1712124689944,17289.28248958662
1712124689983,17327.37703249138
1712124690023,18039.14252099814
1712124690064,13620.255516264588
1712124690104,13827.405545713613
1712124690144,12105.125637263525
1712124690184,19869.068209226243
1712124690224,10497.07110515656
1712124690264,1069.9754499695264
1712124690304,9408.690164039843
1712124690345,6655.092674495885
1712124690385,4863.983198477887
1712124690425,12359.115412721178
1712124690465,2257.296254077228
1712124690505,-2035.7747007720172
1712124690546,-7431.821301831864
1712124690585,-4748.714821539354
1712124690625,-2845.85079263011
1712124690666,-37.27412845520303
1712124690706,254.90347124636173
1712124690746,-520.8685987088829
1712124690786,-2517.3961967309006
1712124690826,-4871.069424961694
1712124690866,-5697.658625280485
1712124690906,-5828.311190347187
1712124690947,-2616.5502055613324
1712124690986,-2424.0418693586253
1712124691026,-5414.1435537533835
1712124691066,-9335.216054916847
1712124691106,-8191.910707690753
1712124691147,-5398.313035003142
1712124691187,-9726.181932117324
1712124691228,-7267.4331491398625
1712124691267,-4620.634924725629
1712124691307,-7987.700431088684
1712124691347,-10650.237664243206
1712124691387,-14967.173581958283
1712124691427,-16123.835044304375
1712124691467,-19515.097942216322
1712124691507,-9043.46678872034
1712124691548,-1830.437420128379
1712124691587,-9279.382355881855
1712124691627,-5258.782765797339
1712124691667,-7239.61597082857
1712124691707,-8676.068445259007
1712124691748,-6352.344807364512
1712124691788,-7575.126909947954
1712124691828,-4320.4599045000505
1712124691868,-4359.151682132389
1712124691908,-868.7291192221455
1712124691949,703.888096252922
1712124691988,1290.6696202177554
1712124692028,682.1455903998576
1712124692068,836.0360310135875
1712124692108,1521.6385537358
1712124692149,1554.2801554971375
1712124692188,-667.0189405460842
1712124692229,-2158.1678384295665
1712124692269,-1686.4066069074906
1712124692309,-700.1487851908896
1712124692350,-1834.9837229303084
1712124692389,-2052.5585903162137
1712124692429,-2515.6853407411836
1712124692469,-2298.2023459756747
1712124692509,-2239.0921502839774
1712124692550,-5917.414075177629
1712124692589,-6511.8594486902
1712124692629,-4653.328712528106
1712124692669,-644.2985579178203
1712124692710,761.745442584157
1712124692750,1120.3236613636836
1712124692790,1299.9472964501474
1712124692830,2576.703076935839
1712124692870,2455.206239006482
1712124692910,2444.666041867342
1712124692951,4471.573522334918
1712124692990,4841.687192614423
1712124693030,5428.355190055445
1712124693071,7508.018338267459
1712124693111,4363.196307190694
1712124693152,3125.5607893830165
1712124693191,104.40117694996297
1712124693231,-2483.343644518405
1712124693271,-2587.3992432900704
1712124693312,-2544.529469373869
1712124693352,-2376.470718065044
1712124693392,-2058.462241504807
1712124693432,-2461.878617296461
1712124693472,-1511.5010756223928
1712124693512,-930.2032493217848
1712124693553,-160.2558618756011
1712124693593,346.38393033109605
1712124693633,2088.2353620501235
1712124693674,3490.636907966342
1712124693714,3430.7049791072495
1712124693755,3931.3518910389394
1712124693794,4631.5391577810515
1712124693834,6266.248837097548
1712124693875,4528.463283299003
1712124693915,4415.889999017119
1712124693956,2628.179210868664
1712124693996,1770.9924686467275
1712124694036,1951.5983307138085
1712124694076,2765.5329044014215
1712124694116,775.5971683233511
1712124694157,-259.6377275038976
1712124694197,-1355.3572836408857
1712124694238,-2016.2829162466805
1712124694277,718.9485073050018
1712124694318,1900.036314769648
1712124694358,544.9992210324854
1712124694398,-1876.7810013813432
1712124694438,-1581.9202858684584
1712124694479,229.5461480836384
1712124694519,1595.1677452172153
1712124694560,1469.1998882456683
1712124694599,1703.9099804949947
1712124694640,3540.4812526919413
1712124694680,2282.7079886484426
1712124694720,-832.4898707161192
1712124694761,-3364.4033671529032
1712124694800,-4083.2975997757167
1712124694841,-2766.339890283067
1712124694881,-3066.1233637516852
1712124694921,-3038.6759080800693
1712124694962,-3231.9324328543153
1712124695002,-981.4094491712749
1712124695042,-855.1301770065911
1712124695082,812.2919873411302
1712124695123,2296.247427326627
1712124695164,4394.686251979321
1712124695203,3356.507461284753
1712124695243,3455.925965783652
1712124695284,4510.639014437096
1712124695324,5956.273747133557
1712124695365,5805.977406798396
1712124695404,5583.787737201201
1712124695445,3992.3372733138967
1712124695485,3152.582770701498
1712124695525,3046.677821954945
1712124695566,44.54438881576061
1712124695606,-1721.684594873339
1712124695646,-250.3597454286646
1712124695686,1765.3374211052433
1712124695727,973.3489104975015
1712124695767,231.00567599758506
1712124695807,113.99713286804035
1712124695847,1776.2957202105317
1712124695887,2419.070106584113
1712124695927,582.5921168061905
1712124695968,104.3824617555365
1712124696008,2251.7791528529488
1712124696048,4654.684803600423
1712124696088,5290.055547027383
1712124696128,4358.43680316722
1712124696169,3963.8225367921405
1712124696208,2839.5926583912224
1712124696249,1047.268635425251
1712124696289,-335.1517988080159
1712124696329,-108.55225832690485
1712124696370,-227.54925511637703
1712124696409,-826.8401913004927
1712124696450,-2254.6257268928457
1712124696490,-288.02101174835116
1712124696530,-267.7636429001577
1712124696571,-300.4398513189517
1712124696610,-1209.5827167958487
1712124696650,-1860.0947292107157
1712124696690,-414.5580901487265
1712124696731,584.0082883252762
1712124696771,1294.246755107306
1712124696811,1586.8640588549897
1712124696851,2884.835976094706
1712124696891,3362.371707960032
1712124696932,1945.755132031627
1712124696973,719.2363974847831
1712124697012,112.24346390087157
1712124697052,-968.134086834034
1712124697092,-1504.1207195585594
1712124697133,-1486.4060224555433
1712124697174,-1341.4492970232386
1712124697213,-1689.9738015143666
1712124697255,-1409.3434865304735
1712124697294,-1173.3918103110045
1712124697340,-1351.6917321518995
1712124697380,-1363.0098450481892
1712124697420,-667.0604666008148
1712124697460,-493.3182519741822
1712124697500,66.04186368407682
1712124697540,291.7230116270948
1712124697581,1011.1041898659896
1712124697620,1098.4967134846374
1712124697661,-579.6515531372279
1712124697701,-2190.0691670579836
1712124697741,-2627.3768994756974
1712124697782,-4323.444843989797
1712124697821,-3787.9672264903784
1712124697861,-4707.19532205537
1712124697901,-3505.4974297212902
1712124697941,-3890.571859622607
1712124697982,-5326.402247922029
1712124698022,-4686.166448035277
1712124698061,-4642.566596961813
1712124698102,-2428.590599611867
1712124698142,-2200.834311792627
1712124698183,-975.1732264808379
1712124698222,1078.0088387748692
1712124698262,756.7045677308924
1712124698302,2300.214250462828
1712124698342,3178.1691219867207
1712124698383,2929.6127751204185
1712124698423,1521.7826651907526
1712124698463,1275.6585241146386
1712124698503,-385.720876570791
1712124698543,-682.1567944346461
1712124698584,-1746.707449198002
1712124698623,-2008.592519292608
1712124698663,-3986.482456969563
1712124698703,-3826.4910423704423
1712124698744,-2825.142435165122
1712124698784,-2197.880846080603
1712124698824,-1309.6495070457458
1712124698864,-727.2284302557819
1712124698904,-1025.534450875828
1712124698944,-974.2793378001079
1712124698985,-1372.4923084466718
1712124699024,242.43179706903175
1712124699064,1771.976417914033
1712124699105,291.13781107310206
1712124699145,-820.615394566441
1712124699185,-4355.151317100506
1712124699225,-6308.853479337413
1712124699265,-7963.423983274959
1712124699305,-9560.15251041553
1712124699345,-8886.224722951185
1712124699386,-9840.168880309677
1712124699426,-9422.718549532816
1712124699466,-9592.193146106321
1712124699506,-11108.883413543692
1712124699546,-10090.821017915616
1712124699587,-11113.089116266463
1712124699626,-12123.284358989913
1712124699666,-11641.978133694734
1712124699707,-11049.031881395727
1712124699747,-11782.915609389078
1712124699787,-10911.613465119153
1712124699827,-12398.603182699997
1712124699867,-14856.706426600693
1712124699907,-16881.031309128273
1712124699947,-16593.707240025513
1712124699988,-17894.853479307145
1712124700027,-20000.574451127555
1712124700068,-20323.350883546285
1712124700108,-20837.420886739157
1712124700148,-21717.850077240728
1712124700189,-19597.797272389755
1712124700228,-17599.938652168494
1712124700270,-15605.124252451817
1712124700308,-16083.976042128634
1712124700348,-17656.792921131477
1712124700389,-18158.168654229958
1712124700429,-17418.242532421835
1712124700469,-15853.450704319403
1712124700509,-14103.602764149196
1712124700549,-13267.447165335994
1712124700590,-14927.754713490373
1712124700629,-17213.837490259204
1712124700670,-19447.38937180955
1712124700710,-19980.84246306913
1712124700750,-20033.247872177977
1712124700791,-18725.55910462793
1712124700830,-18822.314464277588
1712124700870,-18437.005816221237
1712124700910,-17448.301506913267
1712124700950,-17071.395684785442
1712124700991,-16875.215949806385
1712124701031,-15568.027184400475
1712124701071,-15044.758766574087
1712124701111,-13834.942841300042
1712124701151,-12271.927311121952
1712124701192,-11039.670574030606
1712124701231,-10448.849076702027
1712124701271,-11260.05422080867
1712124701311,-12153.99437906337
1712124701351,-13518.09095605067
1712124701392,-14203.182690367568
1712124701432,-13411.17163033341
1712124701472,-13631.132607152918
1712124701512,-12651.079849502305
1712124701552,-12156.727511455072
1712124701592,-11420.536159610376
1712124701632,-10064.989101771032
1712124701672,-9083.530420723604
1712124701712,-8280.16738135228
1712124701752,-7800.055927817943
1712124701793,-6728.022956687259
1712124701832,-5695.706574267708
1712124701872,-4452.581652240828
1712124701912,-3668.295200974215
1712124701953,-3335.693742624484
1712124701993,-4284.554108903976
1712124702033,-5873.692051443271
1712124702073,-7317.185818233993
1712124702113,-7172.19527958543
1712124702153,-6762.261576088145
1712124702194,-6250.950616874732
1712124702233,-5166.739940995816
1712124702273,-4856.012720441911
1712124702313,-4970.963552662637
1712124702353,-4802.808033177629
1712124702394,-4162.690375487786
1712124702433,-1882.1819875722285
1712124702474,-1141.77685192856
1712124702514,106.7517847402487
1712124702554,1813.2603968358599
1712124702595,2832.889885199722
1712124702634,3197.700265449006
1712124702674,3436.414688418852
1712124702714,1986.4879106809385
1712124702754,410.3218088056892
1712124702795,-1355.7877767034806
1712124702834,-3377.6063956008293
1712124702874,-4822.549286857247
1712124702914,-4944.906684854999
1712124702955,-5111.319550644606
1712124702995,-5313.757747506723
1712124703035,-5117.077956753317
1712124703075,-5299.386890617665
1712124703115,-4154.971158527536
1712124703155,-2720.333837922197
1712124703196,-1918.3915596688166
1712124703235,-767.489033614751
1712124703276,-161.3959828130901
1712124703315,313.36269149929285
1712124703355,217.62991973827593
1712124703396,1266.882058920106
1712124703436,2023.218845849391
1712124703476,1226.235675738193
1712124703516,-1404.1365929928143
1712124703556,-2170.3725644757506
1712124703597,-2565.4792035552673
1712124703636,-3196.443623095518
1712124703676,-3453.9618857824244
1712124703716,-3767.0995078512933
1712124703756,-4339.828837925801
1712124703797,-4109.583656692645
1712124703836,-4384.985129910521
1712124703877,-3158.911302973749
1712124703917,-2318.4818361848593
1712124703957,-702.9077371254098
1712124703997,283.1340761636384
1712124704037,630.2215382265858
1712124704077,1397.222334225662
1712124704117,2833.212509062607
1712124704157,5501.304295191076
1712124704198,7190.522399991984
1712124704237,5877.356701599434
1712124704278,4708.804388693068
1712124704318,3142.432915217709
1712124704358,2994.111847120803
1712124704399,2355.488110181177
1712124704438,1764.6635612319224
1712124704478,1711.863456660416
1712124704518,1798.304182867054
1712124704558,2560.2197888651863
1712124704599,3819.8381471433677
1712124704638,5207.557191842003
1712124704678,5699.251973966835
1712124704719,6633.72729325504
1712124704759,6538.914582236204
1712124704799,7300.106763348915
1712124704839,7233.698025407735
1712124704879,7752.142510358244
1712124704919,8543.678509666584
1712124704959,8807.559663280612
1712124705000,8494.192034033593
1712124705039,8680.602197623113
1712124705079,7707.430703912629
1712124705120,5979.588397600921
1712124705160,4794.53529496165
1712124705201,3888.9358517592773
1712124705240,3860.8095920691267
1712124705280,3943.966779171489
1712124705321,4344.815381844062
1712124705361,4172.586796383606
1712124705402,5024.73409648519
1712124705441,5034.253355862573
1712124705485,5197.472957460675
1712124705522,6958.857341767056
1712124705562,8517.48862379603
1712124705603,8401.40472472785
1712124705643,8684.767109981505
1712124705683,8619.652730887756
1712124705723,8959.348496810766
1712124705763,10006.085579398554
1712124705804,9983.180242784321
1712124705844,8259.161205054494
1712124705884,6246.8298198741395
1712124705924,5271.316377044655
1712124705965,4496.939779404085
1712124706006,3897.7348676603287
1712124706045,3188.869734858861
1712124706086,2647.0744925111067
1712124706126,2664.424685959704
1712124706166,2880.9897594107315
1712124706207,2713.991772015579
1712124706247,4112.627128432039
1712124706288,3396.183235310018
1712124706327,3267.8292983931024
1712124706367,3423.1457345297094
1712124706408,4277.057883602101
1712124706448,5063.860033213859
1712124706488,6181.993436248042
1712124706528,6839.261746138334
1712124706569,7085.503885870334
1712124706610,7220.594539633952
1712124706649,6034.404744986445
1712124706690,4230.3913269364275
1712124706730,2542.595022100024
1712124706770,1464.237358538434
1712124706812,2421.941330248257
1712124706851,1825.5137954140082
1712124706892,3854.3467305668164
1712124706932,5515.405868831091
1712124706972,6224.840902752709
1712124707013,6663.194247943349
1712124707052,6932.235495252069
1712124707092,7640.594196157996
1712124707132,7930.778259617509
1712124707173,8893.624123125104
1712124707214,9274.494750670623
1712124707253,10274.197515090927
1712124707293,9904.300111922901
1712124707333,11722.107179885963
1712124707373,11751.099969195668
1712124707414,10551.962746147998
1712124707454,8530.896352332318
1712124707494,6974.675343789626
1712124707534,5280.584572561551
1712124707574,4770.94363121246
1712124707615,4978.302456917707
1712124707655,2084.263649352826
1712124707698,1058.4244371994864
1712124707735,-529.0773578621447
1712124707775,263.60487687634304
1712124707816,718.5517264525406
1712124707855,1877.7810081064235
1712124707896,2508.5143025296275
1712124707936,3885.018123100046
1712124707976,5779.583916967269
1712124708017,6548.646551499143
1712124708056,10351.05200667167
1712124708097,11195.09551266837
1712124708137,13888.640452073887
1712124708177,14565.183793518227
1712124708218,13204.559474600712
1712124708258,11972.058147271164
1712124708298,8479.330210485263
1712124708338,6235.968301019166
1712124708378,1097.9887741487473
1712124708419,3648.4671687006485
1712124708459,-379.3752458479721
1712124708499,-6561.935602994636
1712124708539,-10432.665442644153
1712124708579,-14842.173962046392
1712124708620,-16412.305446057813
1712124708660,-16086.80935744266
1712124708700,-14156.868075358216
1712124708740,-8174.050765723456
1712124708781,-6579.1444185599685
1712124708822,-4203.120902251452
1712124708861,-831.767164147459
1712124708901,-84.48765951464884
1712124708942,4098.548837666865
1712124708982,4780.338862259407
1712124709023,5757.387249019463
1712124709063,3965.039061304182
1712124709103,969.5933384818491
1712124709143,53.31077235471457
1712124709183,-1050.4469661023468
1712124709224,-725.7129729297012
1712124709264,-903.6281095766462
1712124709306,-6096.669181574136
1712124709345,-13475.239658450475
1712124709384,-10962.79175064154
1712124709423,-10584.617839141749
1712124709462,-5548.561903274385
1712124709501,1803.378670303151
1712124709540,10909.390041064238
1712124709579,22341.67602502671
1712124709618,33161.572168372804
1712124709657,47522.45117434766
1712124709696,-9628.137701119762
1712124709735,-346.05586349824443
1712124709774,7579.752195669338
1712124709813,539.3039407983888
1712124709852,7717.659240406007
1712124709891,4954.041985933669
1712124709930,3799.7347900806926
1712124709969,4194.1869559288025
1712124710008,-1202.1468976070173
1712124710047,-3299.2768389624543
1712124710086,-6133.765523200389
1712124710125,-7579.747712110169
1712124710164,-7088.491078346502
1712124710203,-7906.8951172498055
1712124710242,-5646.335733877961
1712124710281,-4617.297004882246
1712124710320,-1373.987171052955
1712124710359,2535.5062292485964
1712124710398,4258.138327745954
1712124710437,5404.763228930533
1712124710476,4723.732145832386
1712124710515,1889.489025016781
1712124710554,5659.010751832509
1712124710593,9529.558800883126
1712124710632,8652.20318032708
1712124710671,8877.413276458858
1712124710710,6712.598645915277
1712124710749,2189.5436120221857
1712124710788,-1916.8051190755796
1712124710827,-7965.052191740135
1712124710866,-15700.196979675442
1712124710905,-25732.14122746233
1712124710945,29007.354821161367
1712124710985,21532.457709495444
1712124711025,17038.19153480488
1712124711065,22128.181085697142
1712124711105,19665.843317980878
1712124711145,21382.60038145678
1712124711185,20427.865121169947
1712124711225,16251.322847726755
1712124711265,13070.323801670223
1712124711305,9731.876990855206
1712124711345,9246.758440943435
1712124711385,7703.476004877128
1712124711425,6197.851093686651
1712124711465,5562.225666032173
1712124711505,4251.578558087116
1712124711545,2361.7196097408887
1712124711585,1317.4447545320727
1712124711625,822.4268707456067
1712124711665,1208.4127978906035
1712124711705,2962.5057394565083
1712124711745,2443.826100898441
1712124711785,3482.279455244541
1712124711825,3822.5875990693457
1712124711865,4137.215287178755
1712124711905,4040.650659199804
1712124711945,2500.2602503171656
1712124711985,-423.12170956563205
1712124712025,-2472.9512849510647
1712124712065,-3631.5947273178026
1712124712105,-4929.2167610663455
1712124712145,-5113.691982847638
1712124712185,-4740.521666205255
1712124712225,-4533.413405226078
1712124712265,-4700.378778094426
1712124712305,-4913.347408519359
1712124712345,-5072.998090841807
1712124712385,-5258.68828954245
1712124712425,-5438.210253111087
1712124712465,-4366.557634378783
1712124712505,-3340.7211513891816
1712124712545,-1664.9858933943324
1712124712585,-1597.1015479909256
1712124712625,-1054.0275086176116
1712124712665,-281.57411512359977
1712124712705,-953.5013447154779
1712124712745,-2444.702360529918
1712124712785,-3990.911102276994
1712124712825,-4407.207324790768
1712124712865,-5635.85926248203
1712124712905,-5226.817693577148
1712124712945,-5364.676505457843
1712124712985,-5087.61313929758
1712124713025,-4458.353060903493
1712124713065,-4714.852562696207
1712124713105,-5648.3832422953565
1712124713145,-5183.207481524674
1712124713185,-5359.592530797236
1712124713225,-5029.715800622478
1712124713265,-3092.4553446355276
1712124713305,-2015.1980045391247
1712124713345,-1646.2282847110182
1712124713385,-1259.2191873693373
1712124713425,-2652.580271931831
1712124713465,-4932.789766490692
1712124713505,-7298.606668857392
1712124713545,-8384.417552041123
1712124713585,-9242.913290416822
1712124713625,-9694.875564905116
1712124713665,-9270.625743246172
1712124713705,-9516.21786383912
1712124713745,-9785.935577177443
1712124713785,-9582.294020893052
1712124713825,-9800.00009131967
1712124713865,-8308.624846033286
1712124713905,-7850.126919980859
1712124713945,-7317.007762585301
1712124713985,-5768.296013722196
1712124714025,-4214.923130293842
1712124714065,-2754.5569963254966
1712124714105,-3244.7737104031257
1712124714145,-3015.19127484411
1712124714185,-5455.0856591248885
1712124714225,-7155.64294316899
1712124714265,-9172.914896441624
1712124714305,-9675.31580925826
1712124714345,-10323.67367925588
1712124714385,-9348.805101652863
1712124714425,-8798.200202421285
1712124714465,-8210.19625968649
1712124714505,-7875.354380717501
1712124714545,-8420.083863402484
1712124714585,-7823.263201848837
1712124714625,-7314.962058506906
1712124714665,-6523.531574184308
1712124714705,-5661.915787145495
1712124714745,-5656.883876094595
1712124714785,-4777.847692172509
1712124714825,-3959.4697226462886
1712124714865,-3617.8941688609775
1712124714905,-5220.056725047529
1712124714945,-6954.698413689854
1712124714985,-8832.151605645195
1712124715025,-9389.632555373712
1712124715065,-9362.233027807204
1712124715105,-9351.73163677426
1712124715145,-8130.908857776318
1712124715185,-7796.598948433064
1712124715225,-7366.550325783202
1712124715265,-7114.040737049654
1712124715305,-6516.99143866729
1712124715345,-5783.224705220666
1712124715385,-3650.0625728322193
1712124715425,-3254.370033081621
1712124715465,-1186.4868579823524
1712124715505,-752.3142100321129
1712124715545,1064.0886530226562
1712124715585,120.58289373735897
1712124715625,-1991.886223768117
1712124715665,-5109.1727958316915
1712124715705,-7451.740029003238
1712124715745,-9031.124655685853
1712124715785,-9793.924258505227
1712124715825,-10031.704580179416
1712124715865,-9566.871091792826
1712124715905,-9087.396640787832
1712124715945,-9467.92203070363
1712124715985,-9540.154587014811
1712124716025,-8306.315570194274
1712124716065,-7732.870754018659
1712124716105,-7430.865371827036
1712124716145,-6539.315160711063
1712124716185,-5964.738235852681
1712124716225,-5163.648053551093
1712124716265,-3528.2592693252955
1712124716305,-3593.918486555107
1712124716345,-4916.126572738867
1712124716385,-7478.342187389499
1712124716425,-9942.743000556715
1712124716465,-11020.655708793318
1712124716505,-11431.032568404451
1712124716545,-11273.56835705624
1712124716585,-11017.506809413433
1712124716625,-10517.435413275845
1712124716665,-10630.54794886196
1712124716705,-9415.291247938527
1712124716745,-9126.812628799118
1712124716785,-7410.45994975185
1712124716825,-6608.719211961143
1712124716865,-5389.78062005504
1712124716905,-4319.909959611716
1712124716945,-2377.6774549621623
1712124716985,-978.3611624906771
1712124717025,732.8589238654822
1712124717065,-119.93449175055139
1712124717105,-2924.192076372914
1712124717145,-5570.660165660083
1712124717185,-7258.316184178926
1712124717225,-7925.335926271975
1712124717265,-7631.657344244886
1712124717305,-7578.690149158705
1712124717345,-7879.544546536403
1712124717385,-6530.880336049013
1712124717425,-6326.972901116824
1712124717465,-5386.41547462577
1712124717505,-4358.942674383521
1712124717545,-3951.4905768902972
1712124717585,-3327.9894633204676
1712124717625,-2887.5453256822657
1712124717665,-1613.761579920305
1712124717705,-298.298946400173
1712124717745,977.06893849466
1712124717785,1044.234600391239
1712124717825,-650.7591619291343
1712124717865,-2662.4575263974257
1712124717905,-4765.715588761494
1712124717945,-5148.90404021414
1712124717985,-5535.6256552496925
1712124718025,-5002.360782135744
1712124718065,-4887.183625137433
1712124718105,-4660.71764958743
1712124718145,-4044.9951403536834
1712124718185,-3519.6537531614304
1712124718225,-2291.3723169658333
1712124718265,-1770.2400425733067
1712124718305,-865.5640393896028
1712124718345,289.2799196704291
1712124718385,1901.514482326107
1712124718425,2834.0635454393923
1712124718465,3828.107957852306
1712124718505,3038.2133038481697
1712124718545,626.783722211374
1712124718585,-2075.9184075142257
1712124718625,-2918.7795693690423
1712124718665,-4298.263514149934
1712124718705,-4275.614701991435
1712124718745,-4404.725189792458
1712124718785,-4354.809094150318
1712124718825,-4760.7954823256005
1712124718865,-3999.071225060383
1712124718905,-3606.3352492109407
1712124718945,-3047.0112085177097
1712124718985,-2773.372332117986
1712124719025,-2426.0628164773807
1712124719065,-1736.1876714855898
1712124719105,-352.4490084964782
1712124719145,65.06793585116975
1712124719185,1454.0336201139726
1712124719225,1064.5448270482011
1712124719265,-1109.8656357286964
1712124719305,-3063.9575424431823
1712124719345,-4741.45347871352
1712124719385,-5623.501771438867
1712124719425,-5953.443098782562
1712124719465,-5742.995383804198
1712124719505,-6400.572860043263
1712124719545,-6167.55578109948
1712124719585,-5313.995926817413
1712124719625,-4328.286592047894
1712124719665,-3668.9006365537643
1712124719705,-2609.7133580236696
1712124719745,-1617.2732679264154
1712124719785,-1142.38398144464
1712124719825,363.3492224875372
1712124719865,1896.934516266454
1712124719905,3433.2142417505383
1712124719945,4376.221336395945
1712124719985,2927.8766488363035
1712124720025,893.0220678721089
1712124720065,-1068.9519436368719
1712124720105,-1400.2913539838046
1712124720145,-2433.1513627492823
1712124720185,-2836.4482823912986
1712124720225,-2857.5238718199544
1712124720265,-3228.5421679860447
1712124720305,-3487.1267222466413
1712124720345,-3636.3608379880898
1712124720385,-3692.4252636658493
1712124720425,-3193.6220428049564
1712124720465,-3648.5632295105606
1712124720505,-3686.4674122636206
1712124720545,-2162.97868050728
1712124720585,-2124.086635665968
1712124720625,-1053.9529688239563
1712124720665,-211.00440492480993
1712124720705,-660.7643798352219
1712124720745,-2768.9233465574216
1712124720785,-4444.951943819411
1712124720825,-5820.519324627705
1712124720865,-7414.991281444207
1712124720905,-6743.379450887907
1712124720945,-6526.541441970505
1712124720985,-5712.340386313386
1712124721025,-5591.53633847367
1712124721065,-4712.56831242959
1712124721105,-4376.762771476526
1712124721145,-3629.1025316258892
1712124721185,-3084.924092084635
1712124721225,-3480.537152494304
1712124721265,-1422.7647257552017
1712124721305,-605.107359246118
1712124721398,938.3088215962052
1712124721439,1197.760478403885
1712124721478,1350.389704412315
1712124721518,-391.2001807591878
1712124721559,-2020.452456361847
1712124721599,-3233.2369035265874
1712124721639,-3362.8343574588653
1712124721679,-3166.176855208352
1712124721719,-2352.2831448854413
1712124721759,-2092.815503901802
1712124721799,-1238.4953521080315
1712124721840,-615.4120674422011
1712124721880,-1241.6060762717389
1712124721920,-549.0895494977012
1712124721960,382.30217360076495
1712124722000,2095.8441629619338
1712124722041,3814.4904898174573
1712124722080,4605.206888704561
1712124722120,5512.397356260102
1712124722160,5797.117420894327
1712124722200,6261.220970730763
1712124722241,3811.003903376404
1712124722280,2523.815617171582
1712124722321,925.4690934056416
1712124722361,-398.76241421164013
1712124722401,-1837.291753097903
1712124722442,-1830.1154453200288
1712124722481,-1530.7255427432247
1712124722521,-1222.2471277755685
1712124722561,-721.652882588096
1712124722601,-1071.1481611214112
1712124722642,-436.098700536415
1712124722682,-298.32387699442916
1712124722722,788.4767150161788
1712124722762,1357.4017242353875
1712124722802,2626.092797670979
1712124722843,3234.648408395238
1712124722882,4242.778375073336
1712124722922,4367.160996928811
1712124722962,4204.737611214165
1712124723003,2015.244615775533
1712124723044,118.19406964746304
1712124723083,-771.0803774662782
1712124723123,-1520.3841022518463
1712124723163,-1666.5957983974367
1712124723203,-742.0028450437821
1712124723244,-953.0716202743351
1712124723284,-1873.1166571336798
1712124723324,-2982.218747132458
1712124723364,-2802.7323095891625
1712124723404,-1767.1236859182827
1712124723445,-633.2662137753796
1712124723484,312.273134538671
1712124723524,1128.647748120362
1712124723564,1489.4296504599042
1712124723604,997.40296983812
1712124723645,2750.7671238142066
1712124723685,4352.886202374008
1712124723725,3267.7440420170315
1712124723765,852.1175518149976
1712124723805,-1505.6152247525752
1712124723846,-2627.7552207382396
1712124723885,-4053.256909456337
1712124723925,-4260.749350857921
1712124723965,-4113.720596744213
1712124724006,-4493.722752273316
1712124724046,-3992.7645859331824
1712124724086,-3696.48906143778
1712124724126,-2568.055735410191
1712124724166,-1909.432359623257
1712124724206,-548.4795975012239
1712124724247,208.24245513090864
1712124724286,1060.4607226448134
1712124724328,1845.2238449645229
1712124724367,2695.534062596038
1712124724407,4045.3841577908024
1712124724448,5691.8950763028115
1712124724487,3539.274409790756
1712124724527,1867.3683653138578
1712124724567,368.30037325341254
1712124724607,-104.21568068582565
1712124724648,-417.08811076986603
1712124724688,-1336.373841643799
1712124724728,-680.3024471192621
1712124724768,-662.0415893848985
1712124724808,109.0198373682797
1712124724849,960.166772655677
1712124724888,1209.7201139661483
1712124724928,1202.5407780460082
1712124724968,-2927.8635789880063
1712124725008,-6897.692269641906
1712124725049,-4549.496518943692
1712124725089,-3254.785293467343
1712124725129,-825.470386153087
1712124725169,488.3732339129783
1712124725209,6529.630860690959
1712124725250,6356.271528775338
1712124725289,5307.584172135452
1712124725330,4907.691840231419
1712124725370,2409.9496212387457
1712124725410,2943.8596410627943
1712124725451,3272.8529775424395
1712124725490,2637.925590584753
1712124725530,639.5445657700766
1712124725571,1094.0222211671062
1712124725611,-1850.2114369999617
1712124725652,2378.7021858245134
1712124725691,2018.6925585442223
1712124725731,1123.4982368340716
1712124725771,3414.1460615624674
1712124725812,4488.33726509125
1712124725852,4052.145132536767
1712124725892,3197.0405431245454
1712124725932,1863.2154662029352
1712124725972,-248.87722230423242
1712124726012,-2812.4771976787597
1712124726053,-4125.938278218964
1712124726093,-6170.413492178312
1712124726133,-7785.330816615839
1712124726173,-6397.002810771577
1712124726213,-7853.735854107887
1712124726254,-5586.78800924751
1712124726294,-4874.179330271669
1712124726334,-7090.6904524287675
1712124726374,-8548.48788918648
1712124726415,-7744.564030538546
1712124726455,-6270.082279402763
1712124726495,-9334.635952523677
1712124726535,-6977.340431703022
1712124726575,-6042.066567752045
1712124726616,-5223.9114132307
1712124726657,-3607.7168930072803
1712124726696,-5917.2878317395225
1712124726736,-6001.495282854419
1712124726777,-5058.855068538105
1712124726818,-5017.547006702749
1712124726859,-863.5309471422806
1712124726898,9777.540683953092
1712124726938,12239.442531404085
1712124726979,15691.714339201571
1712124727019,15418.916746578645
1712124727060,7491.790009667166
1712124727099,7112.815176813398
1712124727140,7238.88132044021
1712124727180,12663.84224847285
1712124727220,18710.7760917861
1712124727261,15471.965185050154
1712124727301,17491.013283744454
1712124727342,18532.61120139365
1712124727381,17304.227889734088
1712124727421,17124.18945701886
1712124727462,15091.055798565038
1712124727502,16014.842114424333
1712124727542,15875.840308420127
1712124727582,13876.655289060203
1712124727623,12052.12964379252
1712124727664,12771.918857798213
1712124727703,12293.206157263368
1712124727744,12507.822515598731
1712124727784,12986.606874259654
1712124727824,12155.659250197932
1712124727865,11935.58095229417
1712124727904,12018.828274416272
1712124727945,13009.845811685082
1712124727985,15620.639904314885
1712124728025,14923.231460116804
1712124728066,14532.441392314155
1712124728106,17274.518535872456
1712124728146,13106.854410432745
1712124728186,5856.457348767202
1712124728227,-1790.694514115341
1712124728268,-4599.203427406494
1712124728307,-3015.4285920811817
1712124728348,5242.579339538468
1712124728388,6198.414708992932
1712124728428,7215.715243059676
1712124728469,2765.2994212913327
1712124728508,-1958.0269714153837
1712124728549,1387.177434244426
1712124728589,645.4748534657992
1712124728629,784.8970349601004
1712124728670,3506.550879047485
1712124728709,6042.674351014197
1712124728749,8919.248715415131
1712124728789,9320.622875362867
1712124728830,9505.141800852492
1712124728871,10476.571303189034
1712124728910,8878.90453441348
1712124728950,7375.893280547345
1712124728990,5168.870606297394
1712124729030,5132.620265642181
1712124729072,4705.945966260508
1712124729111,5192.222826838959
1712124729151,5649.291112286504
1712124729191,5780.7147245914675
1712124729232,6178.734064288903
1712124729272,6130.044664731715
1712124729312,7335.33799105254
1712124729352,7567.935162533307
1712124729392,8711.668130272534
1712124729432,8904.57027760474
1712124729473,9465.492922866717
1712124729513,10396.629578675143
1712124729553,10417.366795825772
1712124729593,8709.654201959725
1712124729633,6780.807571871206
1712124729674,5737.994997153757
1712124729714,5122.419107975904
1712124729754,4917.538979514968
1712124729794,5825.124440153595
1712124729834,6524.96766116377
1712124729875,6737.448961694958
1712124729915,6733.615753114689
1712124729955,6903.996761168819
1712124729995,7307.88927598577
1712124730036,7714.356345128734
1712124730076,8638.93312907638
1712124730116,9614.984317413997
1712124730156,10356.102605545428
1712124730197,10450.346148180077
1712124730237,9456.937192169484
1712124730278,8502.232767631765
1712124730317,6286.840242479462
1712124730359,5083.8465431584045
1712124730398,4514.6604559922125
1712124730438,4803.6454640850425
1712124730479,4489.537286952371
1712124730519,4838.814680958632
1712124730559,4915.206602451624
1712124730599,4587.0811276184395
1712124730639,5284.644797043875
1712124730680,5389.765013484983
1712124730720,6758.3420043669175
1712124730760,6697.491736148251
1712124730800,7497.184676622273
1712124730841,7903.061987221241
1712124730882,8748.589707940817
1712124730921,7756.121127395658
1712124730961,5764.453019591281
1712124731002,3437.145153352758
1712124731042,2581.0965413302183
1712124731083,1240.970454866765
1712124731123,1278.0252466441598
1712124731163,888.3454430610873
1712124731203,817.1642247750424
1712124731243,699.0953949098475
1712124731284,248.2121858522296
1712124731324,253.98641455499455
1712124731364,384.130893292604
1712124731404,671.4738278044388
1712124731444,1109.4629559386522
1712124731486,2601.0668490182143
1712124731525,3594.61860985728
1712124731565,4202.895655733533
1712124731605,3281.209924381925
1712124731646,503.2549868633505
1712124731686,-1458.1633431871887
1712124731726,-2951.8528691832907
1712124731768,-3979.6902344864793
1712124731808,-4136.299374721944
1712124731849,-4190.574096243596
1712124731889,-4446.477542748209
1712124731929,-4756.971421664581
1712124731969,-4911.444875681307
1712124732009,-4603.376539409161
1712124732049,-3569.4520744159818
1712124732090,-2557.0786983396392
1712124732130,-1847.616087520495
1712124732170,-1316.6528896265663
1712124732210,-520.3012840794399
1712124732250,-1029.2077154568397
1712124732291,-2682.572608235292
1712124732331,-5387.655990792904
1712124732371,-6542.884741475806
1712124732411,-7380.327996619046
1712124732451,-7407.969289403409
1712124732492,-6701.742211501114
1712124732531,-6706.884362882236
1712124732572,-6235.094446749892
1712124732612,-6337.680598031264
1712124732652,-6345.138956179377
1712124732693,-6120.294471618719
1712124732732,-5968.694178937469
1712124732772,-5507.200964387273
1712124732813,-5052.374503493775
1712124732853,-4633.653853645315
1712124732894,-3714.22164141573
1712124732934,-2524.891809896566
1712124732973,-3310.7147822822444
1712124733014,-5363.258637352614
1712124733054,-6765.235771168489
1712124733095,-7838.946567289298
1712124733134,-8223.963583922945
1712124733175,-7648.088578787632
1712124733215,-7458.212293352699
1712124733255,-7357.443356166128
1712124733296,-7435.131740390789
1712124733336,-7493.1433531043585
1712124733377,-8042.271316871513
1712124733416,-8128.670155166648
1712124733460,-6756.023857230321
1712124733501,-6263.133675358491
1712124733540,-4787.578801348805
1712124733580,-4128.924004822504
1712124733621,-2771.932528139092
1712124733661,-2497.57229561056
1712124733702,-2709.4852119274437
1712124733741,-4830.4619610400405
1712124733781,-6964.180810896447
1712124733821,-7895.698600104079
1712124733861,-8089.325033321278
1712124733902,-7584.965658659115
1712124733941,-6815.456704952288
1712124733982,-7106.1421019784175
1712124734022,-6781.722935684025
1712124734062,-7407.133728517219
1712124734103,-6785.115459863329
1712124734142,-5977.03949382389
1712124734182,-5201.23169704387
1712124734222,-3945.117973414948
1712124734263,-3777.5112781333737
1712124734303,-2511.8009063228965
1712124734343,-1405.8749876883812
1712124734383,-1502.5894525176845
1712124734423,-3207.080737807555
1712124734463,-4610.950401498703
1712124734504,-5792.168004044332
1712124734543,-6801.2455487246625
1712124734583,-6425.892869622912
1712124734624,-5446.953411838273
1712124734663,-5067.179512849543
1712124734704,-4156.354975780705
1712124734744,-4461.980058057234
1712124734784,-3763.498445608886
1712124734824,-3540.880110077327
1712124734864,-2559.6364490748383
1712124734905,-2062.5869029355235
1712124734945,-499.78765556029975
1712124734985,-253.787475542631
1712124735025,1174.8780076527037
1712124735065,1576.642079638783
1712124735106,153.56775614712387
1712124735145,-2449.316659562057
1712124735185,-4442.936394189484
1712124735225,-5371.4732207302
1712124735265,-5785.13081165636
1712124735306,-6474.556941960938
1712124735346,-5922.87761459453
1712124735386,-5909.273916372098
1712124735426,-5903.324377245735
1712124735466,-6231.7141683320515
1712124735507,-6077.297541642562
1712124735546,-4785.392109875567
1712124735586,-4409.396756520495
1712124735626,-3940.6621222398244
1712124735667,-2512.983758933842
1712124735707,-1439.070032980293
1712124735747,-1193.4265180665534
1712124735787,-478.18671410996467
1712124735827,-1897.048789901659
1712124735867,-4027.635971291922
1712124735908,-5842.960114455782
1712124735947,-5819.297711540479
1712124735987,-6690.634630284505
1712124736027,-6871.038264635019
1712124736068,-6560.28678517486
1712124736108,-6970.079317047261
1712124736148,-6730.2748255152255
1712124736188,-6511.6914945016615
1712124736228,-6536.378838334233
1712124736268,-5516.631202667952
1712124736309,-5203.663333792239
1712124736348,-4284.363957842346
1712124736390,-3473.178567614639
1712124736429,-2308.288610004587
1712124736469,-1183.2456019634847
1712124736509,-895.217237339355
1712124736549,-1637.157363211969
1712124736589,-3320.258217474213
1712124736629,-4935.421732192626
1712124736669,-5823.932572102407
1712124736710,-6609.388598582242
1712124736750,-5939.901170460973
1712124736790,-5590.747201553546
1712124736830,-5443.236647335347
1712124736870,-5013.069606889505
1712124736911,-5038.5030476883985
1712124736950,-4816.336862463038
1712124736990,-4301.443178766174
1712124737031,-2654.7546227741987
1712124737070,-2193.734919407405
1712124737111,-1527.8637076169252
1712124737151,-778.1843051640317
1712124737191,130.26906373049133
1712124737231,798.7541099241935
1712124737271,1324.470005128067
1712124737312,-399.36201317305677
1712124737351,-1984.9989906742703
1712124737391,-2231.482114008162
1712124737431,-2434.2772048441693
1712124737471,-2275.146108281333
1712124737512,-1261.9559582367074
1712124737551,-712.2007548282854
1712124737592,-560.8398193544708
1712124737632,-43.488641500938684
1712124737672,348.0458931894973
1712124737713,1303.960033730371
1712124737752,1855.3498354195617
1712124737792,3014.697479140712
1712124737832,3605.1175638902932
1712124737872,4446.956061700592
1712124737913,5781.486734892242
1712124737952,6396.162373395637
1712124737993,6429.616604925133
1712124738033,4608.655382859986
1712124738073,1761.1062631718814
1712124738114,-422.73715420858935
1712124738153,-1509.8213242883794
1712124738193,-2035.9712245129049
1712124738233,-2229.3812819251325
1712124738273,-1870.4561724560335
1712124738314,-2652.6912635946646
1712124738354,-2244.2158511485904
1712124738393,-1837.5211017313413
1712124738434,-1178.9275006367825
1712124738474,-260.4240523362532
1712124738514,434.4231898454018
1712124738554,340.5158568879124
1712124738594,2000.9286992927082
1712124738634,2241.649985090131
1712124738674,3325.949156092014
1712124738715,4252.753459798405
1712124738754,3827.5605973512866
1712124738794,1474.8385934457183
1712124738835,-647.3757679560222
1712124738875,-2250.278876419179
1712124738915,-2162.0685442048125
1712124738955,-2474.3584599136375
1712124738995,-2214.301468846854
1712124739035,-2365.6785307913087
1712124739075,-2845.513783566421
1712124739116,-2299.3495316999033
1712124739155,-1733.2484031161293
1712124739195,-1962.21969555947
1712124739235,-1219.6554752478842
1712124739275,-564.7429839568213
1712124739316,113.79490739759058
1712124739356,1125.9061327925883
1712124739397,2173.4886002587155
1712124739436,3094.3685033340007
1712124739476,4771.111006981228
1712124739517,5013.478074030019
1712124739556,3501.19500235375
1712124739596,1710.6936569521204
1712124739636,-56.416235896293074
1712124739676,-712.4247926073149
1712124739717,-537.32972000679
1712124739756,-882.3774264224339
1712124739797,-394.68304713908583
1712124739837,-246.77335743652657
1712124739877,-686.3617275683209
1712124739918,-227.94054810982198
1712124739957,-472.4872917504981
1712124739997,236.91868830798194
1712124740037,622.4840545712505
1712124740077,1800.681798859965
1712124740118,2801.4545200103894
1712124740157,3555.533484124113
1712124740197,3772.9718877072446
1712124740238,5059.98937159637
1712124740278,5137.355022849748
1712124740318,4230.693258868065
1712124740358,2845.360202793032
1712124740398,1981.286766875768
1712124740438,1301.7733400892466
1712124740478,1960.1457743644714
1712124740519,2603.209314835025
1712124740558,2970.6456567768473
1712124740598,3453.4836440775543
1712124740639,3451.159218631219
1712124740679,3605.336406282615
1712124740719,3869.262342981994
1712124740759,3867.6811830475926
1712124740799,4589.343265074771
1712124740839,4716.268092981074
1712124740879,5822.5098784181755
1712124740920,6563.128255914897
1712124740959,7234.771448145388
1712124741000,7853.524496642407
1712124741040,7733.692115625367
1712124741080,5350.895412701881
1712124741121,3348.9054761589505
1712124741160,1876.7906501973048
1712124741201,1144.7296054600738
1712124741241,1192.9777868648525
1712124741281,1222.9563296518754
1712124741322,1609.0306550080422
1712124741362,1352.0809384984896
1712124741402,939.1737662120722
1712124741442,1098.471357287839
1712124741484,1769.555619043298
1712124741524,2102.565418448299
1712124741564,2615.728508917615
1712124741604,2850.7616060501896
1712124741644,3870.96979819471
1712124741685,4315.014583202079
1712124741726,5444.432719124015
1712124741765,6764.709581080824
1712124741805,6524.113312473986
1712124741846,4694.089492166415
1712124741886,2560.484342712909
1712124741927,1329.6382429483347
1712124741967,670.8057561514433
1712124742007,366.7781352296006
1712124742047,726.7736931282561
1712124742087,263.33553773886524
1712124742128,60.85495295282453
1712124742168,-398.030032009352
1712124742208,-369.8816672200337
1712124742248,-176.7935777772218
1712124742288,349.70067634480074
1712124742330,538.0739626593422
1712124742369,1578.7238351474516
1712124742411,2156.373892933596
1712124742450,2485.294044342125
1712124742490,3582.8016390805133
1712124742531,4300.46113439044
1712124742571,4160.772370668361
1712124742611,2802.6555574503727
1712124742651,1292.9322846564464
1712124742691,694.4743559199851
1712124742732,536.0164742441848
1712124742771,886.0283602606505
1712124742812,1354.746838936815
1712124742852,1377.1949407951906
1712124742892,1604.8725808211602
1712124742933,1179.5519730353262
1712124742972,1288.7839160379954
1712124743012,1555.5985735370778
1712124743053,1579.9846885800362
1712124743093,2386.7869930882007
1712124743133,3140.333468457684
1712124743173,3641.544062093133
1712124743213,4356.478816033574
1712124743253,5184.403599811019
1712124743294,5588.239768491592
1712124743334,4333.427275766153
1712124743374,2507.629299032502
1712124743414,316.3008936480619
1712124743454,-627.9166358285584
1712124743494,-1200.0773075004108
1712124743535,-1778.8621312449686
1712124743575,-1842.9680411622394
1712124743615,-1754.8324239146896
1712124743655,-2437.5515075984877
1712124743695,-2440.9988594963215
1712124743736,-2293.098503247369
1712124743776,-2699.3656041771173
1712124743816,-2432.2064689311665
1712124743856,-2329.7479017041624
1712124743896,-2106.7950157071464
1712124743937,-1944.9969311570749
1712124743977,-1141.1223487979732
1712124744017,-516.0412226123735
1712124744057,595.551285073394
1712124744097,685.1357151870616
1712124744138,-874.64537154953
1712124744178,-3434.438341889996
1712124744218,-5200.906023958465
1712124744258,-5558.932669004425
1712124744298,-5946.560392098501
1712124744339,-5594.1278310203925
1712124744379,-5721.5043246317655
1712124744419,-5907.070994879352
1712124744459,-6203.010505207349
1712124744500,-6417.1341231158
1712124744541,-6585.545934701804
1712124744580,-6122.644232526654
1712124744621,-4874.617761160014
1712124744661,-3988.9865033710375
1712124744701,-3329.0521451281384
1712124744742,-3104.420196572086
1712124744781,-2647.5375991843175
1712124744822,-1351.9889123935718
1712124744862,-645.8781525362283
1712124744902,-1321.228024260141
1712124744943,-3260.0766039388254
1712124744983,-5111.789886651561
1712124745023,-6092.217971832724
1712124745063,-6115.495109591633
1712124745104,-5855.327559749596
1712124745144,-4769.428128364496
1712124745184,-4887.704811689444
1712124745224,-4574.9208668535575
1712124745265,-4507.519843220711
1712124745305,-3982.5984411076643
1712124745346,-3561.555926625617
1712124745385,-2998.5389654207975
1712124745427,-2445.679901048774
1712124745466,-1324.9359079673886
1712124745505,-660.0647459872998
1712124745544,-294.66290562064387
1712124745583,1031.6665160651319
1712124745622,1115.700367443962
1712124745661,1240.511469452409
1712124745700,-696.4499926080462
1712124745739,-3180.4968906040303
1712124745778,-4743.919752805261
1712124745817,-5271.619923111051
1712124745856,-6136.304172590608
1712124745895,-6619.810436391272
1712124745934,-6893.679261737736
1712124745973,-6941.350705062272
1712124746012,-6727.543917927891
1712124746051,-6288.746156719979
1712124746090,-6159.209025458433
1712124746129,-5924.454491115175
1712124746168,-4887.115422710311
1712124746207,-3910.597027932061
1712124746246,-2981.55641538091
1712124746285,-1822.9431048606057
1712124746324,-876.1944486554712
1712124746363,-491.08871111040935
1712124746402,330.42284303577617
1712124746441,-228.4341678675264
1712124746480,-2614.8366327744443
1712124746519,-4435.965234204661
1712124746559,-5816.390875737881
1712124746599,-6591.07731727371
1712124746639,-6749.894705702551
1712124746679,-6833.751475923229
1712124746719,-6463.951444241218
1712124746759,-6115.375638517318
1712124746799,-6191.758565895492
1712124746839,-6084.14222761523
1712124746879,-5167.438160283491
1712124746919,-4829.670841296902
1712124746959,-4165.168464466231
1712124746999,-3446.044376381673
1712124747039,-2506.891941927839
1712124747079,-1768.6339690319728
1712124747119,-676.1160623501055
1712124747159,955.6345300036483
1712124747199,1107.6706978208385
1712124747239,-760.7706728205085
1712124747279,-2938.2768669859506
1712124747319,-3790.2597852316685
1712124747359,-4257.345735539217
1712124747399,-4106.506427417509
1712124747439,-3851.562119667884
1712124747479,-3707.569378528511
1712124747519,-3653.7722127842717
1712124747559,-4173.437713845167
1712124747599,-4094.3754669078626
1712124747639,-3164.374629029073
1712124747679,-2420.855506879743
1712124747719,-1559.2647433588281
1712124747759,-242.2564296813216
1712124747799,111.96307032206096
1712124747839,246.39136125077493
1712124747879,1401.4692262758035
1712124747919,2423.5624117236584
1712124747959,2239.1874750484712
1712124747999,861.9880522643216
1712124748039,-1406.037178501254
1712124748079,-2305.6742187975906
1712124748119,-3099.0581656745635
1712124748159,-3234.5040035326965
1712124748199,-2591.9394263403956
1712124748239,-2206.525710707763
1712124748279,-2187.4154289416037
1712124748319,-1873.7432140975725
1712124748359,-1422.7109609644394
1712124748399,-1199.1407318040729
1712124748439,-1237.3238094723783
1712124748479,-247.47940336866304
1712124748519,899.4507491239347
1712124748559,1935.4888020036742
1712124748599,2260.8567755480763
1712124748639,2912.258545401506
1712124748679,4060.0200058103073
1712124748719,3582.257357726805
1712124748759,1267.1815311014652
1712124748799,-1330.4009441048838
1712124748839,-3198.2774417297915
1712124748879,-4324.568984834943
1712124748919,-5588.174873266602
1712124748959,-5553.0243681559805
1712124748999,-4771.3254505195655
1712124749039,-5050.2946263863705
1712124749079,-4242.169125461485
1712124749119,-4121.767501509748
1712124749159,-3850.449863644084
1712124749199,-2631.950527368579
1712124749239,-1663.5212566270493
1712124749279,-1020.1795657239854
1712124749319,-85.36534489458427
1712124749359,115.16708903107792
1712124749399,573.1707138945349
1712124749439,1665.7126919552684
1712124749479,1817.1053125415929
1712124749519,1047.5733090792783
1712124749559,-1146.6099233601708
1712124749599,-3071.978183171246
1712124749639,-5238.3137706969865
1712124749679,-6022.806145763723
1712124749719,-6757.080230621621
1712124749759,-7314.095988996793
1712124749799,-7377.923026393633
1712124749839,-8920.951782206073
1712124749879,-10144.765159053262
1712124749919,-10715.171361294575
1712124749959,-11254.535219796468
1712124749999,-11638.24811964063
1712124750039,-11323.729590678588
1712124750079,-11537.37284484366
1712124750119,-11508.427437744569
1712124750159,-11149.294450271875
1712124750199,-9040.512883493211
1712124750239,-9514.833567195805
1712124750279,-11871.047701564617
1712124750319,-13347.831037217751
1712124750359,-15259.731279418105
1712124750399,-13760.454278590158
1712124750439,-12447.364827607758
1712124750479,-12070.128129473887
1712124750519,-11714.190439564642
1712124750559,-10883.93619152042
1712124750599,-10201.95341179939
1712124750639,-8164.355477075791
1712124750679,-6480.287525616586
1712124750719,-5987.875292407814
1712124750759,-4325.618173957337
1712124750799,-1589.301895127399
1712124750839,-705.9886968876235
1712124750879,516.5095289410092
1712124750919,1850.1519846352749
1712124750959,-276.776294904761
1712124750999,-3213.011527240509
1712124751039,-13988.415331233991
1712124751079,-25151.172792671714
1712124751119,-32068.50235454808
1712124751159,-26442.53035091376
1712124751199,-17803.050651881378
1712124751239,-12515.705110628624
1712124751279,-6951.768430889584
1712124751319,2116.2144969333895
1712124751359,7217.214120038785
1712124751399,12898.822141536977
1712124751439,13149.084404589143
1712124751479,7321.084101573098
1712124751519,-1115.8769780814182
1712124751559,-2624.136539968429
1712124751599,-8155.474720645696
1712124751639,-13382.39428403601
1712124751679,-25574.11321123573
1712124751719,-39636.97943780897
1712124751759,-28551.56767967902
1712124751799,-16805.75006628316
1712124751839,-2195.819568602834
1712124751879,-5437.789590011351
1712124751919,-2679.895489068702
1712124751959,-41767.351561241085
1712124751999,-37125.50986925769
1712124752039,-41390.200916772475
1712124752079,-17798.708599229343
1712124752119,-2509.29799773125
1712124752159,21278.49110048404
1712124752199,27995.12316805194
1712124752239,33282.659543871414
1712124752279,9553.86496370961
1712124752319,13560.398340758868
1712124752359,15111.351471504197
1712124752399,8653.258643834153
1712124752439,1657.5872484801803
1712124752479,1506.142375110183
1712124752519,2938.5138220132794
1712124752559,1729.0140601161402
1712124752599,-1070.65638222103
1712124752639,-9984.925470255781
1712124752679,-63568.99141857214
1712124752719,-74347.3232531948
1712124752759,-62518.953497959534
1712124752799,-39941.67111833696
1712124752839,-38052.991347919684
1712124752879,-40744.19328647293
1712124752919,-35380.14998443122
1712124752959,-20846.7231678511
1712124752999,-7768.693206295837
1712124753039,-15690.727326443885
1712124753079,-26834.462014504243
1712124753119,-48219.32808447885
1712124753159,-47337.79915591725
1712124753199,-50942.746696152724
1712124753239,-14048.180327913724
1712124753279,-29824.61636774335
1712124753319,-23486.077395120403
1712124753359,-35781.2274105777
1712124753399,-42027.350454101805
1712124753439,-57383.89256937103
1712124753479,-55718.051881027175
1712124753519,-53854.902976988815
1712124753559,-30258.558522447944
1712124753599,-33002.62521190476
1712124753639,-22955.904513062444
1712124753679,-20851.0727879263
1712124753719,-9172.11870253086
1712124753759,6805.459091641009
1712124753799,-3858.922979651019
1712124753839,-25161.626739600208
1712124753879,-41368.56491673505
1712124753919,-36573.6418898846
1712124753959,6403.483117111027
1712124753999,-6480.924435895402
1712124754039,-50557.723361311946
1712124754079,-80989.89699299168
1712124754119,-86429.25982591836
1712124754159,-59065.7399406475
1712124754199,-41970.82537223818
1712124754239,-19892.204975911416
1712124754279,-18790.362305725925
1712124754319,-5144.034634295385
1712124754359,5589.616641876288
1712124754399,-8834.383114558877
1712124754439,6345.613826261368
1712124754479,16559.89328403538
1712124754519,-10969.902674788842
1712124754559,-1968.1871957969852
1712124754599,-3893.1439794760663
1712124754639,6527.122925967909
1712124754679,11270.961610329337
1712124754719,22620.591925433837
1712124754759,24398.350217350293
1712124754799,17697.744642713573
1712124754839,16262.194295662921
1712124754879,29572.316013521515
1712124754919,-19690.907600899693
1712124754959,-21579.712420977652
1712124754999,-11417.857310262043
1712124755039,-24844.72217548336
1712124755079,-14108.207196997479
1712124755119,21615.39338085195
1712124755159,37635.24390805815
1712124755199,7384.24911745335
1712124755239,6993.360973686911
1712124755279,12360.297023063758
1712124755319,41144.4544233114
1712124755359,23074.470475856215
1712124755399,1950.1221354976296
1712124755439,-23056.82484546653
1712124755479,-32395.244860379025
1712124755519,-34559.19019618537
1712124755559,-28711.074872821104
1712124755599,-38329.56979032513
1712124755639,-50685.21385595319
1712124755679,-38277.92717959592
1712124755719,-31145.458163463743
1712124755759,-26193.407030624803
1712124755799,4249.632881350815
1712124755839,14989.414791992866
1712124755879,26735.914572957437
1712124755919,7477.211890344741
1712124755959,-5157.4014522647485
1712124755999,-17409.382323227823
1712124756039,-21284.14274876984
1712124756079,-32570.312117444817
1712124756119,-39391.548077496234
1712124756159,-39029.183073884575
1712124756199,11406.775818815222
1712124756239,23110.595850692363
1712124756279,6593.243190590292
1712124756319,6689.624878046103
1712124756359,-4333.850116100628
1712124756399,-25858.860913877375
1712124756439,-31601.121830307413
1712124756479,-1569.479204320116
1712124756519,3217.118183462415
1712124756559,18578.54720109026
1712124756599,20007.272918472067
1712124756639,44034.00618840312
1712124756679,57466.51558657782
1712124756719,52968.10363864666
1712124756759,35423.9682437852
1712124756799,-3663.4853779494297
1712124756839,-53768.97848723037
1712124756879,-71400.42679069098
1712124756919,-47936.09291258524
1712124756959,-14949.440433799755
1712124756999,5811.136773455422
1712124757039,16655.435447911266
1712124757079,34110.94111086312
1712124757119,45841.821999904234
1712124757159,67701.53035747702
1712124757199,97933.59002295416
1712124757239,123083.32031170791
1712124757279,128033.8163794307
1712124757319,119382.25599845406
1712124757359,102736.54318653792
1712124757399,-15053.93787871045
1712124757439,-11824.703166462714
1712124757528,-3659.5248174297158
1712124757569,-20153.368172950577
1712124757609,-10743.350157729117
1712124757649,-8998.269861960784
1712124757689,-9305.294431767892
1712124757729,-6178.024244789034
1712124757770,-2724.7366645343136
1712124757809,-1400.4243040960282
1712124757849,-446.4676576512866
1712124757889,-3608.8426845481154
1712124757929,-2711.164448039839
1712124757970,-781.9260308253579
1712124758010,1882.79710296751
1712124758050,3589.6863295915537
1712124758090,16001.746606646804
1712124758130,27462.377797868336
1712124758171,71709.48400933063
1712124758210,87027.5946910074
1712124758250,79961.46574487886
1712124758290,56420.400220609736
1712124758331,24564.239527739584
1712124758371,7351.411820542999
1712124758411,4378.34354092693
1712124758451,-1117.5428605321795
1712124758491,-19910.506289347773
1712124758531,-36023.39313926874
1712124758572,-48872.94441918214
1712124758611,-46795.35416985862
1712124758651,-40875.79818982654
1712124758692,-24219.1667449777
1712124758731,98179.55666982243
1712124758772,96100.90598329809
1712124758812,86676.43680273881
1712124758852,95778.63430890208
1712124758892,92429.05635749688
1712124758932,90867.5121556453
1712124758973,87093.45749894367
1712124759012,84325.86121529108
1712124759053,81128.94426558493
1712124759093,80817.74351989385
1712124759133,80005.063218266
1712124759174,49655.28489150666
1712124759213,48860.83997312933
1712124759253,49305.72232610732
1712124759293,41864.429330709856
1712124759333,42931.675968147814
1712124759374,43182.97312956839
1712124759414,54500.18066896009
1712124759454,54877.916333764326
1712124759494,58792.4371002214
1712124759534,55842.03962945077
1712124759575,47662.39995540073
1712124759614,38215.07813783805
1712124759654,30563.763169192243
1712124759694,24638.20787037094
1712124759734,19258.204622611403
1712124759775,16630.81848461111
1712124759815,15147.05962862866
1712124759855,15410.102832757868
1712124759895,14048.733981953468
1712124759935,12341.600493015721
1712124759976,10665.060088884551
1712124760015,9372.039721719455
1712124760055,7518.816207604716
1712124760095,6829.563805846032
1712124760136,5783.516699427273
1712124760176,4752.647053344175
1712124760216,1304.853580456227
1712124760256,1071.7398622052278
1712124760296,-1372.0212606242858
1712124760336,-3893.1658174237236
1712124760377,-7141.486549407244
1712124760416,-12215.09652536083
1712124760458,16223.387638772838
1712124760497,13532.452967329882
1712124760537,10877.68641576916
1712124760578,13439.354759156704
1712124760617,10075.201319531072
1712124760657,8996.389191831462
1712124760697,8716.051332183182
1712124760738,7492.007461175788
1712124760778,8227.9205562165
1712124760818,9160.573556082323
1712124760858,9482.088395138038
1712124760898,10557.713278613985
1712124760938,10088.262343448354
1712124760979,8491.965684016235
1712124761018,6751.579782515764
1712124761058,4058.241134951357
1712124761098,1053.4600972819608
1712124761138,-1115.0388301471248
1712124761179,-2424.8780536644626
1712124761219,-3816.268557694275
1712124761259,-4369.2114275237545
1712124761299,-5170.266025544144
1712124761339,-5511.223179761786
1712124761379,-6315.618286962388
1712124761419,-6700.0658485724125
1712124761459,-6709.0395738524385
1712124761499,-7090.08484950196
1712124761539,-7047.1635623411275
1712124761580,-5643.179305769969
1712124761619,-5048.872147828806
1712124761659,-5016.344801394269
1712124761700,-4314.242980133509
1712124761740,-4416.995167603949
1712124761780,-5621.352078672964
1712124761820,-8437.204299403355
1712124761860,-9729.671316242777
1712124761900,-10965.430179592222
1712124761940,-12347.148819379043
1712124761981,-12617.497703610454
1712124762020,-12386.455490718596
1712124762061,-11971.152206972009
1712124762101,-11932.67825391679
1712124762141,-11821.26744163828
1712124762182,-11928.167445156258
1712124762221,-11131.88813993358
1712124762261,-10178.048060381785
1712124762302,-10062.058711740887
1712124762342,-9204.886890659342
1712124762383,-8729.786414594622
1712124762422,-7946.336449230555
1712124762462,-6961.578731242567
1712124762502,-7064.835525713861
1712124762543,-9338.385479290504
1712124762583,-10941.901539464248
1712124762623,-12505.60174809955
1712124762665,-12661.629696796415
1712124762705,-12526.76742265257
1712124762746,-12561.589158003684
1712124762787,-11732.912332918262
1712124762826,-11297.827240796294
1712124762866,-12011.98276940477
1712124762907,-11945.203646489652
1712124762947,-11364.912916423287
1712124762988,-10696.952787342481
1712124763027,-9767.966005428229
1712124763067,-8879.22892934503
1712124763108,-7549.809356941376
1712124763148,-6987.527363708476
1712124763189,-6846.384626348969
1712124763229,-8764.281648172531
1712124763269,-10572.158605552977
1712124763309,-16763.905169869773
1712124763349,-16922.52312258887
1712124763390,-14655.426569739357
1712124763430,-13307.781922796974
1712124763472,-12371.654234458692
1712124763511,-20348.365213797195
1712124763551,-28075.444345134776
1712124763592,-39624.36692758743
1712124763631,-45600.03652640851
1712124763671,-43213.91101237526
1712124763712,-37465.66200799425
1712124763752,-30783.755159552675
1712124763793,-21623.90924029099
1712124763832,-9243.957832869608
1712124763873,3332.6340345181525
1712124763913,17028.588275416754
1712124763953,7045.481834871462
1712124763994,7404.4869342655875
1712124764034,20700.090468463022
1712124764074,13756.605303526856
1712124764114,13230.191775999963
1712124764154,15752.607231137808
1712124764195,19093.580477550393
1712124764235,24166.099887021817
1712124764275,34087.350653979694
1712124764315,34347.268154878635
1712124764356,29536.465232045855
1712124764397,26876.964334730525
1712124764436,23433.28399430914
1712124764477,13420.715748914983
1712124764517,9900.54521390656
1712124764557,-5408.523016265826
1712124764598,-62.56736061535776
1712124764638,12318.33365698019
1712124764678,13401.490037085721
1712124764718,17173.11190304812
1712124764758,17431.426813309547
1712124764799,20070.697340546176
1712124764839,29708.142212216044
1712124764879,67319.6992513868
1712124764919,99082.36757517839
1712124764959,109335.1857595169
1712124765000,90220.02354493272
1712124765039,64197.382319237106
1712124765080,64585.29100458883
1712124765120,69519.44440843537
1712124765160,59636.72248706408
1712124765201,53149.160726127215
1712124765240,73084.9397313532
1712124765280,58248.41928016301
1712124765321,42658.477072339505
1712124765361,42791.059597831685
1712124765402,48917.939671764616
1712124765441,37485.038677650504
1712124765481,37330.02407427202
1712124765521,40781.935475676786
1712124765562,30131.898586223368
1712124765603,24776.350988534512
1712124765642,33057.04114073608
1712124765685,27684.699873007834
1712124765722,16943.135500852717
1712124765763,16227.242349568056
1712124765804,29185.068999602925
1712124765843,33387.057999417884
1712124765883,26983.532279778738
1712124765924,12110.160485434812
1712124765964,8849.527664165478
1712124766005,13946.971219331957
1712124766044,28875.01581491134
1712124766084,39655.71146128001
1712124766124,48831.37360678101
1712124766165,43072.132718245266
1712124766206,17482.51829072414
1712124766246,9967.579636881594
1712124766286,30778.524595255032
1712124766326,32356.281306399498
1712124766366,8397.780551187461
1712124766408,19135.613271048293
1712124766447,37781.28092774586
1712124766489,44865.4138340496
1712124766528,39284.14465908916
1712124766568,28192.031881156377
1712124766609,34956.36040492356
1712124766648,40828.139079344226
1712124766688,1463.7125584501773
1712124766729,31553.215579806827
1712124766769,43709.29187603947
1712124766810,42917.95304606622
1712124766850,31336.441681877244
1712124766890,12559.385528431274
1712124766930,-2366.2569221556187
1712124766970,-21494.402653858066
1712124767011,-23986.423878348432
1712124767051,-16865.328234330285
1712124767091,-31404.764082926326
1712124767131,-38547.14002959803
1712124767172,-46788.377792909276
1712124767213,-35741.66805528756
1712124767252,-26258.128701694775
1712124767292,-31315.077722323593
1712124767333,-36145.68623676058
1712124767373,-26891.280309805647
1712124767414,-23625.793786540627
1712124767453,-24445.9319763612
1712124767494,-25484.65159936063
1712124767534,-28931.52741367137
1712124767574,-43470.09906922188
1712124767615,-43636.16531376261
1712124767655,-35835.85848023463
1712124767695,-28661.993281152565
1712124767735,-36316.73829350434
1712124767775,-40997.31772726728
1712124767816,-41239.40092092194
1712124767856,-20224.640147112776
1712124767899,-11514.490286626853
1712124767936,-2469.5014581438154
1712124767977,26965.679652294144
1712124768018,14120.432545197196
1712124768057,2710.782057918608
1712124768097,3328.2413311367854
1712124768138,577.5249979658984
1712124768178,14857.541618798161
1712124768219,24989.502066863235
1712124768258,13780.05325206765
1712124768298,-12685.966356271878
1712124768339,-68495.5206403723
1712124768379,-74056.00424478622
1712124768420,-46697.13633625209
1712124768459,-15461.286958834156
1712124768499,-27181.992983400356
1712124768539,-43097.97483185213
1712124768580,-41881.4757675142
1712124768620,-39103.07164409477
1712124768660,-50532.87161489064
1712124768700,-63933.909473187756
1712124768740,-72166.24213576643
1712124768780,-65200.85114212707
1712124768821,-62948.57527290657
1712124768861,-58421.761284165084
1712124768901,-52250.04735485604
1712124768941,-54109.5918324301
1712124768981,-57618.50630997657
1712124769022,-57520.64163908106
1712124769062,-54066.267839455046
1712124769102,-56883.26461327588
1712124769142,-63037.16014205967
1712124769182,-75297.44620723044
1712124769223,-89842.62213848019
1712124769263,-87420.33477225062
1712124769303,-88415.15255262982
1712124769343,-91335.15331905568
1712124769383,-98032.73141293088
1712124769424,-89716.97746276483
1712124769464,-91248.40847753873
1712124769505,-96419.58797188406
1712124769545,-73049.14111354109
1712124769584,-45486.06313361414
1712124769623,704.4937554518692
1712124769662,3767.5680573738646
1712124769701,-15092.306572386064
1712124769740,-35898.90312020923
1712124769779,-28771.94626930752
1712124769818,-16537.721605459228
1712124769857,-22248.708909990033
1712124769896,-30241.58443512302
1712124769935,-34943.98091105977
1712124769974,-33569.4331208705
1712124770013,-34095.01520781848
1712124770052,-34765.259189595
1712124770091,-35272.5388231168
1712124770130,-35225.51201749919
1712124770169,-33854.771834183484
1712124770208,-32531.219730227487
1712124770247,-31544.010815981776
1712124770286,-29886.5898395204
1712124770325,-28795.82700490835
1712124770364,-27628.220227758866
1712124770404,-25494.735028225696
1712124770444,-24004.97354227188
1712124770484,-21716.134514934383
1712124770524,-19779.38968451973
1712124770564,-20058.455409141257
1712124770604,-22862.250911094714
1712124770644,-23795.158759202808
1712124770684,-24165.621631692164
1712124770724,-23725.975087773055
1712124770764,-22895.570838036016
1712124770804,-21663.913068013964
1712124770844,-22074.407521132613
1712124770884,-19672.665391976945
1712124770924,-18936.447686050553
1712124770964,-17435.250420490745
1712124771004,-14486.16624144651
1712124771044,-12542.085527335526
1712124771084,-11106.828584778588
1712124771124,-8655.401876240037
1712124771164,-7103.8724479964
1712124771204,-5328.281183649786
1712124771244,-3329.96051396057
1712124771284,-3529.4364712894894
1712124771324,-6384.355482592247
1712124771364,-8647.586357922759
1712124771404,-9229.345834469656
1712124771444,-8861.49960681959
1712124771484,-8070.667964781169
1712124771524,-7232.8659924031235
1712124771564,-6362.78490461316
1712124771604,-5479.593402316095
1712124771644,-4959.96298276633
1712124771684,-3963.6933269659057
1712124771724,-1789.8166192332283
1712124771764,-228.16816588747315
1712124771804,813.0361894322559
1712124771844,2586.1225405421574
1712124771884,5197.2377602451015
1712124771924,6484.934430461377
1712124771964,7616.123336100485
1712124772004,8717.039283933118
1712124772044,7231.079326612875
1712124772084,4082.580471087247
1712124772124,2777.2277463728096
1712124772164,2070.2314871319104
1712124772204,2519.541051191278
1712124772244,3603.397708108183
1712124772284,4995.220840487629
1712124772324,5517.380144339986
1712124772364,6053.912405272946
1712124772404,6039.895384893054
1712124772444,7285.6050819349475
1712124772484,8680.543286659755
1712124772524,9150.957604178693
1712124772564,12305.895575358067
1712124772604,16313.475294437725
1712124772644,18622.360889822245
1712124772684,20940.89616950648
1712124772724,24537.193446229212
1712124772764,26661.922607699875
1712124772804,26255.975140423747
1712124772844,20160.024417276494
1712124772884,13301.01539334841
1712124772924,14189.674079727847
1712124772964,13234.018136120401
1712124773004,12061.555828601355
1712124773044,11543.699625023874
1712124773084,9295.847482356941
1712124773124,8236.335705780191
1712124773164,7378.3612152617425
1712124773204,7525.382686269237
1712124773244,8429.09734275844
1712124773284,8594.537801622879
1712124773324,9336.225970707834
1712124773364,10976.4611987737
1712124773404,11687.340222550323
1712124773444,12173.640623305924
1712124773484,13038.774222985143
1712124773524,14722.894570643315
1712124773564,15236.358247785829
1712124773604,14344.062499107793
1712124773644,12593.840295291506
1712124773684,11463.187478924869
1712124773724,11043.300609290367
1712124773764,12343.524991594255
1712124773804,14329.16493428615
1712124773844,14207.419616890606
1712124773884,14056.6078998351
1712124773924,14414.043572852388
1712124773964,15762.538276355248
1712124774004,16542.489158147015
1712124774044,17281.865300477948
1712124774084,17112.39099669922
1712124774124,18945.958297188394
1712124774164,21769.80502450047
1712124774204,20387.410806004656
1712124774244,20871.842765957583
1712124774284,22389.75402761344
1712124774324,20792.243520065676
1712124774364,19073.27710064128
1712124774404,16191.31270528934
1712124774444,14789.191654813709
1712124774484,14588.344155487139
1712124774524,14401.167734206654
1712124774564,14113.796295435168
1712124774604,14136.649213667959
1712124774644,13471.782393464586
1712124774684,12624.69076198712
1712124774724,13163.170471155783
1712124774764,13746.951939184684
1712124774804,13678.071802705294
1712124774844,14571.978451392613
1712124774884,15237.683800749015
1712124774924,15430.116432669805
1712124774964,15739.891023392789
1712124775004,16445.441269863397
1712124775044,17342.787700093584
1712124775084,17169.935293334303
1712124775124,16164.154571773019
1712124775164,13905.860092543531
1712124775204,12073.152595191263
1712124775244,10551.226325361524
1712124775284,10210.399698141497
1712124775324,10063.819281558506
1712124775364,9976.534738719929
1712124775404,10344.223059989512
1712124775444,10735.611576714553
1712124775484,10703.248982080258
1712124775524,10900.658155037556
1712124775564,11092.411046437686
1712124775604,12197.179358105175
1712124775644,12654.715958820656
1712124775684,13078.708905609557
1712124775724,13757.62024111487
1712124775764,14068.184828221332
1712124775804,14710.55660079047
1712124775844,16157.864209527615
1712124775884,16276.970236392692
1712124775924,15682.744370505214
1712124775964,13845.415565402247
1712124776004,11640.767207523808
1712124776044,10819.6466028851
1712124776084,11055.99902019184
1712124776124,10815.403399799485
1712124776164,11086.425430448959
1712124776204,11171.73084474518
1712124776244,11038.309495494235
1712124776284,10553.248878689948
1712124776324,10716.42053697398
1712124776364,11880.694183056476
1712124776404,12353.469725052826
1712124776444,12406.972473678645
1712124776484,12904.655224456452
1712124776524,13485.138305424945
1712124776564,13456.854838730767
1712124776604,14594.257464431459
1712124776644,15528.833054426126
1712124776684,15975.119262419641
1712124776724,15269.843538220273
1712124776764,13298.950226486195
1712124776804,10457.734922377625
1712124776844,9596.141110633966
1712124776884,9223.093392519513
1712124776924,9024.498740043025
1712124776964,8949.747907358222
1712124777004,9306.124000104377
1712124777044,8805.928581713466
1712124777084,8303.060313337483
1712124777124,8294.83852997981
1712124777164,8452.755816296907
1712124777204,8679.046024281997
1712124777244,8857.397906952538
1712124777284,9350.665626675822
1712124777324,10361.98033934203
1712124777364,11142.290795301553
1712124777404,11989.625237606699
1712124777444,11703.337908012327
1712124777484,11961.335122477496
1712124777524,11002.56665428495
1712124777564,8811.143813108094
1712124777604,6495.514653339982
1712124777644,5469.805994945578
1712124777684,5531.16828949796
1712124777724,6036.461744516389
1712124777764,6686.528262541862
1712124777804,6006.879359259736
1712124777844,4724.532513940241
1712124777884,3517.09543561982
1712124777924,3741.7759571769275
1712124777964,4463.339963146485
1712124778004,5021.607414935017
1712124778044,5520.406290379353
1712124778084,6735.256779162213
1712124778124,6921.941615246469
1712124778164,7230.332189097535
1712124778204,8133.067574435845
1712124778244,9592.555247696815
1712124778284,9524.171264679637
1712124778324,7605.404156245291
1712124778364,5699.146365402266
1712124778404,4453.907191215549
1712124778444,5172.142738219118
1712124778484,5595.75461021089
1712124778524,6717.726748459972
1712124778564,7208.896797953406
1712124778604,5926.076901626075
1712124778644,5421.261293707881
1712124778684,5342.7627794067375
1712124778724,6073.760491807945
1712124778764,7064.255861915881
1712124778804,6986.330340696033
1712124778844,8022.641838875599
1712124778884,8937.891122827306
1712124778924,9073.932932682103
1712124778964,9422.863549943082
1712124779004,9598.620449985145
1712124779044,8279.119328853209
1712124779084,6361.823709412944
1712124779124,4554.795318285003
1712124779164,3627.138619914418
1712124779204,4255.457907289267
1712124779244,4258.883624274982
1712124779284,4189.961345381569
1712124779324,3654.5257322588004
1712124779364,2887.532711849548
1712124779404,2519.328441912774
1712124779444,2330.111417947104
1712124779484,2737.640763777541
1712124779524,2841.96524638799
1712124779564,3526.1788947070017
1712124779604,3962.6459916415624
1712124779644,4580.475964266574
1712124779684,4568.978853974957
1712124779724,4657.197683827486
1712124779764,5197.223672780674
1712124779804,3630.1211789934896
1712124779844,236.5609558946453
1712124779884,-1574.5595516874455
1712124779924,-2954.502236576518
1712124779964,-3098.2455781302415
1712124780004,-3218.8930184748024
1712124780044,-2985.6354515326675
1712124780084,-2766.297152743209
1712124780124,-3456.8811511266977
1712124780164,-3890.213971127523
1712124780204,-3967.0608443534
1712124780244,-2816.5522890938446
1712124780284,-1719.9151859022677
1712124780324,-1478.7644352745265
1712124780364,-953.5934718076605
1712124780404,435.3841628334485
1712124780444,757.2399844792672
1712124780484,747.4927576836199
1712124780524,1597.6738468066324
1712124780564,1192.7444185363129
1712124780604,-850.0822758155409
1712124780644,-3630.837598511949
1712124780684,-4234.129712403752
1712124780724,-4218.6749171915
1712124780764,-4564.2016680014785
1712124780804,-3969.635248458013
1712124780844,-3795.1036148173735
1712124780884,-3700.603993706405
1712124780924,-3907.257638721727
1712124780964,-3276.2449568768498
1712124781004,-2844.7720900797285
1712124781044,-1852.3786472058855
1712124781084,-1924.7998292944394
1712124781124,-1106.552847142797
1712124781164,-566.8676294779871
1712124781204,247.367434553802
1712124781244,500.94382884842344
1712124781284,1177.17138339323
1712124781324,1522.5330391854513
1712124781364,982.500141935423
1712124781404,-1406.5222022503149
1712124781444,-3316.748969589593
1712124781484,-3247.596268146299
1712124781524,-3413.689571756171
1712124781573,-3064.452460142318
1712124781613,-2569.9846487953328
1712124781653,-2930.69604621036
1712124781693,-4254.4472148695495
1712124781733,-3647.165205411613
1712124781773,-3139.1958770859055
1712124781814,-2213.5728097413667
1712124781853,-1662.236268253997
1712124781894,-1329.2846375820227
1712124781933,-599.6029623218346
1712124781974,-107.46907651890069
1712124782015,99.6660358516965
1712124782054,1174.8677748783957
1712124782094,1753.1054490115494
1712124782134,2259.927871857537
1712124782174,2230.093958904268
1712124782215,-10.800756023265421
1712124782254,-1389.462372855749
1712124782294,-1759.9850252321921
1712124782334,-1342.9794626603834
1712124782375,-289.3830497406889
1712124782415,534.8314519980922
1712124782455,1479.7635888892692
1712124782495,1187.0016660154797
1712124782535,1457.5917755290866
1712124782575,2291.744013356045
1712124782616,3302.7499537181575
1712124782655,3257.6283492031507
1712124782695,3967.039435461862
1712124782736,4851.626886291429
1712124782776,4903.795649121515
1712124782816,5898.737946917303
1712124782856,6657.795874892734
1712124782896,7384.65937907761
1712124782936,7878.796390230767
1712124782976,8347.068694571964
1712124783017,6809.31093695946
1712124783056,4401.522778978106
1712124783097,3292.563808705192
1712124783137,3700.0923491760623
1712124783177,3550.015306584537
1712124783218,4235.878747976385
1712124783257,5116.278388298117
1712124783297,4570.6273274624255
1712124783337,5014.169645983959
1712124783377,4992.979616015917
1712124783418,5857.545994055457
1712124783457,6131.139159854967
1712124783497,6833.227583786938
1712124783537,7146.507069911808
1712124783578,8062.744624205865
1712124783618,7568.203916869592
1712124783658,8299.22905464028
1712124783698,8138.013480493799
1712124783738,8371.270037026843
1712124783778,8901.827457363484
1712124783819,8458.708321506856
1712124783858,6208.526232939679
1712124783898,4243.959608640056
1712124783939,3766.786655017175
1712124783979,3800.698763018474
1712124784019,4033.1643874708097
1712124784059,4785.882305608597
1712124784099,4547.048519399017
1712124784139,4578.359058366157
1712124784179,4220.04707664554
1712124784220,4991.67198009463
1712124784259,5773.994918221608
1712124784300,6379.973212161567
1712124784340,7492.746763651492
1712124784380,8249.6030567165
1712124784421,8202.92095300369
1712124784460,8980.403287707362
1712124784501,9640.389819449978
1712124784540,9608.674926429987
1712124784580,10707.237077170052
1712124784621,9282.887301007286
1712124784660,7340.653536559083
1712124784700,6100.965258445591
1712124784741,6148.9537631375715
1712124784781,6922.949698850978
1712124784821,7816.805366144283
1712124784861,7367.711683921516
1712124784901,7641.686064165086
1712124784941,7272.5245342287235
1712124784981,7711.350467721932
1712124785022,8028.6980119715445
1712124785062,8616.663426369661
1712124785102,9385.948385893367
1712124785142,9935.874337494373
1712124785182,9892.880645758007
1712124785223,11112.261909590103
1712124785262,11784.605783185223
1712124785302,12426.670759990811
1712124785342,12789.20956290816
1712124785383,12967.941770644393
1712124785423,11063.2776313168
1712124785463,8527.351509559434
1712124785503,7573.1059161317535
1712124785543,7250.930778260343
1712124785583,7282.228720148094
1712124785624,7006.6745111634955
1712124785663,7503.572661349084
1712124785703,6956.7600209475495
1712124785744,6904.8867691012565
1712124785784,6482.821912570158
1712124785824,7361.030274875928
1712124785864,7097.707175320713
1712124785904,7107.928592949873
1712124785944,7486.084944209084
1712124785984,7741.316173102241
1712124786025,8131.131639515981
1712124786065,8302.140624234919
1712124786105,8652.515307219233
1712124786145,8996.550892187748
1712124786185,10001.47639806103
1712124786226,8408.117680229712
1712124786265,6107.382194638252
1712124786305,4624.752838740824
1712124786346,4492.16927761049
1712124786386,3774.096546743065
1712124786426,4051.942523548845
1712124786466,5297.191127497936
1712124786506,3963.019316642545
1712124786546,3239.268589025829
1712124786586,3187.612085165223
1712124786627,3511.2553608203307
1712124786667,3372.184788702987
1712124786707,3446.8371376243886
1712124786747,4048.1318183806725
1712124786787,4277.447138411924
1712124786828,4273.322527565062
1712124786867,5125.6294478287455
1712124786907,4950.572725908831
1712124786948,4903.606371330563
1712124786988,5616.861331606284
1712124787029,5800.379265289521
1712124787068,3807.7661665566266
1712124787108,1011.4586698294152
1712124787148,653.5469038137235
1712124787189,1157.325522907311
1712124787229,792.0713982637972
1712124787269,1243.8741467501968
1712124787309,1624.2454648537096
1712124787349,1209.4862836101092
1712124787389,371.2555110936519
1712124787430,717.479518066626
1712124787469,450.3713061287999
1712124787511,1000.5824205919635
1712124787550,1182.348823275417
1712124787590,1103.1679116976447
1712124787631,879.1568643383216
1712124787670,1862.3531462983228
1712124787710,2604.74733598507
1712124787750,2439.330928391777
1712124787790,3230.1928676809184
1712124787831,2614.9356415728107
1712124787870,627.3179008029401
1712124787910,-1229.559346752707
1712124787950,-1362.7713335617445
1712124787990,-1271.4286366787273
1712124788031,-624.105659340974
1712124788071,-167.92789851222187
1712124788111,576.8990398030728
1712124788151,-427.0848752283491
1712124788191,410.41577335307375
1712124788232,681.2644688384607
1712124788271,1753.0336987474002
1712124788311,1806.500319512561
1712124788351,3267.561566316057
1712124788391,4072.6869887672365
1712124788432,3906.896249050973
1712124788471,3963.890232575126
1712124788512,4958.042513977969
1712124788552,5421.816930127563
1712124788592,4501.321579952724
1712124788633,3013.02456876263
1712124788672,532.2243908373639
1712124788712,-732.4106123819947
1712124788752,-754.232480423525
1712124788792,-255.8050543065183
1712124788833,63.264978358056396
1712124788873,68.86146453022957
1712124788913,205.2827973032836
1712124788953,-137.72275796881877
1712124788993,332.44657262135297
1712124789034,926.2447360160295
1712124789073,1506.2396055830177
1712124789113,1823.3587066447362
1712124789153,2669.407814535778
1712124789193,3244.4951394244563
1712124789234,2909.1114665041678
1712124789274,4176.585393806454
1712124789314,4957.3186841481365
1712124789354,4556.110920616891
1712124789394,3884.2040665950626
1712124789435,2073.175533427624
1712124789474,-998.1886811731383
1712124789514,-1945.926996477414
1712124789554,-2676.6288858470507
1712124789595,-2812.2153921630234
1712124789635,-3640.41582541517
1712124789674,-3764.149520839099
1712124789715,-3810.367882208433
1712124789755,-3625.304554415634
1712124789795,-3462.7814660898875
1712124789836,-3397.297313468065
1712124789875,-2427.803971530404
1712124789915,-1619.7926108795218
1712124789955,-1063.2818167428486
1712124789995,-163.58288443926722
1712124790036,15.03680337453261
1712124790076,32.61172578902915
1712124790116,680.2162750568241
1712124790156,1491.0623051035218
1712124790196,1406.6917398436926
1712124790236,-433.20373540744185
1712124790276,-3640.1893573021516
1712124790316,-5067.17837965535
1712124790356,-5896.33422385063
1712124790396,-5844.531672193203
1712124790437,-6884.103178661782
1712124790476,-6761.19048724696
1712124790518,-6139.43719292176
1712124790557,-6848.813509833068
1712124790597,-6933.315810325788
1712124790638,-5655.271390338428
1712124790677,-5322.700989079196
1712124790717,-5147.099055100698
1712124790757,-4216.87092824094
1712124790797,-3459.775816523237
1712124790838,-2993.652872210834
1712124790877,-1756.5214209989645
1712124790918,-230.6817103154026
1712124790958,426.62533501768485
1712124790998,781.0575320357457
1712124791038,-116.31962253665552
1712124791078,-2540.95627718186
1712124791118,-4400.3827179889195
1712124791158,-5334.521658111364
1712124791198,-5305.699412492337
1712124791239,-5072.845800983487
1712124791279,-4782.069178756326
1712124791318,-4639.67327246163
1712124791358,-4804.102451046929
1712124791399,-4952.370809779037
1712124791439,-3974.4781554630026
1712124791479,-3278.5012555262074
1712124791519,-2883.5046380886342
1712124791559,-2138.73460974684
1712124791599,-1551.2846148146782
1712124791640,-282.17142349714413
1712124791679,12.577501500025392
1712124791719,1767.6844469797798
1712124791760,2182.0659654552583
1712124791800,2099.2641524556093
1712124791840,2256.7610699795187
1712124791880,1134.3246896199416
1712124791920,-1331.648011919111
1712124791960,-3270.6078353649937
1712124792000,-3273.3385729403235
1712124792041,-2797.7827641572803
1712124792080,-3236.565784547478
1712124792121,-2301.860406518681
1712124792161,-2619.970507287886
1712124792201,-3407.0796304363757
1712124792242,-3073.3461619103327
1712124792281,-2698.1081337099895
1712124792321,-2240.475070902612
1712124792362,-1637.0388899075333
1712124792402,-386.8052915695589
1712124792443,753.6480937162414
1712124792482,916.4589523831382
1712124792522,1774.8356741531752
1712124792562,2431.2775411121547
1712124792603,3601.5479586066213
1712124792643,3310.6219738612417
1712124792683,1826.0246913677547
1712124792723,328.72063049441203
1712124792763,-155.96745010698214
1712124792803,409.34150050068274
1712124792844,1716.5547296477016
1712124792883,2640.05898627406
1712124792923,2903.4132046794984
1712124792964,3422.2121814349666
1712124793004,2766.5250670756213
1712124793045,3130.8795396874193
1712124793084,4755.403354019858
1712124793124,5790.3434640895575
1712124793164,5991.440868697129
1712124793204,6315.518878975883
1712124793245,7203.636627346743
1712124793285,7413.566019283608
1712124793325,8032.977897358825
1712124793365,9197.905365570914
1712124793405,7521.803668659413
1712124793446,5428.9100057901815
1712124793485,4152.012992640259
1712124793527,4221.864600175759
1712124793566,3960.379684709478
1712124793648,4287.842958266381
1712124793689,4944.288595047081
1712124793729,4708.870748874964
1712124793769,3986.6023112428375
1712124793809,3602.589358722791
1712124793849,4195.365318031516
1712124793890,4842.3064028145745
1712124793929,4891.3149200771
1712124793970,5316.342993143946
1712124794010,6048.8485544745345
1712124794050,5872.846580085577
1712124794091,6711.049224940129
1712124794130,6887.285618766677
1712124794170,6802.533386585768
1712124794210,4493.515945616178
1712124794250,1976.4172333425377
1712124794291,277.83747070794925
1712124794331,130.97014919202775
1712124794370,205.0229481770657
1712124794411,-482.2032695719972
1712124794451,51.65428111376241
1712124794492,181.70779435476288
1712124794531,94.86069735325873
1712124794571,-289.40643504587933
1712124794611,230.46915742428973
1712124794651,352.65948198828846
1712124794692,748.5485399216413
1712124794732,881.1261710235849
1712124794772,1053.0577192869969
1712124794812,1524.5224780337885
1712124794852,1187.5507707362995
1712124794893,2228.0840209536254
1712124794932,2971.8862144313753
1712124794972,1812.1292262305506
1712124795012,-930.0533837932162
1712124795052,-2439.3726356322877
1712124795093,-2638.1511496594176
1712124795133,-1854.29910461884
1712124795173,-2203.8655108830426
1712124795213,-1289.539355746936
1712124795253,-1667.2929019688163
1712124795294,-1829.5210690028034
1712124795333,-1765.1479391769972
1712124795373,-1640.0179810882546
1712124795413,-1035.7778983300086
1712124795453,-652.692999321036
1712124795494,-414.90894487593323
1712124795534,98.1177809718065
1712124795574,262.21930862916633
1712124795614,1469.1022810442373
1712124795654,2372.797655715607
1712124795695,2790.2667534044012
1712124795734,2471.6789660800714
1712124795774,1268.495424282737
1712124795814,-877.7144609563984
1712124795854,-2351.3938397495076
1712124795895,-2430.807657338213
1712124795934,-1955.7151814796962
1712124795974,-2148.71120100189
1712124796015,-1992.4537366423756
1712124796055,-2257.7485337131657
1712124796095,-2928.8434543176554
1712124796135,-2854.7350295155775
1712124796175,-2778.812336994568
1712124796215,-2338.656267671846
1712124796255,-2296.5095480419695
1712124796296,-1761.6595637449063
