dataReceived,timestamp,ppg,status
1712124661131,1712124649093,2121670,0
1712124661131,1712124649134,2122343,0
1712124661131,1712124649173,2123184,0
1712124661131,1712124649213,2123719,0
1712124661131,1712124649253,2123425,0
1712124661131,1712124649294,2122350,0
1712124661131,1712124649335,2121553,0
1712124661131,1712124649374,2121128,0
1712124661131,1712124649414,2121059,0
1712124661131,1712124649454,2121079,0
1712124661131,1712124649494,2121344,0
1712124661131,1712124649535,2121594,0
1712124661131,1712124649574,2121503,0
1712124661131,1712124649614,2121598,0
1712124661131,1712124649655,2122023,0
1712124661131,1712124649694,2122319,0
1712124661131,1712124649736,2122663,0
1712124661131,1712124649775,2122766,0
1712124661131,1712124649815,2122720,0
1712124661131,1712124649855,2123360,0
1712124661131,1712124649895,2124299,0
1712124661131,1712124649936,2124708,0
1712124661131,1712124649975,2125191,0
1712124661131,1712124650015,2124786,0
1712124661131,1712124650055,2123109,0
1712124661131,1712124650095,2121707,0
1712124661131,1712124650137,2121255,0
1712124661131,1712124650176,2121404,0
1712124661131,1712124650218,2123245,0
1712124661131,1712124650256,2124326,0
1712124661131,1712124650296,2124871,0
1712124661131,1712124650337,2125081,0
1712124661131,1712124650376,2125304,0
1712124661131,1712124650416,2125675,0
1712124661131,1712124650456,2126021,0
1712124661131,1712124650497,2126552,0
1712124661131,1712124650537,2126831,0
1712124661131,1712124650577,2127306,0
1712124661131,1712124650617,2127904,0
1712124661131,1712124650657,2128403,0
1712124661131,1712124650697,2129028,0
1712124661131,1712124650738,2129384,0
1712124661131,1712124650777,2129145,0
1712124661131,1712124650817,2128199,0
1712124661131,1712124650858,2127775,0
1712124661131,1712124650898,2128338,0
1712124661131,1712124650939,2129207,0
1712124661131,1712124650978,2130378,0
1712124661131,1712124651019,2130939,0
1712124661131,1712124651058,2126794,0
1712124661131,1712124651098,2117239,0
1712124661131,1712124651139,2116294,0
1712124661131,1712124651178,2117753,0
1712124661131,1712124651219,2119351,0
1712124661131,1712124651259,2120823,0
1712124661131,1712124651299,2120911,0
1712124661131,1712124651340,2121193,0
1712124661131,1712124651379,2120035,0
1712124661131,1712124651419,2119756,0
1712124661131,1712124651459,2119095,0
1712124661131,1712124651499,2126004,0
1712124661131,1712124651540,2124465,0
1712124661131,1712124651580,2129103,0
1712124661131,1712124651620,2131506,0
1712124661131,1712124651660,2132974,0
1712124661131,1712124651700,2133426,0
1712124661131,1712124651741,2134654,0
1712124661131,1712124651780,2135847,0
1712124661131,1712124651820,2135532,0
1712124661131,1712124651860,2134445,0
1712124661131,1712124651900,2134946,0
1712124661131,1712124651941,2136869,0
1712124661131,1712124651981,2137445,0
1712124661131,1712124652022,2137902,0
1712124661131,1712124652061,2137730,0
1712124661131,1712124652101,2137563,0
1712124661131,1712124652142,2137477,0
1712124661131,1712124652181,2138524,0
1712124661131,1712124652222,2141453,0
1712124661131,1712124652262,2145102,0
1712124661131,1712124652302,2149636,0
1712124661131,1712124652342,2152679,0
1712124661131,1712124652382,2153357,0
1712124661131,1712124652425,2152259,0
1712124661131,1712124652462,2152090,0
1712124661131,1712124652502,2152633,0
1712124661131,1712124652543,2153930,0
1712124661131,1712124652583,2153519,0
1712124661131,1712124652623,2152166,0
1712124661131,1712124652663,2150948,0
1712124661131,1712124652703,2150171,0
1712124661131,1712124652744,2150337,0
1712124661131,1712124652783,2150031,0
1712124661131,1712124652823,2149768,0
1712124661131,1712124652863,2149848,0
1712124661131,1712124652904,2150246,0
1712124661131,1712124652944,2150664,0
1712124661131,1712124652984,2151571,0
1712124661131,1712124653025,2152319,0
1712124661131,1712124653064,2152948,0
1712124661131,1712124653104,2153514,0
1712124661131,1712124653145,2153165,0
1712124661131,1712124653184,2152312,0
1712124661131,1712124653225,2151941,0
1712124661131,1712124653265,2151504,0
1712124661131,1712124653305,2151252,0
1712124661131,1712124653346,2151206,0
1712124661131,1712124653385,2150973,0
1712124661131,1712124653425,2150773,0
1712124661131,1712124653465,2150523,0
1712124661131,1712124653506,2150413,0
1712124661131,1712124653546,2150494,0
1712124661131,1712124653586,2150637,0
1712124661131,1712124653626,2150877,0
1712124661131,1712124653666,2151249,0
1712124661131,1712124653706,2151716,0
1712124661131,1712124653747,2152062,0
1712124661131,1712124653786,2152490,0
1712124661131,1712124653826,2153104,0
1712124661131,1712124653867,2153664,0
1712124661131,1712124653907,2154224,0
1712124661131,1712124653947,2153948,0
1712124661131,1712124653987,2153450,0
1712124661131,1712124654028,2152915,0
1712124661131,1712124654067,2152505,0
1712124661131,1712124654107,2152351,0
1712124661131,1712124654148,2152356,0
1712124661131,1712124654188,2152484,0
1712124661131,1712124654228,2152630,0
1712124661131,1712124654268,2152635,0
1712124661131,1712124654308,2152791,0
1712124661131,1712124654349,2153133,0
1712124661131,1712124654388,2153500,0
1712124661131,1712124654428,2153860,0
1712124661131,1712124654469,2154379,0
1712124661131,1712124654509,2154825,0
1712124661131,1712124654549,2155372,0
1712124661131,1712124654589,2155878,0
1712124661131,1712124654629,2156547,0
1712124661131,1712124654669,2157368,0
1712124661131,1712124654709,2158112,0
1712124661131,1712124654750,2158365,0
1712124661131,1712124654790,2157976,0
1712124661131,1712124654830,2157319,0
1712124661131,1712124654870,2156848,0
1712124661131,1712124654910,2156594,0
1712124661131,1712124654951,2156502,0
1712124661131,1712124654990,2156715,0
1712124661131,1712124655032,2156918,0
1712124661131,1712124655071,2157113,0
1712124661131,1712124655111,2157218,0
1712124661131,1712124655151,2157378,0
1712124661131,1712124655191,2157795,0
1712124661131,1712124655231,2158019,0
1712124661131,1712124655271,2158758,0
1712124661131,1712124655311,2159362,0
1712124661131,1712124655352,2159948,0
1712124661131,1712124655392,2160520,0
1712124661131,1712124655432,2161292,0
1712124661131,1712124655472,2162038,0
1712124661131,1712124655512,2162279,0
1712124661131,1712124655553,2161792,0
1712124661131,1712124655592,2161110,0
1712124661131,1712124655632,2160551,0
1712124661131,1712124655673,2160320,0
1712124661131,1712124655713,2160559,0
1712124661131,1712124655754,2160762,0
1712124661131,1712124655794,2161141,0
1712124661131,1712124655834,2161254,0
1712124661131,1712124655874,2161519,0
1712124661131,1712124655914,2161953,0
1712124661131,1712124655955,2162304,0
1712124661131,1712124655994,2162916,0
1712124661131,1712124656035,2163435,0
1712124661131,1712124656074,2164041,0
1712124661131,1712124656114,2164780,0
1712124661131,1712124656155,2165301,0
1712124661131,1712124656195,2165922,0
1712124661131,1712124656235,2166038,0
1712124661131,1712124656275,2165560,0
1712124661131,1712124656315,2164437,0
1712124661131,1712124656355,2163631,0
1712124661131,1712124656395,2163137,0
1712124661131,1712124656435,2162606,0
1712124661131,1712124656475,2162782,0
1712124661131,1712124656515,2162654,0
1712124661131,1712124656556,2162710,0
1712124661131,1712124656595,2162627,0
1712124661131,1712124656636,2162658,0
1712124661131,1712124656676,2162689,0
1712124661131,1712124656716,2163034,0
1712124661131,1712124656757,2163381,0
1712124661131,1712124656796,2163709,0
1712124661131,1712124656836,2164140,0
1712124661131,1712124656876,2164496,0
1712124661131,1712124656916,2164953,0
1712124661131,1712124656957,2165369,0
1712124661131,1712124656996,2165471,0
1712124661131,1712124657038,2164662,0
1712124661131,1712124657076,2163574,0
1712124661131,1712124657117,2162407,0
1712124661131,1712124657157,2161690,0
1712124661131,1712124657197,2161236,0
1712124661131,1712124657237,2161166,0
1712124661131,1712124657277,2161019,0
1712124661131,1712124657317,2160956,0
1712124661131,1712124657358,2160605,0
1712124661131,1712124657397,2160477,0
1712124661131,1712124657437,2160458,0
1712124661131,1712124657477,2160536,0
1712124661131,1712124657517,2160692,0
1712124661131,1712124657558,2160847,0
1712124661131,1712124657598,2161155,0
1712124661131,1712124657638,2161524,0
1712124661131,1712124657678,2161876,0
1712124661131,1712124657718,2162270,0
1712124661131,1712124657759,2162573,0
1712124661131,1712124657798,2161804,0
1712124661131,1712124657838,2160659,0
1712124661131,1712124657878,2159441,0
1712124661131,1712124657918,2158616,0
1712124661131,1712124657959,2158191,0
1712124661131,1712124657999,2157731,0
1712124661131,1712124658040,2157756,0
1712124661131,1712124658079,2157576,0
1712124661131,1712124658119,2157203,0
1712124661131,1712124658160,2157008,0
1712124661131,1712124658199,2156794,0
1712124661131,1712124658239,2156845,0
1712124661131,1712124658279,2156962,0
1712124661131,1712124658320,2157068,0
1712124661131,1712124658360,2157283,0
1712124661131,1712124658400,2157521,0
1712124661131,1712124658440,2157806,0
1712124661131,1712124658480,2158147,0
1712124661131,1712124658520,2158092,0
1712124661131,1712124658561,2157099,0
1712124661131,1712124658600,2155822,0
1712124661131,1712124658640,2154605,0
1712124661131,1712124658681,2153800,0
1712124661131,1712124658721,2153211,0
1712124661131,1712124658762,2153015,0
1712124661131,1712124658801,2152901,0
1712124661131,1712124658841,2152455,0
1712124661131,1712124658881,2152278,0
1712124661131,1712124658921,2152095,0
1712124661131,1712124658962,2152009,0
1712124661131,1712124659001,2152188,0
1712124661131,1712124659042,2152232,0
1712124661131,1712124659082,2152493,0
1712124661131,1712124659122,2152824,0
1712124661131,1712124659163,2153143,0
1712124661131,1712124659202,2153522,0
1712124661131,1712124659242,2152956,0
1712124661131,1712124659282,2151746,0
1712124661131,1712124659322,2150324,0
1712124661131,1712124659363,2149401,0
1712124661131,1712124659402,2148626,0
1712124661131,1712124659442,2148340,0
1712124661131,1712124659482,2148078,0
1712124661131,1712124659523,2147818,0
1712124661131,1712124659563,2147512,0
1712124661131,1712124659603,2147191,0
1712124661131,1712124659643,2146965,0
1712124661131,1712124659683,2147116,0
1712124661131,1712124659723,2147195,0
1712124661131,1712124659764,2147272,0
1712124661131,1712124659803,2147408,0
1712124661131,1712124659844,2147527,0
1712124661131,1712124659884,2147652,0
1712124661131,1712124659924,2147897,0
1712124661131,1712124659965,2147309,0
1712124661131,1712124660004,2145607,0
1712124661131,1712124660044,2144131,0
1712124661131,1712124660084,2142858,0
1712124661131,1712124660125,2141915,0
1712124661131,1712124660165,2141303,0
1712124661131,1712124660205,2140859,0
1712124661131,1712124660245,2140436,0
1712124661131,1712124660285,2139795,0
1712124661131,1712124660325,2139423,0
1712124661131,1712124660366,2139112,0
1712124661131,1712124660405,2138987,0
1712124661131,1712124660445,2138992,0
1712124661131,1712124660485,2138880,0
1712124661131,1712124660525,2138937,0
1712124661131,1712124660566,2139043,0
1712124661131,1712124660606,2139298,0
1712124661131,1712124660646,2139422,0
1712124661131,1712124660686,2138418,0
1712124661131,1712124660726,2136916,0
1712124661131,1712124660767,2135489,0
1712124661131,1712124660806,2134563,0
1712124661131,1712124660846,2133793,0
1712124661131,1712124660886,2133364,0
1712124661131,1712124660927,2133269,0
1712124661131,1712124660968,2132963,0
1712124661131,1712124661007,2132650,0
1712124661131,1712124661048,2132271,0
1712124661131,1712124661087,2132175,0
1712124673242,1712124661180,2132283,0
1712124673242,1712124661221,2132322,0
1712124673242,1712124661261,2132564,0
1712124673242,1712124661301,2132712,0
1712124673242,1712124661341,2132910,0
1712124673242,1712124661381,2133223,0
1712124673242,1712124661422,2133578,0
1712124673242,1712124661461,2133231,0
1712124673242,1712124661501,2131864,0
1712124673242,1712124661541,2130242,0
1712124673242,1712124661582,2128719,0
1712124673242,1712124661623,2127557,0
1712124673242,1712124661662,2126740,0
1712124673242,1712124661702,2126208,0
1712124673242,1712124661742,2125809,0
1712124673242,1712124661782,2125280,0
1712124673242,1712124661823,2124660,0
1712124673242,1712124661863,2124288,0
1712124673242,1712124661903,2124150,0
1712124673242,1712124661943,2123937,0
1712124673242,1712124661983,2123791,0
1712124673242,1712124662024,2123841,0
1712124673242,1712124662063,2123902,0
1712124673242,1712124662103,2124104,0
1712124673242,1712124662143,2124419,0
1712124673242,1712124662184,2124693,0
1712124673242,1712124662224,2124784,0
1712124673242,1712124662264,2123990,0
1712124673242,1712124662304,2122327,0
1712124673242,1712124662344,2120829,0
1712124673242,1712124662384,2119600,0
1712124673242,1712124662425,2118879,0
1712124673242,1712124662465,2118373,0
1712124673242,1712124662505,2118132,0
1712124673242,1712124662545,2117793,0
1712124673242,1712124662585,2117563,0
1712124673242,1712124662626,2117204,0
1712124673242,1712124662665,2117279,0
1712124673242,1712124662705,2117418,0
1712124673242,1712124662745,2117716,0
1712124673242,1712124662785,2118057,0
1712124673242,1712124662826,2118540,0
1712124673242,1712124662866,2118995,0
1712124673242,1712124662906,2119526,0
1712124673242,1712124662946,2120150,0
1712124673242,1712124662986,2120810,0
1712124673242,1712124663027,2120618,0
1712124673242,1712124663066,2119675,0
1712124673242,1712124663106,2118466,0
1712124673242,1712124663146,2117532,0
1712124673242,1712124663186,2117123,0
1712124673242,1712124663227,2116744,0
1712124673242,1712124663266,2116921,0
1712124673242,1712124663307,2117095,0
1712124673242,1712124663347,2116955,0
1712124673242,1712124663387,2117051,0
1712124673242,1712124663428,2117090,0
1712124673242,1712124663467,2117418,0
1712124673242,1712124663507,2117755,0
1712124673242,1712124663547,2118061,0
1712124673242,1712124663587,2118541,0
1712124673242,1712124663628,2119092,0
1712124673242,1712124663668,2119903,0
1712124673242,1712124663708,2120475,0
1712124673242,1712124663748,2121174,0
1712124673242,1712124663788,2121787,0
1712124673242,1712124663829,2122036,0
1712124673242,1712124663868,2121477,0
1712124673242,1712124663909,2120304,0
1712124673242,1712124663949,2119463,0
1712124673242,1712124663989,2118930,0
1712124673242,1712124664030,2118693,0
1712124673242,1712124664070,2118736,0
1712124673242,1712124664111,2118815,0
1712124673242,1712124664150,2118925,0
1712124673242,1712124664190,2118776,0
1712124673242,1712124664231,2118691,0
1712124673242,1712124664271,2118863,0
1712124673242,1712124664311,2119029,0
1712124673242,1712124664351,2119524,0
1712124673242,1712124664391,2119889,0
1712124673242,1712124664432,2120417,0
1712124673242,1712124664472,2121026,0
1712124673242,1712124664512,2121636,0
1712124673242,1712124664552,2122581,0
1712124673242,1712124664592,2123585,0
1712124673242,1712124664633,2124771,0
1712124673242,1712124664673,2125411,0
1712124673242,1712124664713,2125419,0
1712124673242,1712124664753,2125221,0
1712124673242,1712124664793,2125676,0
1712124673242,1712124664834,2126108,0
1712124673242,1712124664874,2126531,0
1712124673242,1712124664914,2127705,0
1712124673242,1712124664955,2128218,0
1712124673242,1712124664995,2128336,0
1712124673242,1712124665036,2127827,0
1712124673242,1712124665075,2127518,0
1712124673242,1712124665116,2127358,0
1712124673242,1712124665156,2127932,0
1712124673242,1712124665196,2128982,0
1712124673242,1712124665237,2129889,0
1712124673242,1712124665277,2130632,0
1712124673242,1712124665317,2131328,0
1712124673242,1712124665357,2131748,0
1712124673242,1712124665397,2132061,0
1712124673242,1712124665438,2133861,0
1712124673242,1712124665478,2136086,0
1712124673242,1712124665518,2136899,0
1712124673242,1712124665558,2136738,0
1712124673242,1712124665599,2136417,0
1712124673242,1712124665640,2135920,0
1712124673242,1712124665679,2136064,0
1712124673242,1712124665719,2136510,0
1712124673242,1712124665760,2137311,0
1712124673242,1712124665800,2137851,0
1712124673242,1712124665841,2138323,0
1712124673242,1712124665880,2138789,0
1712124673242,1712124665921,2139455,0
1712124673242,1712124665962,2140170,0
1712124673242,1712124666002,2140946,0
1712124673242,1712124666043,2141867,0
1712124673242,1712124666082,2143188,0
1712124673242,1712124666123,2144378,0
1712124673242,1712124666163,2145436,0
1712124673242,1712124666203,2146678,0
1712124673242,1712124666244,2148042,0
1712124673242,1712124666284,2148920,0
1712124673242,1712124666324,2149317,0
1712124673242,1712124666364,2149169,0
1712124673242,1712124666404,2149105,0
1712124673242,1712124666445,2149327,0
1712124673242,1712124666485,2149833,0
1712124673242,1712124666525,2150374,0
1712124673242,1712124666565,2151360,0
1712124673242,1712124666606,2151918,0
1712124673242,1712124666647,2152579,0
1712124673242,1712124666686,2153239,0
1712124673242,1712124666726,2153883,0
1712124673242,1712124666767,2154695,0
1712124673242,1712124666807,2155545,0
1712124673242,1712124666847,2156398,0
1712124673242,1712124666887,2157062,0
1712124673242,1712124666927,2157803,0
1712124673242,1712124666967,2158355,0
1712124673242,1712124667007,2158927,0
1712124673242,1712124667048,2159703,0
1712124673242,1712124667088,2160307,0
1712124673242,1712124667129,2160350,0
1712124673242,1712124667168,2160331,0
1712124673242,1712124667208,2160811,0
1712124673242,1712124667249,2161547,0
1712124673242,1712124667289,2163098,0
1712124673242,1712124667329,2164730,0
1712124673242,1712124667369,2166592,0
1712124673242,1712124667409,2168424,0
1712124673242,1712124667450,2170018,0
1712124673242,1712124667490,2171540,0
1712124673242,1712124667530,2173106,0
1712124673242,1712124667570,2174555,0
1712124673242,1712124667610,2176101,0
1712124673242,1712124667651,2177572,0
1712124673242,1712124667690,2178663,0
1712124673242,1712124667731,2179908,0
1712124673242,1712124667771,2181161,0
1712124673242,1712124667811,2182261,0
1712124673242,1712124667852,2183525,0
1712124673242,1712124667892,2184971,0
1712124673242,1712124667932,2185860,0
1712124673242,1712124667972,2185987,0
1712124673242,1712124668012,2186157,0
1712124673242,1712124668053,2186571,0
1712124673242,1712124668092,2186929,0
1712124673242,1712124668133,2187319,0
1712124673242,1712124668173,2187940,0
1712124673242,1712124668213,2188559,0
1712124673242,1712124668254,2188917,0
1712124673242,1712124668294,2189412,0
1712124673242,1712124668334,2189680,0
1712124673242,1712124668374,2190279,0
1712124673242,1712124668415,2190893,0
1712124673242,1712124668456,2191502,0
1712124673242,1712124668496,2191976,0
1712124673242,1712124668536,2192522,0
1712124673242,1712124668576,2193126,0
1712124673242,1712124668616,2193618,0
1712124673242,1712124668657,2194358,0
1712124673242,1712124668697,2195180,0
1712124673242,1712124668737,2195529,0
1712124673242,1712124668777,2195256,0
1712124673242,1712124668817,2194525,0
1712124673242,1712124668859,2193695,0
1712124673242,1712124668898,2193243,0
1712124673242,1712124668938,2192673,0
1712124673242,1712124668979,2192371,0
1712124673242,1712124669019,2192310,0
1712124673242,1712124669060,2192082,0
1712124673242,1712124669099,2192019,0
1712124673242,1712124669139,2191824,0
1712124673242,1712124669180,2192049,0
1712124673242,1712124669220,2192082,0
1712124673242,1712124669261,2192412,0
1712124673242,1712124669301,2192786,0
1712124673242,1712124669341,2193001,0
1712124673242,1712124669381,2193206,0
1712124673242,1712124669421,2193473,0
1712124673242,1712124669462,2193632,0
1712124673242,1712124669502,2194048,0
1712124673242,1712124669542,2194526,0
1712124673242,1712124669582,2194805,0
1712124673242,1712124669622,2193913,0
1712124673242,1712124669663,2192767,0
1712124673242,1712124669703,2191512,0
1712124673242,1712124669743,2190577,0
1712124673242,1712124669783,2189868,0
1712124673242,1712124669824,2189585,0
1712124673242,1712124669865,2189004,0
1712124673242,1712124669904,2188696,0
1712124673242,1712124669945,2188242,0
1712124673242,1712124669985,2187798,0
1712124673242,1712124670025,2187738,0
1712124673242,1712124670066,2187832,0
1712124673242,1712124670106,2187841,0
1712124673242,1712124670147,2188110,0
1712124673242,1712124670186,2188418,0
1712124673242,1712124670226,2188640,0
1712124673242,1712124670267,2189044,0
1712124673242,1712124670307,2189225,0
1712124673242,1712124670347,2189514,0
1712124673242,1712124670387,2189605,0
1712124673242,1712124670427,2188524,0
1712124673242,1712124670468,2186653,0
1712124673242,1712124670508,2184795,0
1712124673242,1712124670548,2183362,0
1712124673242,1712124670588,2182218,0
1712124673242,1712124670628,2181401,0
1712124673242,1712124670669,2180624,0
1712124673242,1712124670708,2179869,0
1712124673242,1712124670749,2179034,0
1712124673242,1712124670789,2178456,0
1712124673242,1712124670829,2177990,0
1712124673242,1712124670870,2178056,0
1712124673242,1712124670910,2178138,0
1712124673242,1712124670950,2178181,0
1712124673242,1712124670990,2178405,0
1712124673242,1712124671030,2178666,0
1712124673242,1712124671071,2178773,0
1712124673242,1712124671110,2179004,0
1712124673242,1712124671151,2179357,0
1712124673242,1712124671191,2179567,0
1712124673242,1712124671231,2178910,0
1712124673242,1712124671272,2176951,0
1712124673242,1712124671311,2174346,0
1712124673242,1712124671351,2172082,0
1712124673242,1712124671392,2170113,0
1712124673242,1712124671432,2168504,0
1712124673242,1712124671473,2167312,0
1712124673242,1712124671512,2165968,0
1712124673242,1712124671552,2164813,0
1712124673242,1712124671593,2163369,0
1712124673242,1712124671633,2162325,0
1712124673242,1712124671674,2161287,0
1712124673242,1712124671713,2160763,0
1712124673242,1712124671754,2160185,0
1712124673242,1712124671794,2159930,0
1712124673242,1712124671834,2159862,0
1712124673242,1712124671875,2159964,0
1712124673242,1712124671915,2160108,0
1712124673242,1712124671955,2160379,0
1712124673242,1712124671995,2160469,0
1712124673242,1712124672035,2160395,0
1712124673242,1712124672076,2158701,0
1712124673242,1712124672116,2155906,0
1712124673242,1712124672156,2152907,0
1712124673242,1712124672196,2150802,0
1712124673242,1712124672237,2148966,0
1712124673242,1712124672278,2147685,0
1712124673242,1712124672317,2146543,0
1712124673242,1712124672358,2145366,0
1712124673242,1712124672398,2144045,0
1712124673242,1712124672438,2142933,0
1712124673242,1712124672479,2141786,0
1712124673242,1712124672518,2141118,0
1712124673242,1712124672559,2140715,0
1712124673242,1712124672599,2140417,0
1712124673242,1712124672639,2140273,0
1712124673242,1712124672680,2140166,0
1712124673242,1712124672720,2140412,0
1712124673242,1712124672760,2140837,0
1712124673242,1712124672800,2141176,0
1712124673242,1712124672841,2141975,0
1712124673242,1712124672881,2141423,0
1712124673242,1712124672921,2139386,0
1712124673242,1712124672961,2137043,0
1712124673242,1712124673002,2135168,0
1712124673242,1712124673042,2133742,0
1712124673242,1712124673083,2132777,0
1712124673242,1712124673122,2132291,0
1712124673242,1712124673164,2131389,0
1712124673242,1712124673203,2130471,0
1712124685295,1712124673249,2129615,0
1712124685295,1712124673290,2129131,0
1712124685295,1712124673329,2129039,0
1712124685295,1712124673369,2129138,0
1712124685295,1712124673409,2129354,0
1712124685295,1712124673450,2129616,0
1712124685295,1712124673490,2130108,0
1712124685295,1712124673530,2130302,0
1712124685295,1712124673570,2130608,0
1712124685295,1712124673610,2131083,0
1712124685295,1712124673650,2131722,0
1712124685295,1712124673691,2131531,0
1712124685295,1712124673730,2129670,0
1712124685295,1712124673770,2127440,0
1712124685295,1712124673811,2125509,0
1712124685295,1712124673851,2124186,0
1712124685295,1712124673891,2123390,0
1712124685295,1712124673931,2122790,0
1712124685295,1712124673971,2122178,0
1712124685295,1712124674011,2121806,0
1712124685295,1712124674051,2121684,0
1712124685295,1712124674092,2121721,0
1712124685295,1712124674131,2121991,0
1712124685295,1712124674171,2122277,0
1712124685295,1712124674211,2122957,0
1712124685295,1712124674251,2123580,0
1712124685295,1712124674292,2123936,0
1712124685295,1712124674332,2123693,0
1712124685295,1712124674372,2124132,0
1712124685295,1712124674412,2123785,0
1712124685295,1712124674452,2122200,0
1712124685295,1712124674492,2119545,0
1712124685295,1712124674532,2117488,0
1712124685295,1712124674572,2116240,0
1712124685295,1712124674612,2115442,0
1712124685295,1712124674652,2114758,0
1712124685295,1712124674693,2114199,0
1712124685295,1712124674732,2113603,0
1712124685295,1712124674772,2112894,0
1712124685295,1712124674812,2112662,0
1712124685295,1712124674852,2112438,0
1712124685295,1712124674893,2112495,0
1712124685295,1712124674933,2112689,0
1712124685295,1712124674973,2112798,0
1712124685295,1712124675013,2112790,0
1712124685295,1712124675053,2113053,0
1712124685295,1712124675094,2113516,0
1712124685295,1712124675133,2114221,0
1712124685295,1712124675173,2114516,0
1712124685295,1712124675213,2113009,0
1712124685295,1712124675253,2110203,0
1712124685295,1712124675294,2107783,0
1712124685295,1712124675333,2105614,0
1712124685295,1712124675374,2104030,0
1712124685295,1712124675414,2102802,0
1712124685295,1712124675454,2101973,0
1712124685295,1712124675494,2100883,0
1712124685295,1712124675534,2100023,0
1712124685295,1712124675574,2099081,0
1712124685295,1712124675614,2098875,0
1712124685295,1712124675654,2098773,0
1712124685295,1712124675695,2098829,0
1712124685295,1712124675734,2098999,0
1712124685295,1712124675774,2099040,0
1712124685295,1712124675814,2099433,0
1712124685295,1712124675855,2099899,0
1712124685295,1712124675895,2100337,0
1712124685295,1712124675935,2100822,0
1712124685295,1712124675975,2100535,0
1712124685295,1712124676015,2098814,0
1712124685295,1712124676055,2096647,0
1712124685295,1712124676096,2095111,0
1712124685295,1712124676135,2093706,0
1712124685295,1712124676177,2092792,0
1712124685295,1712124676216,2092039,0
1712124685295,1712124676256,2091468,0
1712124685295,1712124676296,2090952,0
1712124685295,1712124676336,2090464,0
1712124685295,1712124676376,2090194,0
1712124685295,1712124676416,2090033,0
1712124685295,1712124676456,2090500,0
1712124685295,1712124676497,2090945,0
1712124685295,1712124676536,2091414,0
1712124685295,1712124676576,2092242,0
1712124685295,1712124676616,2093125,0
1712124685295,1712124676656,2093891,0
1712124685295,1712124676697,2094741,0
1712124685295,1712124676737,2095770,0
1712124685295,1712124676777,2095382,0
1712124685295,1712124676817,2093395,0
1712124685295,1712124676857,2091371,0
1712124685295,1712124676898,2089807,0
1712124685295,1712124676937,2088614,0
1712124685295,1712124676977,2087893,0
1712124685295,1712124677017,2087473,0
1712124685295,1712124677057,2087021,0
1712124685295,1712124677098,2086513,0
1712124685295,1712124677137,2086069,0
1712124685295,1712124677178,2085869,0
1712124685295,1712124677218,2085989,0
1712124685295,1712124677258,2086520,0
1712124685295,1712124677299,2087083,0
1712124685295,1712124677338,2087594,0
1712124685295,1712124677378,2088571,0
1712124685295,1712124677418,2089103,0
1712124685295,1712124677458,2089703,0
1712124685295,1712124677499,2090718,0
1712124685295,1712124677539,2091770,0
1712124685295,1712124677578,2091829,0
1712124685295,1712124677618,2090644,0
1712124685295,1712124677659,2088996,0
1712124685295,1712124677699,2087858,0
1712124685295,1712124677739,2087109,0
1712124685295,1712124677779,2086813,0
1712124685295,1712124677819,2087022,0
1712124685295,1712124677859,2086979,0
1712124685295,1712124677900,2086957,0
1712124685295,1712124677939,2086833,0
1712124685295,1712124677979,2086999,0
1712124685295,1712124678020,2087230,0
1712124685295,1712124678059,2087745,0
1712124685295,1712124678100,2088392,0
1712124685295,1712124678140,2089107,0
1712124685295,1712124678180,2089786,0
1712124685295,1712124678220,2090784,0
1712124685295,1712124678260,2091549,0
1712124685295,1712124678301,2092462,0
1712124685295,1712124678340,2092063,0
1712124685295,1712124678380,2090517,0
1712124685295,1712124678420,2088864,0
1712124685295,1712124678460,2087603,0
1712124685295,1712124678501,2086752,0
1712124685295,1712124678541,2086318,0
1712124685295,1712124678581,2086131,0
1712124685295,1712124678621,2085910,0
1712124685295,1712124678661,2085539,0
1712124685295,1712124678702,2085106,0
1712124685295,1712124678741,2084851,0
1712124685295,1712124678781,2084811,0
1712124685295,1712124678821,2084570,0
1712124685295,1712124678861,2084785,0
1712124685295,1712124678902,2085204,0
1712124685295,1712124678942,2085860,0
1712124685295,1712124678982,2086749,0
1712124685295,1712124679022,2087889,0
1712124685295,1712124679062,2088867,0
1712124685295,1712124679103,2089750,0
1712124685295,1712124679142,2088963,0
1712124685295,1712124679184,2087078,0
1712124685295,1712124679222,2085309,0
1712124685295,1712124679262,2083921,0
1712124685295,1712124679303,2082938,0
1712124685295,1712124679343,2082404,0
1712124685295,1712124679383,2082081,0
1712124685295,1712124679423,2081725,0
1712124685295,1712124679463,2081147,0
1712124685295,1712124679504,2081040,0
1712124685295,1712124679543,2080826,0
1712124685295,1712124679584,2081007,0
1712124685295,1712124679624,2081362,0
1712124685295,1712124679664,2081642,0
1712124685295,1712124679705,2082835,0
1712124685295,1712124679744,2084047,0
1712124685295,1712124679784,2085642,0
1712124685295,1712124679824,2087288,0
1712124685295,1712124679864,2088973,0
1712124685295,1712124679905,2090516,0
1712124685295,1712124679945,2091496,0
1712124685295,1712124679984,2091076,0
1712124685295,1712124680025,2090541,0
1712124685295,1712124680065,2090790,0
1712124685295,1712124680106,2091279,0
1712124685295,1712124680145,2091844,0
1712124685295,1712124680185,2092453,0
1712124685295,1712124680225,2092841,0
1712124685295,1712124680265,2093500,0
1712124685295,1712124680306,2093602,0
1712124685295,1712124680346,2094223,0
1712124685295,1712124680386,2094897,0
1712124685295,1712124680426,2095784,0
1712124685295,1712124680466,2096899,0
1712124685295,1712124680507,2098144,0
1712124685295,1712124680546,2099597,0
1712124685295,1712124680586,2100893,0
1712124685295,1712124680626,2102637,0
1712124685295,1712124680667,2104446,0
1712124685295,1712124680707,2106459,0
1712124685295,1712124680747,2107722,0
1712124685295,1712124680787,2107474,0
1712124685295,1712124680827,2106899,0
1712124685295,1712124680867,2106701,0
1712124685295,1712124680908,2106908,0
1712124685295,1712124680947,2107508,0
1712124685295,1712124680988,2108199,0
1712124685295,1712124681028,2108879,0
1712124685295,1712124681068,2108930,0
1712124685295,1712124681109,2108841,0
1712124685295,1712124681149,2109353,0
1712124685295,1712124681189,2109570,0
1712124685295,1712124681229,2109841,0
1712124685295,1712124681270,2110094,0
1712124685295,1712124681311,2110513,0
1712124685295,1712124681351,2111214,0
1712124685295,1712124681391,2112248,0
1712124685295,1712124681431,2113276,0
1712124685295,1712124681471,2114319,0
1712124685295,1712124681512,2115355,0
1712124685295,1712124681551,2115424,0
1712124685295,1712124681591,2114356,0
1712124685295,1712124681631,2112804,0
1712124685295,1712124681671,2111728,0
1712124685295,1712124681712,2111190,0
1712124685295,1712124681752,2110796,0
1712124685295,1712124681792,2110535,0
1712124685295,1712124681832,2110076,0
1712124685295,1712124681872,2109654,0
1712124685295,1712124681913,2108964,0
1712124685295,1712124681953,2108645,0
1712124685295,1712124681993,2108230,0
1712124685295,1712124682033,2108127,0
1712124685295,1712124682073,2108330,0
1712124685295,1712124682114,2108586,0
1712124685295,1712124682153,2109014,0
1712124685295,1712124682195,2109419,0
1712124685295,1712124682234,2109691,0
1712124685295,1712124682274,2110315,0
1712124685295,1712124682315,2110592,0
1712124685295,1712124682355,2109933,0
1712124685295,1712124682394,2107885,0
1712124685295,1712124682435,2105917,0
1712124685295,1712124682475,2104397,0
1712124685295,1712124682516,2103314,0
1712124685295,1712124682555,2102586,0
1712124685295,1712124682596,2102112,0
1712124685295,1712124682635,2101722,0
1712124685295,1712124682676,2101366,0
1712124685295,1712124682717,2101141,0
1712124685295,1712124682756,2101172,0
1712124685295,1712124682796,2101229,0
1712124685295,1712124682837,2101570,0
1712124685295,1712124682877,2101966,0
1712124685295,1712124682918,2102629,0
1712124685295,1712124682957,2103244,0
1712124685295,1712124682997,2104155,0
1712124685295,1712124683038,2104824,0
1712124685295,1712124683078,2105629,0
1712124685295,1712124683119,2106519,0
1712124685295,1712124683158,2106363,0
1712124685295,1712124683199,2105077,0
1712124685295,1712124683239,2103429,0
1712124685295,1712124683279,2102848,0
1712124685295,1712124683320,2102038,0
1712124685295,1712124683360,2101636,0
1712124685295,1712124683400,2101441,0
1712124685295,1712124683444,2101164,0
1712124685295,1712124683484,2100746,0
1712124685295,1712124683525,2100279,0
1712124685295,1712124683565,2100085,0
1712124685295,1712124683605,2100387,0
1712124685295,1712124683645,2100707,0
1712124685295,1712124683686,2101397,0
1712124685295,1712124683726,2102179,0
1712124685295,1712124683766,2103138,0
1712124685295,1712124683806,2104121,0
1712124685295,1712124683846,2105195,0
1712124685295,1712124683887,2106140,0
1712124685295,1712124683928,2107020,0
1712124685295,1712124683967,2106881,0
1712124685295,1712124684008,2105687,0
1712124685295,1712124684048,2104195,0
1712124685295,1712124684088,2103107,0
1712124685295,1712124684129,2102507,0
1712124685295,1712124684169,2102276,0
1712124685295,1712124684209,2102180,0
1712124685295,1712124684249,2102063,0
1712124685295,1712124684290,2101803,0
1712124685295,1712124684330,2101660,0
1712124685295,1712124684370,2101671,0
1712124685295,1712124684410,2102001,0
1712124685295,1712124684450,2103044,0
1712124685295,1712124684491,2103577,0
1712124685295,1712124684532,2104176,0
1712124685295,1712124684571,2104964,0
1712124685295,1712124684611,2105813,0
1712124685295,1712124684652,2106789,0
1712124685295,1712124684692,2107072,0
1712124685295,1712124684732,2105919,0
1712124685295,1712124684772,2104328,0
1712124685295,1712124684812,2103025,0
1712124685295,1712124684852,2102154,0
1712124685295,1712124684892,2101573,0
1712124685295,1712124684933,2101340,0
1712124685295,1712124684973,2101186,0
1712124685295,1712124685013,2100942,0
1712124685295,1712124685053,2100759,0
1712124685295,1712124685093,2100517,0
1712124685295,1712124685134,2100558,0
1712124685295,1712124685174,2100781,0
1712124685295,1712124685215,2101302,0
1712124685295,1712124685254,2101764,0
1712124697342,1712124685290,2102205,0
1712124697342,1712124685331,2102925,0
1712124697342,1712124685370,2103538,0
1712124697342,1712124685410,2104233,0
1712124697342,1712124685450,2104804,0
1712124697342,1712124685491,2104381,0
1712124697342,1712124685531,2102794,0
1712124697342,1712124685571,2101114,0
1712124697342,1712124685611,2099675,0
1712124697342,1712124685651,2098778,0
1712124697342,1712124685691,2098057,0
1712124697342,1712124685732,2097730,0
1712124697342,1712124685771,2097029,0
1712124697342,1712124685811,2096402,0
1712124697342,1712124685851,2095674,0
1712124697342,1712124685891,2095363,0
1712124697342,1712124685932,2095227,0
1712124697342,1712124685972,2095328,0
1712124697342,1712124686012,2095643,0
1712124697342,1712124686052,2095923,0
1712124697342,1712124686092,2096253,0
1712124697342,1712124686133,2096861,0
1712124697342,1712124686172,2097859,0
1712124697342,1712124686212,2098750,0
1712124697342,1712124686252,2099013,0
1712124697342,1712124686293,2097971,0
1712124697342,1712124686333,2096819,0
1712124697342,1712124686373,2096013,0
1712124697342,1712124686413,2095633,0
1712124697342,1712124686453,2095644,0
1712124697342,1712124686493,2095964,0
1712124697342,1712124686534,2095973,0
1712124697342,1712124686573,2096021,0
1712124697342,1712124686613,2095917,0
1712124697342,1712124686653,2095930,0
1712124697342,1712124686694,2096052,0
1712124697342,1712124686734,2096175,0
1712124697342,1712124686774,2096413,0
1712124697342,1712124686814,2096611,0
1712124697342,1712124686854,2097036,0
1712124697342,1712124686894,2097348,0
1712124697342,1712124686935,2097886,0
1712124697342,1712124686974,2097641,0
1712124697342,1712124687014,2096011,0
1712124697342,1712124687055,2094014,0
1712124697342,1712124687095,2092382,0
1712124697342,1712124687135,2091364,0
1712124697342,1712124687175,2090754,0
1712124697342,1712124687215,2090539,0
1712124697342,1712124687255,2090319,0
1712124697342,1712124687295,2089890,0
1712124697342,1712124687336,2089781,0
1712124697342,1712124687375,2089783,0
1712124697342,1712124687416,2089923,0
1712124697342,1712124687456,2089996,0
1712124697342,1712124687496,2090065,0
1712124697342,1712124687537,2090201,0
1712124697342,1712124687576,2090197,0
1712124697342,1712124687616,2090337,0
1712124697342,1712124687656,2090177,0
1712124697342,1712124687696,2090024,0
1712124697342,1712124687737,2089397,0
1712124697342,1712124687777,2087470,0
1712124697342,1712124687817,2084856,0
1712124697342,1712124687857,2082399,0
1712124697342,1712124687897,2080384,0
1712124697342,1712124687938,2078791,0
1712124697342,1712124687977,2077733,0
1712124697342,1712124688017,2076673,0
1712124697342,1712124688057,2075686,0
1712124697342,1712124688097,2074590,0
1712124697342,1712124688138,2073897,0
1712124697342,1712124688178,2073073,0
1712124697342,1712124688219,2072593,0
1712124697342,1712124688258,2072244,0
1712124697342,1712124688298,2072332,0
1712124697342,1712124688339,2072337,0
1712124697342,1712124688378,2073143,0
1712124697342,1712124688418,2074085,0
1712124697342,1712124688459,2075234,0
1712124697342,1712124688499,2074987,0
1712124697342,1712124688539,2074254,0
1712124697342,1712124688579,2074005,0
1712124697342,1712124688619,2074286,0
1712124697342,1712124688659,2074864,0
1712124697342,1712124688699,2076991,0
1712124697342,1712124688740,2079076,0
1712124697342,1712124688780,2080703,0
1712124697342,1712124688820,2081480,0
1712124697342,1712124688860,2082487,0
1712124697342,1712124688900,2085555,0
1712124697342,1712124688941,2086951,0
1712124697342,1712124688980,2087526,0
1712124697342,1712124689020,2088181,0
1712124697342,1712124689060,2088770,0
1712124697342,1712124689101,2088387,0
1712124697342,1712124689141,2089972,0
1712124697342,1712124689181,2092259,0
1712124697342,1712124689221,2095892,0
1712124697342,1712124689261,2099156,0
1712124697342,1712124689301,2101409,0
1712124697342,1712124689342,2102498,0
1712124697342,1712124689381,2103030,0
1712124697342,1712124689421,2103163,0
1712124697342,1712124689462,2102785,0
1712124697342,1712124689502,2102210,0
1712124697342,1712124689542,2101037,0
1712124697342,1712124689582,2100287,0
1712124697342,1712124689622,2099669,0
1712124697342,1712124689662,2098524,0
1712124697342,1712124689702,2097539,0
1712124697342,1712124689743,2097714,0
1712124697342,1712124689783,2098898,0
1712124697342,1712124689823,2100939,0
1712124697342,1712124689863,2102308,0
1712124697342,1712124689903,2104337,0
1712124697342,1712124689944,2106227,0
1712124697342,1712124689983,2108464,0
1712124697342,1712124690023,2110067,0
1712124697342,1712124690064,2108837,0
1712124697342,1712124690104,2107681,0
1712124697342,1712124690144,2106522,0
1712124697342,1712124690184,2105396,0
1712124697342,1712124690224,2104872,0
1712124697342,1712124690264,2104911,0
1712124697342,1712124690304,2103732,0
1712124697342,1712124690345,2101721,0
1712124697342,1712124690385,2100686,0
1712124697342,1712124690425,2099710,0
1712124697342,1712124690465,2099171,0
1712124697342,1712124690505,2099134,0
1712124697342,1712124690546,2099164,0
1712124697342,1712124690585,2099112,0
1712124697342,1712124690625,2099069,0
1712124697342,1712124690666,2099181,0
1712124697342,1712124690706,2099495,0
1712124697342,1712124690746,2099935,0
1712124697342,1712124690786,2099540,0
1712124697342,1712124690826,2098172,0
1712124697342,1712124690866,2096394,0
1712124697342,1712124690906,2095327,0
1712124697342,1712124690947,2094697,0
1712124697342,1712124690986,2094419,0
1712124697342,1712124691026,2094058,0
1712124697342,1712124691066,2093210,0
1712124697342,1712124691106,2092257,0
1712124697342,1712124691147,2091127,0
1712124697342,1712124691187,2090194,0
1712124697342,1712124691228,2089580,0
1712124697342,1712124691267,2089330,0
1712124697342,1712124691307,2089057,0
1712124697342,1712124691347,2088925,0
1712124697342,1712124691387,2089166,0
1712124697342,1712124691427,2089504,0
1712124697342,1712124691467,2089823,0
1712124697342,1712124691507,2090403,0
1712124697342,1712124691548,2090725,0
1712124697342,1712124691587,2089643,0
1712124697342,1712124691627,2087964,0
1712124697342,1712124691667,2086520,0
1712124697342,1712124691707,2085776,0
1712124697342,1712124691748,2085514,0
1712124697342,1712124691788,2085615,0
1712124697342,1712124691828,2086070,0
1712124697342,1712124691868,2086180,0
1712124697342,1712124691908,2086854,0
1712124697342,1712124691949,2087386,0
1712124697342,1712124691988,2087703,0
1712124697342,1712124692028,2087994,0
1712124697342,1712124692068,2087970,0
1712124697342,1712124692108,2087977,0
1712124697342,1712124692149,2088097,0
1712124697342,1712124692188,2088199,0
1712124697342,1712124692229,2088528,0
1712124697342,1712124692269,2088738,0
1712124697342,1712124692309,2088310,0
1712124697342,1712124692350,2087025,0
1712124697342,1712124692389,2085592,0
1712124697342,1712124692429,2084689,0
1712124697342,1712124692469,2084231,0
1712124697342,1712124692509,2084212,0
1712124697342,1712124692550,2084348,0
1712124697342,1712124692589,2084724,0
1712124697342,1712124692629,2085025,0
1712124697342,1712124692669,2085302,0
1712124697342,1712124692710,2085802,0
1712124697342,1712124692750,2086585,0
1712124697342,1712124692790,2087466,0
1712124697342,1712124692830,2088272,0
1712124697342,1712124692870,2089099,0
1712124697342,1712124692910,2089791,0
1712124697342,1712124692951,2090428,0
1712124697342,1712124692990,2090830,0
1712124697342,1712124693030,2091432,0
1712124697342,1712124693071,2091659,0
1712124697342,1712124693111,2090568,0
1712124697342,1712124693152,2089026,0
1712124697342,1712124693191,2087792,0
1712124697342,1712124693231,2086809,0
1712124697342,1712124693271,2086371,0
1712124697342,1712124693312,2086294,0
1712124697342,1712124693352,2086298,0
1712124697342,1712124693392,2086263,0
1712124697342,1712124693432,2086399,0
1712124697342,1712124693472,2086574,0
1712124697342,1712124693512,2086861,0
1712124697342,1712124693553,2087564,0
1712124697342,1712124693593,2088116,0
1712124697342,1712124693633,2088843,0
1712124697342,1712124693674,2089738,0
1712124697342,1712124693714,2090572,0
1712124697342,1712124693755,2091747,0
1712124697342,1712124693794,2092958,0
1712124697342,1712124693834,2093485,0
1712124697342,1712124693875,2093091,0
1712124697342,1712124693915,2091748,0
1712124697342,1712124693956,2090599,0
1712124697342,1712124693996,2089830,0
1712124697342,1712124694036,2089586,0
1712124697342,1712124694076,2089702,0
1712124697342,1712124694116,2089675,0
1712124697342,1712124694157,2089611,0
1712124697342,1712124694197,2089781,0
1712124697342,1712124694238,2089934,0
1712124697342,1712124694277,2090024,0
1712124697342,1712124694318,2090202,0
1712124697342,1712124694358,2090330,0
1712124697342,1712124694398,2090675,0
1712124697342,1712124694438,2091421,0
1712124697342,1712124694479,2092265,0
1712124697342,1712124694519,2093363,0
1712124697342,1712124694560,2094369,0
1712124697342,1712124694599,2095154,0
1712124697342,1712124694640,2094718,0
1712124697342,1712124694680,2093470,0
1712124697342,1712124694720,2091919,0
1712124697342,1712124694761,2090927,0
1712124697342,1712124694800,2090145,0
1712124697342,1712124694841,2090104,0
1712124697342,1712124694881,2090538,0
1712124697342,1712124694921,2091122,0
1712124697342,1712124694962,2091293,0
1712124697342,1712124695002,2091578,0
1712124697342,1712124695042,2092185,0
1712124697342,1712124695082,2093156,0
1712124697342,1712124695123,2094173,0
1712124697342,1712124695164,2095109,0
1712124697342,1712124695203,2096123,0
1712124697342,1712124695243,2096977,0
1712124697342,1712124695284,2097904,0
1712124697342,1712124695324,2098579,0
1712124697342,1712124695365,2099200,0
1712124697342,1712124695404,2098823,0
1712124697342,1712124695445,2097476,0
1712124697342,1712124695485,2096009,0
1712124697342,1712124695525,2094908,0
1712124697342,1712124695566,2094310,0
1712124697342,1712124695606,2093850,0
1712124697342,1712124695646,2093752,0
1712124697342,1712124695686,2093578,0
1712124697342,1712124695727,2093143,0
1712124697342,1712124695767,2093016,0
1712124697342,1712124695807,2093005,0
1712124697342,1712124695847,2093197,0
1712124697342,1712124695887,2093463,0
1712124697342,1712124695927,2093719,0
1712124697342,1712124695968,2094157,0
1712124697342,1712124696008,2094676,0
1712124697342,1712124696048,2095246,0
1712124697342,1712124696088,2096021,0
1712124697342,1712124696128,2096270,0
1712124697342,1712124696169,2095339,0
1712124697342,1712124696208,2094040,0
1712124697342,1712124696249,2092824,0
1712124697342,1712124696289,2092238,0
1712124697342,1712124696329,2092105,0
1712124697342,1712124696370,2092051,0
1712124697342,1712124696409,2092122,0
1712124697342,1712124696450,2091952,0
1712124697342,1712124696490,2091840,0
1712124697342,1712124696530,2091865,0
1712124697342,1712124696571,2091832,0
1712124697342,1712124696610,2092307,0
1712124697342,1712124696650,2092768,0
1712124697342,1712124696690,2093363,0
1712124697342,1712124696731,2094118,0
1712124697342,1712124696771,2094609,0
1712124697342,1712124696811,2095381,0
1712124697342,1712124696851,2096255,0
1712124697342,1712124696891,2096455,0
1712124697342,1712124696932,2095589,0
1712124697342,1712124696973,2094218,0
1712124697342,1712124697012,2093091,0
1712124697342,1712124697052,2092438,0
1712124697342,1712124697092,2092334,0
1712124697342,1712124697133,2092350,0
1712124697342,1712124697174,2092344,0
1712124697342,1712124697213,2092177,0
1712124697342,1712124697255,2091979,0
1712124697342,1712124697294,2091940,0
1712124709395,1712124697340,2092032,0
1712124709395,1712124697380,2092119,0
1712124709395,1712124697420,2092538,0
1712124709395,1712124697460,2092958,0
1712124709395,1712124697500,2093468,0
1712124709395,1712124697540,2093948,0
1712124709395,1712124697581,2094632,0
1712124709395,1712124697620,2094958,0
1712124709395,1712124697661,2093972,0
1712124709395,1712124697701,2092281,0
1712124709395,1712124697741,2091028,0
1712124709395,1712124697782,2090096,0
1712124709395,1712124697821,2089572,0
1712124709395,1712124697861,2089452,0
1712124709395,1712124697901,2089184,0
1712124709395,1712124697941,2088765,0
1712124709395,1712124697982,2088293,0
1712124709395,1712124698022,2088063,0
1712124709395,1712124698061,2088167,0
1712124709395,1712124698102,2088863,0
1712124709395,1712124698142,2089882,0
1712124709395,1712124698183,2091025,0
1712124709395,1712124698222,2092078,0
1712124709395,1712124698262,2093334,0
1712124709395,1712124698302,2094543,0
1712124709395,1712124698342,2094693,0
1712124709395,1712124698383,2093803,0
1712124709395,1712124698423,2092424,0
1712124709395,1712124698463,2091133,0
1712124709395,1712124698503,2089924,0
1712124709395,1712124698543,2089065,0
1712124709395,1712124698584,2088322,0
1712124709395,1712124698623,2087445,0
1712124709395,1712124698663,2086336,0
1712124709395,1712124698703,2085328,0
1712124709395,1712124698744,2084714,0
1712124709395,1712124698784,2084098,0
1712124709395,1712124698824,2083992,0
1712124709395,1712124698864,2084191,0
1712124709395,1712124698904,2084678,0
1712124709395,1712124698944,2085505,0
1712124709395,1712124698985,2086272,0
1712124709395,1712124699024,2087245,0
1712124709395,1712124699064,2086946,0
1712124709395,1712124699105,2085142,0
1712124709395,1712124699145,2082557,0
1712124709395,1712124699185,2080227,0
1712124709395,1712124699225,2078491,0
1712124709395,1712124699265,2076899,0
1712124709395,1712124699305,2075648,0
1712124709395,1712124699345,2074296,0
1712124709395,1712124699386,2072830,0
1712124709395,1712124699426,2071569,0
1712124709395,1712124699466,2070466,0
1712124709395,1712124699506,2069732,0
1712124709395,1712124699546,2069159,0
1712124709395,1712124699587,2068677,0
1712124709395,1712124699626,2068229,0
1712124709395,1712124699666,2067891,0
1712124709395,1712124699707,2067699,0
1712124709395,1712124699747,2067250,0
1712124709395,1712124699787,2067078,0
1712124709395,1712124699827,2065439,0
1712124709395,1712124699867,2062636,0
1712124709395,1712124699907,2059724,0
1712124709395,1712124699947,2057429,0
1712124709395,1712124699988,2055647,0
1712124709395,1712124700027,2054322,0
1712124709395,1712124700068,2053393,0
1712124709395,1712124700108,2052256,0
1712124709395,1712124700148,2051277,0
1712124709395,1712124700189,2050168,0
1712124709395,1712124700228,2049693,0
1712124709395,1712124700270,2049218,0
1712124709395,1712124700308,2048937,0
1712124709395,1712124700348,2048592,0
1712124709395,1712124700389,2048272,0
1712124709395,1712124700429,2048217,0
1712124709395,1712124700469,2047990,0
1712124709395,1712124700509,2047889,0
1712124709395,1712124700549,2046602,0
1712124709395,1712124700590,2043860,0
1712124709395,1712124700629,2041152,0
1712124709395,1712124700670,2038916,0
1712124709395,1712124700710,2037455,0
1712124709395,1712124700750,2036490,0
1712124709395,1712124700791,2035702,0
1712124709395,1712124700830,2034705,0
1712124709395,1712124700870,2033706,0
1712124709395,1712124700910,2033027,0
1712124709395,1712124700950,2032589,0
1712124709395,1712124700991,2032030,0
1712124709395,1712124701031,2031984,0
1712124709395,1712124701071,2031941,0
1712124709395,1712124701111,2032133,0
1712124709395,1712124701151,2032471,0
1712124709395,1712124701192,2032989,0
1712124709395,1712124701231,2033346,0
1712124709395,1712124701271,2032126,0
1712124709395,1712124701311,2029986,0
1712124709395,1712124701351,2027851,0
1712124709395,1712124701392,2026346,0
1712124709395,1712124701432,2025397,0
1712124709395,1712124701472,2025135,0
1712124709395,1712124701512,2025042,0
1712124709395,1712124701552,2024656,0
1712124709395,1712124701592,2024350,0
1712124709395,1712124701632,2024260,0
1712124709395,1712124701672,2024338,0
1712124709395,1712124701712,2024919,0
1712124709395,1712124701752,2025403,0
1712124709395,1712124701793,2025961,0
1712124709395,1712124701832,2026934,0
1712124709395,1712124701872,2027667,0
1712124709395,1712124701912,2028604,0
1712124709395,1712124701953,2029175,0
1712124709395,1712124701993,2028139,0
1712124709395,1712124702033,2026480,0
1712124709395,1712124702073,2024645,0
1712124709395,1712124702113,2023665,0
1712124709395,1712124702153,2023107,0
1712124709395,1712124702194,2023049,0
1712124709395,1712124702233,2023138,0
1712124709395,1712124702273,2023166,0
1712124709395,1712124702313,2022955,0
1712124709395,1712124702353,2022779,0
1712124709395,1712124702394,2023183,0
1712124709395,1712124702433,2024103,0
1712124709395,1712124702474,2025271,0
1712124709395,1712124702514,2026616,0
1712124709395,1712124702554,2028057,0
1712124709395,1712124702595,2029333,0
1712124709395,1712124702634,2030422,0
1712124709395,1712124702674,2030947,0
1712124709395,1712124702714,2029641,0
1712124709395,1712124702754,2027683,0
1712124709395,1712124702795,2025974,0
1712124709395,1712124702834,2024743,0
1712124709395,1712124702874,2024123,0
1712124709395,1712124702914,2024072,0
1712124709395,1712124702955,2024160,0
1712124709395,1712124702995,2024033,0
1712124709395,1712124703035,2023712,0
1712124709395,1712124703075,2023689,0
1712124709395,1712124703115,2023903,0
1712124709395,1712124703155,2024122,0
1712124709395,1712124703196,2024481,0
1712124709395,1712124703235,2024992,0
1712124709395,1712124703276,2025755,0
1712124709395,1712124703315,2026609,0
1712124709395,1712124703355,2027636,0
1712124709395,1712124703396,2028690,0
1712124709395,1712124703436,2029435,0
1712124709395,1712124703476,2028405,0
1712124709395,1712124703516,2026496,0
1712124709395,1712124703556,2024735,0
1712124709395,1712124703597,2023640,0
1712124709395,1712124703636,2022791,0
1712124709395,1712124703676,2022214,0
1712124709395,1712124703716,2022261,0
1712124709395,1712124703756,2022068,0
1712124709395,1712124703797,2021812,0
1712124709395,1712124703836,2021635,0
1712124709395,1712124703877,2021805,0
1712124709395,1712124703917,2022400,0
1712124709395,1712124703957,2023371,0
1712124709395,1712124703997,2024364,0
1712124709395,1712124704037,2025683,0
1712124709395,1712124704077,2026792,0
1712124709395,1712124704117,2028138,0
1712124709395,1712124704157,2029419,0
1712124709395,1712124704198,2030255,0
1712124709395,1712124704237,2029755,0
1712124709395,1712124704278,2028503,0
1712124709395,1712124704318,2027516,0
1712124709395,1712124704358,2026968,0
1712124709395,1712124704399,2026717,0
1712124709395,1712124704438,2026995,0
1712124709395,1712124704478,2027229,0
1712124709395,1712124704518,2027654,0
1712124709395,1712124704558,2028098,0
1712124709395,1712124704599,2028597,0
1712124709395,1712124704638,2029309,0
1712124709395,1712124704678,2030096,0
1712124709395,1712124704719,2031199,0
1712124709395,1712124704759,2032337,0
1712124709395,1712124704799,2033628,0
1712124709395,1712124704839,2034860,0
1712124709395,1712124704879,2036220,0
1712124709395,1712124704919,2037466,0
1712124709395,1712124704959,2038812,0
1712124709395,1712124705000,2038935,0
1712124709395,1712124705039,2038005,0
1712124709395,1712124705079,2036688,0
1712124709395,1712124705120,2035740,0
1712124709395,1712124705160,2035316,0
1712124709395,1712124705201,2035241,0
1712124709395,1712124705240,2035568,0
1712124709395,1712124705280,2036009,0
1712124709395,1712124705321,2036366,0
1712124709395,1712124705361,2036449,0
1712124709395,1712124705402,2036920,0
1712124709395,1712124705441,2037669,0
1712124709395,1712124705485,2038359,0
1712124709395,1712124705522,2039354,0
1712124709395,1712124705562,2040173,0
1712124709395,1712124705603,2041156,0
1712124709395,1712124705643,2042429,0
1712124709395,1712124705683,2043663,0
1712124709395,1712124705723,2045286,0
1712124709395,1712124705763,2046789,0
1712124709395,1712124705804,2046960,0
1712124709395,1712124705844,2046186,0
1712124709395,1712124705884,2045038,0
1712124709395,1712124705924,2044287,0
1712124709395,1712124705965,2044076,0
1712124709395,1712124706006,2044023,0
1712124709395,1712124706045,2044315,0
1712124709395,1712124706086,2044529,0
1712124709395,1712124706126,2044788,0
1712124709395,1712124706166,2044809,0
1712124709395,1712124706207,2044605,0
1712124709395,1712124706247,2044442,0
1712124709395,1712124706288,2044622,0
1712124709395,1712124706327,2044923,0
1712124709395,1712124706367,2045900,0
1712124709395,1712124706408,2047109,0
1712124709395,1712124706448,2048322,0
1712124709395,1712124706488,2049429,0
1712124709395,1712124706528,2050773,0
1712124709395,1712124706569,2051785,0
1712124709395,1712124706610,2052112,0
1712124709395,1712124706649,2051133,0
1712124709395,1712124706690,2049595,0
1712124709395,1712124706730,2048369,0
1712124709395,1712124706770,2048254,0
1712124709395,1712124706812,2049272,0
1712124709395,1712124706851,2050018,0
1712124709395,1712124706892,2050897,0
1712124709395,1712124706932,2051521,0
1712124709395,1712124706972,2051953,0
1712124709395,1712124707013,2052374,0
1712124709395,1712124707052,2053431,0
1712124709395,1712124707092,2055036,0
1712124709395,1712124707132,2056303,0
1712124709395,1712124707173,2058059,0
1712124709395,1712124707214,2059451,0
1712124709395,1712124707253,2061025,0
1712124709395,1712124707293,2062562,0
1712124709395,1712124707333,2064218,0
1712124709395,1712124707373,2065480,0
1712124709395,1712124707414,2065430,0
1712124709395,1712124707454,2064618,0
1712124709395,1712124707494,2063652,0
1712124709395,1712124707534,2062982,0
1712124709395,1712124707574,2062421,0
1712124709395,1712124707615,2061692,0
1712124709395,1712124707655,2060496,0
1712124709395,1712124707698,2059416,0
1712124709395,1712124707735,2058051,0
1712124709395,1712124707775,2058206,0
1712124709395,1712124707816,2058503,0
1712124709395,1712124707855,2059831,0
1712124709395,1712124707896,2061184,0
1712124709395,1712124707936,2062373,0
1712124709395,1712124707976,2063722,0
1712124709395,1712124708017,2064456,0
1712124709395,1712124708056,2065367,0
1712124709395,1712124708097,2066479,0
1712124709395,1712124708137,2068072,0
1712124709395,1712124708177,2070330,0
1712124709395,1712124708218,2071339,0
1712124709395,1712124708258,2071757,0
1712124709395,1712124708298,2071284,0
1712124709395,1712124708338,2070336,0
1712124709395,1712124708378,2068589,0
1712124709395,1712124708419,2067027,0
1712124709395,1712124708459,2066325,0
1712124709395,1712124708499,2062685,0
1712124709395,1712124708539,2059998,0
1712124709395,1712124708579,2058546,0
1712124709395,1712124708620,2056797,0
1712124709395,1712124708660,2057138,0
1712124709395,1712124708700,2057819,0
1712124709395,1712124708740,2059440,0
1712124709395,1712124708781,2058559,0
1712124709395,1712124708822,2059466,0
1712124709395,1712124708861,2061030,0
1712124709395,1712124708901,2062293,0
1712124709395,1712124708942,2063600,0
1712124709395,1712124708982,2063729,0
1712124709395,1712124709023,2062840,0
1712124709395,1712124709063,2062310,0
1712124709395,1712124709103,2061692,0
1712124709395,1712124709143,2061536,0
1712124709395,1712124709183,2061807,0
1712124709395,1712124709224,2062022,0
1712124709395,1712124709264,2062016,0
1712124709395,1712124709306,2062390,0
1712124709395,1712124709345,2063211,0
1712124721386,1712124709384,2065596,0
1712124721386,1712124709423,2067661,0
1712124721386,1712124709462,2069859,0
1712124721386,1712124709501,2072817,0
1712124721386,1712124709540,2077007,0
1712124721386,1712124709579,2080277,0
1712124721386,1712124709618,2083123,0
1712124721386,1712124709657,2085350,0
1712124721386,1712124709696,2086942,0
1712124721386,1712124709735,2086178,0
1712124721386,1712124709774,2087370,0
1712124721386,1712124709813,2084318,0
1712124721386,1712124709852,2085221,0
1712124721386,1712124709891,2083516,0
1712124721386,1712124709930,2081271,0
1712124721386,1712124709969,2080681,0
1712124721386,1712124710008,2079410,0
1712124721386,1712124710047,2078555,0
1712124721386,1712124710086,2078172,0
1712124721386,1712124710125,2078166,0
1712124721386,1712124710164,2079119,0
1712124721386,1712124710203,2080573,0
1712124721386,1712124710242,2082818,0
1712124721386,1712124710281,2084267,0
1712124721386,1712124710320,2085482,0
1712124721386,1712124710359,2086622,0
1712124721386,1712124710398,2087765,0
1712124721386,1712124710437,2088636,0
1712124721386,1712124710476,2088370,0
1712124721386,1712124710515,2086977,0
1712124721386,1712124710554,2085390,0
1712124721386,1712124710593,2084035,0
1712124721386,1712124710632,2083170,0
1712124721386,1712124710671,2082812,0
1712124721386,1712124710710,2082586,0
1712124721386,1712124710749,2082459,0
1712124721386,1712124710788,2082226,0
1712124721386,1712124710827,2082135,0
1712124721386,1712124710866,2082178,0
1712124721386,1712124710905,2082408,0
1712124721386,1712124710945,2082851,0
1712124721386,1712124710985,2083319,0
1712124721386,1712124711025,2083783,0
1712124721386,1712124711065,2084449,0
1712124721386,1712124711105,2085030,0
1712124721386,1712124711145,2085589,0
1712124721386,1712124711185,2084984,0
1712124721386,1712124711225,2083354,0
1712124721386,1712124711265,2081216,0
1712124721386,1712124711305,2079644,0
1712124721386,1712124711345,2078304,0
1712124721386,1712124711385,2077329,0
1712124721386,1712124711425,2076895,0
1712124721386,1712124711465,2076461,0
1712124721386,1712124711505,2075897,0
1712124721386,1712124711545,2075468,0
1712124721386,1712124711585,2075316,0
1712124721386,1712124711625,2075207,0
1712124721386,1712124711665,2075272,0
1712124721386,1712124711705,2075629,0
1712124721386,1712124711745,2076056,0
1712124721386,1712124711785,2076474,0
1712124721386,1712124711825,2077134,0
1712124721386,1712124711865,2077721,0
1712124721386,1712124711905,2078105,0
1712124721386,1712124711945,2076929,0
1712124721386,1712124711985,2074761,0
1712124721386,1712124712025,2072796,0
1712124721386,1712124712065,2071315,0
1712124721386,1712124712105,2070223,0
1712124721386,1712124712145,2069864,0
1712124721386,1712124712185,2069642,0
1712124721386,1712124712225,2069331,0
1712124721386,1712124712265,2068817,0
1712124721386,1712124712305,2068471,0
1712124721386,1712124712345,2068145,0
1712124721386,1712124712385,2068179,0
1712124721386,1712124712425,2068221,0
1712124721386,1712124712465,2068509,0
1712124721386,1712124712505,2068815,0
1712124721386,1712124712545,2069317,0
1712124721386,1712124712585,2069968,0
1712124721386,1712124712625,2070552,0
1712124721386,1712124712665,2071100,0
1712124721386,1712124712705,2070154,0
1712124721386,1712124712745,2068247,0
1712124721386,1712124712785,2066294,0
1712124721386,1712124712825,2065050,0
1712124721386,1712124712865,2064122,0
1712124721386,1712124712905,2064052,0
1712124721386,1712124712945,2063949,0
1712124721386,1712124712985,2063847,0
1712124721386,1712124713025,2063528,0
1712124721386,1712124713065,2063063,0
1712124721386,1712124713105,2062885,0
1712124721386,1712124713145,2063192,0
1712124721386,1712124713185,2063487,0
1712124721386,1712124713225,2063926,0
1712124721386,1712124713265,2064494,0
1712124721386,1712124713305,2064985,0
1712124721386,1712124713345,2065853,0
1712124721386,1712124713385,2066197,0
1712124721386,1712124713425,2064933,0
1712124721386,1712124713465,2062620,0
1712124721386,1712124713505,2060249,0
1712124721386,1712124713545,2058498,0
1712124721386,1712124713585,2057311,0
1712124721386,1712124713625,2056610,0
1712124721386,1712124713665,2056372,0
1712124721386,1712124713705,2055873,0
1712124721386,1712124713745,2055398,0
1712124721386,1712124713785,2055189,0
1712124721386,1712124713825,2054973,0
1712124721386,1712124713865,2055136,0
1712124721386,1712124713905,2055525,0
1712124721386,1712124713945,2055872,0
1712124721386,1712124713985,2056382,0
1712124721386,1712124714025,2057081,0
1712124721386,1712124714065,2057977,0
1712124721386,1712124714105,2058788,0
1712124721386,1712124714145,2058213,0
1712124721386,1712124714185,2056019,0
1712124721386,1712124714225,2053388,0
1712124721386,1712124714265,2051451,0
1712124721386,1712124714305,2049954,0
1712124721386,1712124714345,2049110,0
1712124721386,1712124714385,2048582,0
1712124721386,1712124714425,2048187,0
1712124721386,1712124714465,2047675,0
1712124721386,1712124714505,2047076,0
1712124721386,1712124714545,2046600,0
1712124721386,1712124714585,2046541,0
1712124721386,1712124714625,2046496,0
1712124721386,1712124714665,2046582,0
1712124721386,1712124714705,2046653,0
1712124721386,1712124714745,2046899,0
1712124721386,1712124714785,2047181,0
1712124721386,1712124714825,2047646,0
1712124721386,1712124714865,2047500,0
1712124721386,1712124714905,2045484,0
1712124721386,1712124714945,2042901,0
1712124721386,1712124714985,2040452,0
1712124721386,1712124715025,2038843,0
1712124721386,1712124715065,2038206,0
1712124721386,1712124715105,2037906,0
1712124721386,1712124715145,2037801,0
1712124721386,1712124715185,2037805,0
1712124721386,1712124715225,2037607,0
1712124721386,1712124715265,2037814,0
1712124721386,1712124715305,2038090,0
1712124721386,1712124715345,2038812,0
1712124721386,1712124715385,2039493,0
1712124721386,1712124715425,2040293,0
1712124721386,1712124715465,2041272,0
1712124721386,1712124715505,2042212,0
1712124721386,1712124715545,2043270,0
1712124721386,1712124715585,2043139,0
1712124721386,1712124715625,2040886,0
1712124721386,1712124715665,2038037,0
1712124721386,1712124715705,2035406,0
1712124721386,1712124715745,2033678,0
1712124721386,1712124715785,2032718,0
1712124721386,1712124715825,2032224,0
1712124721386,1712124715865,2031781,0
1712124721386,1712124715905,2031374,0
1712124721386,1712124715945,2030801,0
1712124721386,1712124715985,2030612,0
1712124721386,1712124716025,2030533,0
1712124721386,1712124716065,2030732,0
1712124721386,1712124716105,2031136,0
1712124721386,1712124716145,2031776,0
1712124721386,1712124716185,2032370,0
1712124721386,1712124716225,2033191,0
1712124721386,1712124716265,2034232,0
1712124721386,1712124716305,2034523,0
1712124721386,1712124716345,2032656,0
1712124721386,1712124716385,2029907,0
1712124721386,1712124716425,2027364,0
1712124721386,1712124716465,2025639,0
1712124721386,1712124716505,2024604,0
1712124721386,1712124716545,2024339,0
1712124721386,1712124716585,2024039,0
1712124721386,1712124716625,2023524,0
1712124721386,1712124716665,2023212,0
1712124721386,1712124716705,2023127,0
1712124721386,1712124716745,2023389,0
1712124721386,1712124716785,2023922,0
1712124721386,1712124716825,2024625,0
1712124721386,1712124716865,2025785,0
1712124721386,1712124716905,2026880,0
1712124721386,1712124716945,2028034,0
1712124721386,1712124716985,2029137,0
1712124721386,1712124717025,2030154,0
1712124721386,1712124717065,2029317,0
1712124721386,1712124717105,2026876,0
1712124721386,1712124717145,2024523,0
1712124721386,1712124717185,2022727,0
1712124721386,1712124717225,2021743,0
1712124721386,1712124717265,2021555,0
1712124721386,1712124717305,2021276,0
1712124721386,1712124717345,2021062,0
1712124721386,1712124717385,2020504,0
1712124721386,1712124717425,2020168,0
1712124721386,1712124717465,2020010,0
1712124721386,1712124717505,2020139,0
1712124721386,1712124717545,2020468,0
1712124721386,1712124717585,2021061,0
1712124721386,1712124717625,2021726,0
1712124721386,1712124717665,2022491,0
1712124721386,1712124717705,2023337,0
1712124721386,1712124717745,2024284,0
1712124721386,1712124717785,2024075,0
1712124721386,1712124717825,2022258,0
1712124721386,1712124717865,2020021,0
1712124721386,1712124717905,2018515,0
1712124721386,1712124717945,2017943,0
1712124721386,1712124717985,2018008,0
1712124721386,1712124718025,2018332,0
1712124721386,1712124718065,2018480,0
1712124721386,1712124718105,2018437,0
1712124721386,1712124718145,2018465,0
1712124721386,1712124718185,2018619,0
1712124721386,1712124718225,2019294,0
1712124721386,1712124718265,2020072,0
1712124721386,1712124718305,2020928,0
1712124721386,1712124718345,2021947,0
1712124721386,1712124718385,2022990,0
1712124721386,1712124718425,2024084,0
1712124721386,1712124718465,2025104,0
1712124721386,1712124718505,2024226,0
1712124721386,1712124718545,2021863,0
1712124721386,1712124718585,2019544,0
1712124721386,1712124718625,2018031,0
1712124721386,1712124718665,2017458,0
1712124721386,1712124718705,2017548,0
1712124721386,1712124718745,2017548,0
1712124721386,1712124718785,2017544,0
1712124721386,1712124718825,2017175,0
1712124721386,1712124718865,2017005,0
1712124721386,1712124718905,2017133,0
1712124721386,1712124718945,2017543,0
1712124721386,1712124718985,2017996,0
1712124721386,1712124719025,2018708,0
1712124721386,1712124719065,2019514,0
1712124721386,1712124719105,2020369,0
1712124721386,1712124719145,2021373,0
1712124721386,1712124719185,2022248,0
1712124721386,1712124719225,2021424,0
1712124721386,1712124719265,2018979,0
1712124721386,1712124719305,2016358,0
1712124721386,1712124719345,2014420,0
1712124721386,1712124719385,2013286,0
1712124721386,1712124719425,2012668,0
1712124721386,1712124719465,2012444,0
1712124721386,1712124719505,2012182,0
1712124721386,1712124719545,2011769,0
1712124721386,1712124719585,2011786,0
1712124721386,1712124719625,2012157,0
1712124721386,1712124719665,2012801,0
1712124721386,1712124719705,2013313,0
1712124721386,1712124719745,2014100,0
1712124721386,1712124719785,2015222,0
1712124721386,1712124719825,2016166,0
1712124721386,1712124719865,2017562,0
1712124721386,1712124719905,2018910,0
1712124721386,1712124719945,2019634,0
1712124721386,1712124719985,2018650,0
1712124721386,1712124720025,2016810,0
1712124721386,1712124720065,2015321,0
1712124721386,1712124720105,2014181,0
1712124721386,1712124720145,2013407,0
1712124721386,1712124720185,2012883,0
1712124721386,1712124720225,2012498,0
1712124721386,1712124720265,2011879,0
1712124721386,1712124720305,2011270,0
1712124721386,1712124720345,2010843,0
1712124721386,1712124720385,2010840,0
1712124721386,1712124720425,2010856,0
1712124721386,1712124720465,2011103,0
1712124721386,1712124720505,2011604,0
1712124721386,1712124720545,2012184,0
1712124721386,1712124720585,2012837,0
1712124721386,1712124720625,2013804,0
1712124721386,1712124720665,2014770,0
1712124721386,1712124720705,2014292,0
1712124721386,1712124720745,2012357,0
1712124721386,1712124720785,2010155,0
1712124721386,1712124720825,2008572,0
1712124721386,1712124720865,2007728,0
1712124721386,1712124720905,2007561,0
1712124721386,1712124720945,2007803,0
1712124721386,1712124720985,2008283,0
1712124721386,1712124721025,2008150,0
1712124721386,1712124721065,2008007,0
1712124721386,1712124721105,2008119,0
1712124721386,1712124721145,2008344,0
1712124721386,1712124721185,2008881,0
1712124721386,1712124721225,2009375,0
1712124721386,1712124721265,2010073,0
1712124721386,1712124721305,2010793,0
1712124733460,1712124721398,2011830,0
1712124733460,1712124721439,2012841,0
1712124733460,1712124721478,2013019,0
1712124733460,1712124721518,2011624,0
1712124733460,1712124721559,2009789,0
1712124733460,1712124721599,2008587,0
1712124733460,1712124721639,2008027,0
1712124733460,1712124721679,2008227,0
1712124733460,1712124721719,2008679,0
1712124733460,1712124721759,2008864,0
1712124733460,1712124721799,2008949,0
1712124733460,1712124721840,2009016,0
1712124733460,1712124721880,2009283,0
1712124733460,1712124721920,2009815,0
1712124733460,1712124721960,2010588,0
1712124733460,1712124722000,2011419,0
1712124733460,1712124722041,2012248,0
1712124733460,1712124722080,2013304,0
1712124733460,1712124722120,2014431,0
1712124733460,1712124722160,2015713,0
1712124733460,1712124722200,2016239,0
1712124733460,1712124722241,2014787,0
1712124733460,1712124722280,2012706,0
1712124733460,1712124722321,2010998,0
1712124733460,1712124722361,2010031,0
1712124733460,1712124722401,2009451,0
1712124733460,1712124722442,2009513,0
1712124733460,1712124722481,2009691,0
1712124733460,1712124722521,2009712,0
1712124733460,1712124722561,2009622,0
1712124733460,1712124722601,2009599,0
1712124733460,1712124722642,2010057,0
1712124733460,1712124722682,2010596,0
1712124733460,1712124722722,2011337,0
1712124733460,1712124722762,2012157,0
1712124733460,1712124722802,2013155,0
1712124733460,1712124722843,2014112,0
1712124733460,1712124722882,2015204,0
1712124733460,1712124722922,2016210,0
1712124733460,1712124722962,2016180,0
1712124733460,1712124723003,2014469,0
1712124733460,1712124723044,2012448,0
1712124733460,1712124723083,2011101,0
1712124733460,1712124723123,2010144,0
1712124733460,1712124723163,2009809,0
1712124733460,1712124723203,2009807,0
1712124733460,1712124723244,2009896,0
1712124733460,1712124723284,2009565,0
1712124733460,1712124723324,2009337,0
1712124733460,1712124723364,2009262,0
1712124733460,1712124723404,2009610,0
1712124733460,1712124723445,2010074,0
1712124733460,1712124723484,2010828,0
1712124733460,1712124723524,2011802,0
1712124733460,1712124723564,2012876,0
1712124733460,1712124723604,2013864,0
1712124733460,1712124723645,2015094,0
1712124733460,1712124723685,2015999,0
1712124733460,1712124723725,2015033,0
1712124733460,1712124723765,2012896,0
1712124733460,1712124723805,2010353,0
1712124733460,1712124723846,2008782,0
1712124733460,1712124723885,2007760,0
1712124733460,1712124723925,2007353,0
1712124733460,1712124723965,2007714,0
1712124733460,1712124724006,2007898,0
1712124733460,1712124724046,2007853,0
1712124733460,1712124724086,2007750,0
1712124733460,1712124724126,2008073,0
1712124733460,1712124724166,2008540,0
1712124733460,1712124724206,2009218,0
1712124733460,1712124724247,2010140,0
1712124733460,1712124724286,2011383,0
1712124733460,1712124724328,2012619,0
1712124733460,1712124724367,2013824,0
1712124733460,1712124724407,2015147,0
1712124733460,1712124724448,2016391,0
1712124733460,1712124724487,2016236,0
1712124733460,1712124724527,2014597,0
1712124733460,1712124724567,2012748,0
1712124733460,1712124724607,2011534,0
1712124733460,1712124724648,2010840,0
1712124733460,1712124724688,2010507,0
1712124733460,1712124724728,2011367,0
1712124733460,1712124724768,2011680,0
1712124733460,1712124724808,2012041,0
1712124733460,1712124724849,2012469,0
1712124733460,1712124724888,2012799,0
1712124733460,1712124724928,2012696,0
1712124733460,1712124724968,2011195,0
1712124733460,1712124725008,2008337,0
1712124733460,1712124725049,2006989,0
1712124733460,1712124725089,2007664,0
1712124733460,1712124725129,2009638,0
1712124733460,1712124725169,2011141,0
1712124733460,1712124725209,2013436,0
1712124733460,1712124725250,2013437,0
1712124733460,1712124725289,2012018,0
1712124733460,1712124725330,2011559,0
1712124733460,1712124725370,2011212,0
1712124733460,1712124725410,2011694,0
1712124733460,1712124725451,2012245,0
1712124733460,1712124725490,2013284,0
1712124733460,1712124725530,2013763,0
1712124733460,1712124725571,2014187,0
1712124733460,1712124725611,2014297,0
1712124733460,1712124725652,2014812,0
1712124733460,1712124725691,2015740,0
1712124733460,1712124725731,2016788,0
1712124733460,1712124725771,2017912,0
1712124733460,1712124725812,2018779,0
1712124733460,1712124725852,2019362,0
1712124733460,1712124725892,2019928,0
1712124733460,1712124725932,2020181,0
1712124733460,1712124725972,2019107,0
1712124733460,1712124726012,2017127,0
1712124733460,1712124726053,2015173,0
1712124733460,1712124726093,2013579,0
1712124733460,1712124726133,2012596,0
1712124733460,1712124726173,2012356,0
1712124733460,1712124726213,2012331,0
1712124733460,1712124726254,2012263,0
1712124733460,1712124726294,2012312,0
1712124733460,1712124726334,2012230,0
1712124733460,1712124726374,2012713,0
1712124733460,1712124726415,2013514,0
1712124733460,1712124726455,2014494,0
1712124733460,1712124726495,2015545,0
1712124733460,1712124726535,2016650,0
1712124733460,1712124726575,2017702,0
1712124733460,1712124726616,2018736,0
1712124733460,1712124726657,2019672,0
1712124733460,1712124726696,2020311,0
1712124733460,1712124726736,2019809,0
1712124733460,1712124726777,2018314,0
1712124733460,1712124726818,2017947,0
1712124733460,1712124726859,2017756,0
1712124733460,1712124726898,2018353,0
1712124733460,1712124726938,2019177,0
1712124733460,1712124726979,2020288,0
1712124733460,1712124727019,2021497,0
1712124733460,1712124727060,2022604,0
1712124733460,1712124727099,2024036,0
1712124733460,1712124727140,2025107,0
1712124733460,1712124727180,2026092,0
1712124733460,1712124727220,2026917,0
1712124733460,1712124727261,2026839,0
1712124733460,1712124727301,2027744,0
1712124733460,1712124727342,2029593,0
1712124733460,1712124727381,2030728,0
1712124733460,1712124727421,2032759,0
1712124733460,1712124727462,2034108,0
1712124733460,1712124727502,2034266,0
1712124733460,1712124727542,2033666,0
1712124733460,1712124727582,2032702,0
1712124733460,1712124727623,2032481,0
1712124733460,1712124727664,2032979,0
1712124733460,1712124727703,2033428,0
1712124733460,1712124727744,2034109,0
1712124733460,1712124727784,2034189,0
1712124733460,1712124727824,2034353,0
1712124733460,1712124727865,2034522,0
1712124733460,1712124727904,2035057,0
1712124733460,1712124727945,2036044,0
1712124733460,1712124727985,2037261,0
1712124733460,1712124728025,2038612,0
1712124733460,1712124728066,2039918,0
1712124733460,1712124728106,2040971,0
1712124733460,1712124728146,2041719,0
1712124733460,1712124728186,2042057,0
1712124733460,1712124728227,2041130,0
1712124733460,1712124728268,2039870,0
1712124733460,1712124728307,2039198,0
1712124733460,1712124728348,2039119,0
1712124733460,1712124728388,2039520,0
1712124733460,1712124728428,2040253,0
1712124733460,1712124728469,2040561,0
1712124733460,1712124728508,2041065,0
1712124733460,1712124728549,2041300,0
1712124733460,1712124728589,2041737,0
1712124733460,1712124728629,2042583,0
1712124733460,1712124728670,2043611,0
1712124733460,1712124728709,2044721,0
1712124733460,1712124728749,2045578,0
1712124733460,1712124728789,2046810,0
1712124733460,1712124728830,2048137,0
1712124733460,1712124728871,2048882,0
1712124733460,1712124728910,2048150,0
1712124733460,1712124728950,2046770,0
1712124733460,1712124728990,2045605,0
1712124733460,1712124729030,2045309,0
1712124733460,1712124729072,2045503,0
1712124733460,1712124729111,2046168,0
1712124733460,1712124729151,2046964,0
1712124733460,1712124729191,2047350,0
1712124733460,1712124729232,2047612,0
1712124733460,1712124729272,2047863,0
1712124733460,1712124729312,2048452,0
1712124733460,1712124729352,2049216,0
1712124733460,1712124729392,2050201,0
1712124733460,1712124729432,2051306,0
1712124733460,1712124729473,2052539,0
1712124733460,1712124729513,2053887,0
1712124733460,1712124729553,2054918,0
1712124733460,1712124729593,2054262,0
1712124733460,1712124729633,2052963,0
1712124733460,1712124729674,2052188,0
1712124733460,1712124729714,2052098,0
1712124733460,1712124729754,2052606,0
1712124733460,1712124729794,2053360,0
1712124733460,1712124729834,2054211,0
1712124733460,1712124729875,2054813,0
1712124733460,1712124729915,2055228,0
1712124733460,1712124729955,2055799,0
1712124733460,1712124729995,2056530,0
1712124733460,1712124730036,2057564,0
1712124733460,1712124730076,2058640,0
1712124733460,1712124730116,2059850,0
1712124733460,1712124730156,2060983,0
1712124733460,1712124730197,2062295,0
1712124733460,1712124730237,2062040,0
1712124733460,1712124730278,2060880,0
1712124733460,1712124730317,2059630,0
1712124733460,1712124730359,2058686,0
1712124733460,1712124730398,2058701,0
1712124733460,1712124730438,2059069,0
1712124733460,1712124730479,2059425,0
1712124733460,1712124730519,2059935,0
1712124733460,1712124730559,2059940,0
1712124733460,1712124730599,2060231,0
1712124733460,1712124730639,2060537,0
1712124733460,1712124730680,2061219,0
1712124733460,1712124730720,2062157,0
1712124733460,1712124730760,2062911,0
1712124733460,1712124730800,2063879,0
1712124733460,1712124730841,2064883,0
1712124733460,1712124730882,2065813,0
1712124733460,1712124730921,2065361,0
1712124733460,1712124730961,2063739,0
1712124733460,1712124731002,2061938,0
1712124733460,1712124731042,2060693,0
1712124733460,1712124731083,2060157,0
1712124733460,1712124731123,2060296,0
1712124733460,1712124731163,2060490,0
1712124733460,1712124731203,2060563,0
1712124733460,1712124731243,2060508,0
1712124733460,1712124731284,2060484,0
1712124733460,1712124731324,2060558,0
1712124733460,1712124731364,2060846,0
1712124733460,1712124731404,2061459,0
1712124733460,1712124731444,2062010,0
1712124733460,1712124731486,2062630,0
1712124733460,1712124731525,2063591,0
1712124733460,1712124731565,2064276,0
1712124733460,1712124731605,2063636,0
1712124733460,1712124731646,2061478,0
1712124733460,1712124731686,2059256,0
1712124733460,1712124731726,2057930,0
1712124733460,1712124731768,2056926,0
1712124733460,1712124731808,2056772,0
1712124733460,1712124731849,2056716,0
1712124733460,1712124731889,2056354,0
1712124733460,1712124731929,2056179,0
1712124733460,1712124731969,2055942,0
1712124733460,1712124732009,2056135,0
1712124733460,1712124732049,2056553,0
1712124733460,1712124732090,2056931,0
1712124733460,1712124732130,2057278,0
1712124733460,1712124732170,2057843,0
1712124733460,1712124732210,2058384,0
1712124733460,1712124732250,2057848,0
1712124733460,1712124732291,2055931,0
1712124733460,1712124732331,2053334,0
1712124733460,1712124732371,2051492,0
1712124733460,1712124732411,2050382,0
1712124733460,1712124732451,2049666,0
1712124733460,1712124732492,2049471,0
1712124733460,1712124732531,2049106,0
1712124733460,1712124732572,2048684,0
1712124733460,1712124732612,2048088,0
1712124733460,1712124732652,2047693,0
1712124733460,1712124732693,2047536,0
1712124733460,1712124732732,2047559,0
1712124733460,1712124732772,2047754,0
1712124733460,1712124732813,2048061,0
1712124733460,1712124732853,2048484,0
1712124733460,1712124732894,2049119,0
1712124733460,1712124732934,2049635,0
1712124733460,1712124732973,2048435,0
1712124733460,1712124733014,2046264,0
1712124733460,1712124733054,2043911,0
1712124733460,1712124733095,2042531,0
1712124733460,1712124733134,2041749,0
1712124733460,1712124733175,2041442,0
1712124733460,1712124733215,2041142,0
1712124733460,1712124733255,2040759,0
1712124733460,1712124733296,2040212,0
1712124733460,1712124733336,2039792,0
1712124733460,1712124733377,2039675,0
1712124733460,1712124733416,2039721,0
1712124745523,1712124733460,2039993,0
1712124745523,1712124733501,2040471,0
1712124745523,1712124733540,2040991,0
1712124745523,1712124733580,2041618,0
1712124745523,1712124733621,2042384,0
1712124745523,1712124733661,2042852,0
1712124745523,1712124733702,2042043,0
1712124745523,1712124733741,2039862,0
1712124745523,1712124733781,2037825,0
1712124745523,1712124733821,2036642,0
1712124745523,1712124733861,2036049,0
1712124745523,1712124733902,2035978,0
1712124745523,1712124733941,2036106,0
1712124745523,1712124733982,2035715,0
1712124745523,1712124734022,2035387,0
1712124745523,1712124734062,2034930,0
1712124745523,1712124734103,2034948,0
1712124745523,1712124734142,2035187,0
1712124745523,1712124734182,2035490,0
1712124745523,1712124734222,2036042,0
1712124745523,1712124734263,2036659,0
1712124745523,1712124734303,2037249,0
1712124745523,1712124734343,2038123,0
1712124745523,1712124734383,2037951,0
1712124745523,1712124734423,2036133,0
1712124745523,1712124734463,2034269,0
1712124745523,1712124734504,2032959,0
1712124745523,1712124734543,2032291,0
1712124745523,1712124734583,2032427,0
1712124745523,1712124734624,2032695,0
1712124745523,1712124734663,2032811,0
1712124745523,1712124734704,2032774,0
1712124745523,1712124734744,2032539,0
1712124745523,1712124734784,2032562,0
1712124745523,1712124734824,2033024,0
1712124745523,1712124734864,2033491,0
1712124745523,1712124734905,2034166,0
1712124745523,1712124734945,2034976,0
1712124745523,1712124734985,2035720,0
1712124745523,1712124735025,2036449,0
1712124745523,1712124735065,2036969,0
1712124745523,1712124735106,2035342,0
1712124745523,1712124735145,2032938,0
1712124745523,1712124735185,2030803,0
1712124745523,1712124735225,2029494,0
1712124745523,1712124735265,2028734,0
1712124745523,1712124735306,2028387,0
1712124745523,1712124735346,2028301,0
1712124745523,1712124735386,2027860,0
1712124745523,1712124735426,2027592,0
1712124745523,1712124735466,2027222,0
1712124745523,1712124735507,2027326,0
1712124745523,1712124735546,2027589,0
1712124745523,1712124735586,2027965,0
1712124745523,1712124735626,2028487,0
1712124745523,1712124735667,2029144,0
1712124745523,1712124735707,2029857,0
1712124745523,1712124735747,2030575,0
1712124745523,1712124735787,2030761,0
1712124745523,1712124735827,2028835,0
1712124745523,1712124735867,2026532,0
1712124745523,1712124735908,2024513,0
1712124745523,1712124735947,2023332,0
1712124745523,1712124735987,2022693,0
1712124745523,1712124736027,2022370,0
1712124745523,1712124736068,2022247,0
1712124745523,1712124736108,2021751,0
1712124745523,1712124736148,2021465,0
1712124745523,1712124736188,2021183,0
1712124745523,1712124736228,2021244,0
1712124745523,1712124736268,2021575,0
1712124745523,1712124736309,2021947,0
1712124745523,1712124736348,2022678,0
1712124745523,1712124736390,2023289,0
1712124745523,1712124736429,2024087,0
1712124745523,1712124736469,2024995,0
1712124745523,1712124736509,2025583,0
1712124745523,1712124736549,2024684,0
1712124745523,1712124736589,2022647,0
1712124745523,1712124736629,2020808,0
1712124745523,1712124736669,2019712,0
1712124745523,1712124736710,2018969,0
1712124745523,1712124736750,2019065,0
1712124745523,1712124736790,2019030,0
1712124745523,1712124736830,2018780,0
1712124745523,1712124736870,2018403,0
1712124745523,1712124736911,2018207,0
1712124745523,1712124736950,2018294,0
1712124745523,1712124736990,2018637,0
1712124745523,1712124737031,2019183,0
1712124745523,1712124737070,2019806,0
1712124745523,1712124737111,2020439,0
1712124745523,1712124737151,2021287,0
1712124745523,1712124737191,2022101,0
1712124745523,1712124737231,2022996,0
1712124745523,1712124737271,2022820,0
1712124745523,1712124737312,2021330,0
1712124745523,1712124737351,2019602,0
1712124745523,1712124737391,2018714,0
1712124745523,1712124737431,2018398,0
1712124745523,1712124737471,2018594,0
1712124745523,1712124737512,2018934,0
1712124745523,1712124737551,2019287,0
1712124745523,1712124737592,2019208,0
1712124745523,1712124737632,2019332,0
1712124745523,1712124737672,2019691,0
1712124745523,1712124737713,2020340,0
1712124745523,1712124737752,2021015,0
1712124745523,1712124737792,2022069,0
1712124745523,1712124737832,2023074,0
1712124745523,1712124737872,2023943,0
1712124745523,1712124737913,2025021,0
1712124745523,1712124737952,2026153,0
1712124745523,1712124737993,2026209,0
1712124745523,1712124738033,2024634,0
1712124745523,1712124738073,2022645,0
1712124745523,1712124738114,2021158,0
1712124745523,1712124738153,2020265,0
1712124745523,1712124738193,2019962,0
1712124745523,1712124738233,2019992,0
1712124745523,1712124738273,2020037,0
1712124745523,1712124738314,2019882,0
1712124745523,1712124738354,2019840,0
1712124745523,1712124738393,2019788,0
1712124745523,1712124738434,2020209,0
1712124745523,1712124738474,2020782,0
1712124745523,1712124738514,2021622,0
1712124745523,1712124738554,2022313,0
1712124745523,1712124738594,2023166,0
1712124745523,1712124738634,2023967,0
1712124745523,1712124738674,2025117,0
1712124745523,1712124738715,2026098,0
1712124745523,1712124738754,2025928,0
1712124745523,1712124738794,2024233,0
1712124745523,1712124738835,2022580,0
1712124745523,1712124738875,2021358,0
1712124745523,1712124738915,2020702,0
1712124745523,1712124738955,2020313,0
1712124745523,1712124738995,2020560,0
1712124745523,1712124739035,2020669,0
1712124745523,1712124739075,2020489,0
1712124745523,1712124739116,2020516,0
1712124745523,1712124739155,2020764,0
1712124745523,1712124739195,2021102,0
1712124745523,1712124739235,2021700,0
1712124745523,1712124739275,2022331,0
1712124745523,1712124739316,2023192,0
1712124745523,1712124739356,2023979,0
1712124745523,1712124739397,2024902,0
1712124745523,1712124739436,2025893,0
1712124745523,1712124739476,2026878,0
1712124745523,1712124739517,2026990,0
1712124745523,1712124739556,2025445,0
1712124745523,1712124739596,2023772,0
1712124745523,1712124739636,2022572,0
1712124745523,1712124739676,2022102,0
1712124745523,1712124739717,2022103,0
1712124745523,1712124739756,2022333,0
1712124745523,1712124739797,2022458,0
1712124745523,1712124739837,2022326,0
1712124745523,1712124739877,2022264,0
1712124745523,1712124739918,2022439,0
1712124745523,1712124739957,2022788,0
1712124745523,1712124739997,2023428,0
1712124745523,1712124740037,2024122,0
1712124745523,1712124740077,2024878,0
1712124745523,1712124740118,2025689,0
1712124745523,1712124740157,2026537,0
1712124745523,1712124740197,2027650,0
1712124745523,1712124740238,2028801,0
1712124745523,1712124740278,2029120,0
1712124745523,1712124740318,2028063,0
1712124745523,1712124740358,2026681,0
1712124745523,1712124740398,2026046,0
1712124745523,1712124740438,2025920,0
1712124745523,1712124740478,2026421,0
1712124745523,1712124740519,2026885,0
1712124745523,1712124740558,2027402,0
1712124745523,1712124740598,2027617,0
1712124745523,1712124740639,2027855,0
1712124745523,1712124740679,2028365,0
1712124745523,1712124740719,2029035,0
1712124745523,1712124740759,2029805,0
1712124745523,1712124740799,2030781,0
1712124745523,1712124740839,2031553,0
1712124745523,1712124740879,2032778,0
1712124745523,1712124740920,2033798,0
1712124745523,1712124740959,2034809,0
1712124745523,1712124741000,2035969,0
1712124745523,1712124741040,2035906,0
1712124745523,1712124741080,2034369,0
1712124745523,1712124741121,2032599,0
1712124745523,1712124741160,2031467,0
1712124745523,1712124741201,2030943,0
1712124745523,1712124741241,2030983,0
1712124745523,1712124741281,2031106,0
1712124745523,1712124741322,2031275,0
1712124745523,1712124741362,2031285,0
1712124745523,1712124741402,2031276,0
1712124745523,1712124741442,2031354,0
1712124745523,1712124741484,2031792,0
1712124745523,1712124741524,2032280,0
1712124745523,1712124741564,2032922,0
1712124745523,1712124741604,2033803,0
1712124745523,1712124741644,2034608,0
1712124745523,1712124741685,2035401,0
1712124745523,1712124741726,2036432,0
1712124745523,1712124741765,2037494,0
1712124745523,1712124741805,2037650,0
1712124745523,1712124741846,2036336,0
1712124745523,1712124741886,2034446,0
1712124745523,1712124741927,2033196,0
1712124745523,1712124741967,2032349,0
1712124745523,1712124742007,2032175,0
1712124745523,1712124742047,2032145,0
1712124745523,1712124742087,2032254,0
1712124745523,1712124742128,2032123,0
1712124745523,1712124742168,2031927,0
1712124745523,1712124742208,2031888,0
1712124745523,1712124742248,2032113,0
1712124745523,1712124742288,2032605,0
1712124745523,1712124742330,2033072,0
1712124745523,1712124742369,2033722,0
1712124745523,1712124742411,2034538,0
1712124745523,1712124742450,2035239,0
1712124745523,1712124742490,2036036,0
1712124745523,1712124742531,2036890,0
1712124745523,1712124742571,2037156,0
1712124745523,1712124742611,2035600,0
1712124745523,1712124742651,2034137,0
1712124745523,1712124742691,2033364,0
1712124745523,1712124742732,2033125,0
1712124745523,1712124742771,2033544,0
1712124745523,1712124742812,2033962,0
1712124745523,1712124742852,2034105,0
1712124745523,1712124742892,2034147,0
1712124745523,1712124742933,2034373,0
1712124745523,1712124742972,2034710,0
1712124745523,1712124743012,2035224,0
1712124745523,1712124743053,2036039,0
1712124745523,1712124743093,2036753,0
1712124745523,1712124743133,2037619,0
1712124745523,1712124743173,2038419,0
1712124745523,1712124743213,2039420,0
1712124745523,1712124743253,2040326,0
1712124745523,1712124743294,2041138,0
1712124745523,1712124743334,2040455,0
1712124745523,1712124743374,2038627,0
1712124745523,1712124743414,2036710,0
1712124745523,1712124743454,2035378,0
1712124745523,1712124743494,2034639,0
1712124745523,1712124743535,2034412,0
1712124745523,1712124743575,2034337,0
1712124745523,1712124743615,2034256,0
1712124745523,1712124743655,2033999,0
1712124745523,1712124743695,2033666,0
1712124745523,1712124743736,2033665,0
1712124745523,1712124743776,2033825,0
1712124745523,1712124743816,2034202,0
1712124745523,1712124743856,2034690,0
1712124745523,1712124743896,2035214,0
1712124745523,1712124743937,2035774,0
1712124745523,1712124743977,2036564,0
1712124745523,1712124744017,2037157,0
1712124745523,1712124744057,2038053,0
1712124745523,1712124744097,2038333,0
1712124745523,1712124744138,2036751,0
1712124745523,1712124744178,2034426,0
1712124745523,1712124744218,2032427,0
1712124745523,1712124744258,2031154,0
1712124745523,1712124744298,2030389,0
1712124745523,1712124744339,2029847,0
1712124745523,1712124744379,2029488,0
1712124745523,1712124744419,2028794,0
1712124745523,1712124744459,2028156,0
1712124745523,1712124744500,2027759,0
1712124745523,1712124744541,2027515,0
1712124745523,1712124744580,2027558,0
1712124745523,1712124744621,2027913,0
1712124745523,1712124744661,2028185,0
1712124745523,1712124744701,2028741,0
1712124745523,1712124744742,2029223,0
1712124745523,1712124744781,2029812,0
1712124745523,1712124744822,2030492,0
1712124745523,1712124744862,2031248,0
1712124745523,1712124744902,2030797,0
1712124745523,1712124744943,2028857,0
1712124745523,1712124744983,2026859,0
1712124745523,1712124745023,2025409,0
1712124745523,1712124745063,2024667,0
1712124745523,1712124745104,2024245,0
1712124745523,1712124745144,2024429,0
1712124745523,1712124745184,2024198,0
1712124745523,1712124745224,2023833,0
1712124745523,1712124745265,2023621,0
1712124745523,1712124745305,2023596,0
1712124745523,1712124745346,2023805,0
1712124745523,1712124745385,2024171,0
1712124745523,1712124745427,2024708,0
1712124745523,1712124745466,2025323,0
1712124757502,1712124745505,2025983,0
1712124757502,1712124745544,2026560,0
1712124757502,1712124745583,2027497,0
1712124757502,1712124745622,2028133,0
1712124757502,1712124745661,2028379,0
1712124757502,1712124745700,2026583,0
1712124757502,1712124745739,2024175,0
1712124757502,1712124745778,2022107,0
1712124757502,1712124745817,2020847,0
1712124757502,1712124745856,2019917,0
1712124757502,1712124745895,2019634,0
1712124757502,1712124745934,2019269,0
1712124757502,1712124745973,2018680,0
1712124757502,1712124746012,2018153,0
1712124757502,1712124746051,2017897,0
1712124757502,1712124746090,2017839,0
1712124757502,1712124746129,2017980,0
1712124757502,1712124746168,2018307,0
1712124757502,1712124746207,2018637,0
1712124757502,1712124746246,2019267,0
1712124757502,1712124746285,2019718,0
1712124757502,1712124746324,2020499,0
1712124757502,1712124746363,2021198,0
1712124757502,1712124746402,2022009,0
1712124757502,1712124746441,2021241,0
1712124757502,1712124746480,2019220,0
1712124757502,1712124746519,2016881,0
1712124757502,1712124746559,2015177,0
1712124757502,1712124746599,2014350,0
1712124757502,1712124746639,2013900,0
1712124757502,1712124746679,2013585,0
1712124757502,1712124746719,2013294,0
1712124757502,1712124746759,2012724,0
1712124757502,1712124746799,2012468,0
1712124757502,1712124746839,2012394,0
1712124757502,1712124746879,2012458,0
1712124757502,1712124746919,2012618,0
1712124757502,1712124746959,2013195,0
1712124757502,1712124746999,2013798,0
1712124757502,1712124747039,2014377,0
1712124757502,1712124747079,2015129,0
1712124757502,1712124747119,2015837,0
1712124757502,1712124747159,2016728,0
1712124757502,1712124747199,2017004,0
1712124757502,1712124747239,2015595,0
1712124757502,1712124747279,2013465,0
1712124757502,1712124747319,2011857,0
1712124757502,1712124747359,2010806,0
1712124757502,1712124747399,2010472,0
1712124757502,1712124747439,2010350,0
1712124757502,1712124747479,2010325,0
1712124757502,1712124747519,2010025,0
1712124757502,1712124747559,2009826,0
1712124757502,1712124747599,2009592,0
1712124757502,1712124747639,2009782,0
1712124757502,1712124747679,2010210,0
1712124757502,1712124747719,2010903,0
1712124757502,1712124747759,2011682,0
1712124757502,1712124747799,2012462,0
1712124757502,1712124747839,2013276,0
1712124757502,1712124747879,2014243,0
1712124757502,1712124747919,2015304,0
1712124757502,1712124747959,2015458,0
1712124757502,1712124747999,2014177,0
1712124757502,1712124748039,2012198,0
1712124757502,1712124748079,2010997,0
1712124757502,1712124748119,2010342,0
1712124757502,1712124748159,2010325,0
1712124757502,1712124748199,2010704,0
1712124757502,1712124748239,2010869,0
1712124757502,1712124748279,2010852,0
1712124757502,1712124748319,2010883,0
1712124757502,1712124748359,2011167,0
1712124757502,1712124748399,2011464,0
1712124757502,1712124748439,2012177,0
1712124757502,1712124748479,2013043,0
1712124757502,1712124748519,2013720,0
1712124757502,1712124748559,2014586,0
1712124757502,1712124748599,2015484,0
1712124757502,1712124748639,2016357,0
1712124757502,1712124748679,2017463,0
1712124757502,1712124748719,2017510,0
1712124757502,1712124748759,2015838,0
1712124757502,1712124748799,2013756,0
1712124757502,1712124748839,2012045,0
1712124757502,1712124748879,2011057,0
1712124757502,1712124748919,2010417,0
1712124757502,1712124748959,2010264,0
1712124757502,1712124748999,2010403,0
1712124757502,1712124749039,2010247,0
1712124757502,1712124749079,2010317,0
1712124757502,1712124749119,2010400,0
1712124757502,1712124749159,2010776,0
1712124757502,1712124749199,2011453,0
1712124757502,1712124749239,2012186,0
1712124757502,1712124749279,2012992,0
1712124757502,1712124749319,2013487,0
1712124757502,1712124749359,2014099,0
1712124757502,1712124749399,2014527,0
1712124757502,1712124749439,2015097,0
1712124757502,1712124749479,2015183,0
1712124757502,1712124749519,2014104,0
1712124757502,1712124749559,2011646,0
1712124757502,1712124749599,2009463,0
1712124757502,1712124749639,2007799,0
1712124757502,1712124749679,2006832,0
1712124757502,1712124749719,2005934,0
1712124757502,1712124749759,2005410,0
1712124757502,1712124749799,2003618,0
1712124757502,1712124749839,2001416,0
1712124757502,1712124749879,1999008,0
1712124757502,1712124749919,1997046,0
1712124757502,1712124749959,1995688,0
1712124757502,1712124749999,1994788,0
1712124757502,1712124750039,1994130,0
1712124757502,1712124750079,1993654,0
1712124757502,1712124750119,1993610,0
1712124757502,1712124750159,1993847,0
1712124757502,1712124750199,1993615,0
1712124757502,1712124750239,1992153,0
1712124757502,1712124750279,1989010,0
1712124757502,1712124750319,1985922,0
1712124757502,1712124750359,1984009,0
1712124757502,1712124750399,1983793,0
1712124757502,1712124750439,1985088,0
1712124757502,1712124750479,1986611,0
1712124757502,1712124750519,1987282,0
1712124757502,1712124750559,1987637,0
1712124757502,1712124750599,1987551,0
1712124757502,1712124750639,1987641,0
1712124757502,1712124750679,1988474,0
1712124757502,1712124750719,1989870,0
1712124757502,1712124750759,1991832,0
1712124757502,1712124750799,1993497,0
1712124757502,1712124750839,1995150,0
1712124757502,1712124750879,1996761,0
1712124757502,1712124750919,1998061,0
1712124757502,1712124750959,1997491,0
1712124757502,1712124750999,1995848,0
1712124757502,1712124751039,1993838,0
1712124757502,1712124751079,1992526,0
1712124757502,1712124751119,1992496,0
1712124757502,1712124751159,1993898,0
1712124757502,1712124751199,1994634,0
1712124757502,1712124751239,1995257,0
1712124757502,1712124751279,1995499,0
1712124757502,1712124751319,1996315,0
1712124757502,1712124751359,1997639,0
1712124757502,1712124751399,1998115,0
1712124757502,1712124751439,1998072,0
1712124757502,1712124751479,1998452,0
1712124757502,1712124751519,1999086,0
1712124757502,1712124751559,2000112,0
1712124757502,1712124751599,2000742,0
1712124757502,1712124751639,1999319,0
1712124757502,1712124751679,1996042,0
1712124757502,1712124751719,1992163,0
1712124757502,1712124751759,1990051,0
1712124757502,1712124751799,1988939,0
1712124757502,1712124751839,1984185,0
1712124757502,1712124751879,1984637,0
1712124757502,1712124751919,1985156,0
1712124757502,1712124751959,1989165,0
1712124757502,1712124751999,1990448,0
1712124757502,1712124752039,1993202,0
1712124757502,1712124752079,2003758,0
1712124757502,1712124752119,2009201,0
1712124757502,1712124752159,2013102,0
1712124757502,1712124752199,2013949,0
1712124757502,1712124752239,2013095,0
1712124757502,1712124752279,2011286,0
1712124757502,1712124752319,2008034,0
1712124757502,1712124752359,2005930,0
1712124757502,1712124752399,1999810,0
1712124757502,1712124752439,1997181,0
1712124757502,1712124752479,1997570,0
1712124757502,1712124752519,1997708,0
1712124757502,1712124752559,1998600,0
1712124757502,1712124752599,1999893,0
1712124757502,1712124752639,1999504,0
1712124757502,1712124752679,1996848,0
1712124757502,1712124752719,1993500,0
1712124757502,1712124752759,1988600,0
1712124757502,1712124752799,1985340,0
1712124757502,1712124752839,1982505,0
1712124757502,1712124752879,1980387,0
1712124757502,1712124752919,1980002,0
1712124757502,1712124752959,1979781,0
1712124757502,1712124752999,1979122,0
1712124757502,1712124753039,1977925,0
1712124757502,1712124753079,1975647,0
1712124757502,1712124753119,1971727,0
1712124757502,1712124753159,1968164,0
1712124757502,1712124753199,1964617,0
1712124757502,1712124753239,1962408,0
1712124757502,1712124753279,1959630,0
1712124757502,1712124753319,1959689,0
1712124757502,1712124753359,1958645,0
1712124757502,1712124753399,1952833,0
1712124757502,1712124753439,1950123,0
1712124757502,1712124753479,1946564,0
1712124757502,1712124753519,1944959,0
1712124757502,1712124753559,1943095,0
1712124757502,1712124753599,1943142,0
1712124757502,1712124753639,1943055,0
1712124757502,1712124753679,1941842,0
1712124757502,1712124753719,1939837,0
1712124757502,1712124753759,1945480,0
1712124757502,1712124753799,1940067,0
1712124757502,1712124753839,1933247,0
1712124757502,1712124753879,1931884,0
1712124757502,1712124753919,1929938,0
1712124757502,1712124753959,1926381,0
1712124757502,1712124753999,1924899,0
1712124757502,1712124754039,1920557,0
1712124757502,1712124754079,1915819,0
1712124757502,1712124754119,1909960,0
1712124757502,1712124754159,1904854,0
1712124757502,1712124754199,1904625,0
1712124757502,1712124754239,1911228,0
1712124757502,1712124754279,1915378,0
1712124757502,1712124754319,1920861,0
1712124757502,1712124754359,1929399,0
1712124757502,1712124754399,1930355,0
1712124757502,1712124754439,1935750,0
1712124757502,1712124754479,1941015,0
1712124757502,1712124754519,1946592,0
1712124757502,1712124754559,1950862,0
1712124757502,1712124754599,1954264,0
1712124757502,1712124754639,1958045,0
1712124757502,1712124754679,1965770,0
1712124757502,1712124754719,1970849,0
1712124757502,1712124754759,1971336,0
1712124757502,1712124754799,1959941,0
1712124757502,1712124754839,1954640,0
1712124757502,1712124754879,1962653,0
1712124757502,1712124754919,1965903,0
1712124757502,1712124754959,1969154,0
1712124757502,1712124754999,1977597,0
1712124757502,1712124755039,1980588,0
1712124757502,1712124755079,1978985,0
1712124757502,1712124755119,1981096,0
1712124757502,1712124755159,1979380,0
1712124757502,1712124755199,1979367,0
1712124757502,1712124755239,1982714,0
1712124757502,1712124755279,1979052,0
1712124757502,1712124755319,1978429,0
1712124757502,1712124755359,1974855,0
1712124757502,1712124755399,1969271,0
1712124757502,1712124755439,1964459,0
1712124757502,1712124755479,1966761,0
1712124757502,1712124755519,1967035,0
1712124757502,1712124755559,1964514,0
1712124757502,1712124755599,1964307,0
1712124757502,1712124755639,1964001,0
1712124757502,1712124755679,1962836,0
1712124757502,1712124755719,1962853,0
1712124757502,1712124755759,1961502,0
1712124757502,1712124755799,1960947,0
1712124757502,1712124755839,1961054,0
1712124757502,1712124755879,1957153,0
1712124757502,1712124755919,1952489,0
1712124757502,1712124755959,1949839,0
1712124757502,1712124755999,1947765,0
1712124757502,1712124756039,1946882,0
1712124757502,1712124756079,1945547,0
1712124757502,1712124756119,1945015,0
1712124757502,1712124756159,1944146,0
1712124757502,1712124756199,1943082,0
1712124757502,1712124756239,1942007,0
1712124757502,1712124756279,1940862,0
1712124757502,1712124756319,1940000,0
1712124757502,1712124756359,1938869,0
1712124757502,1712124756399,1938310,0
1712124757502,1712124756439,1939135,0
1712124757502,1712124756479,1939710,0
1712124757502,1712124756519,1939482,0
1712124757502,1712124756559,1939355,0
1712124757502,1712124756599,1938377,0
1712124757502,1712124756639,1936666,0
1712124757502,1712124756679,1934938,0
1712124757502,1712124756719,1933215,0
1712124757502,1712124756759,1932044,0
1712124757502,1712124756799,1932411,0
1712124757502,1712124756839,1931752,0
1712124757502,1712124756879,1934737,0
1712124757502,1712124756919,1940440,0
1712124757502,1712124756959,1942499,0
1712124757502,1712124756999,1942318,0
1712124757502,1712124757039,1943108,0
1712124757502,1712124757079,1944730,0
1712124757502,1712124757119,1950095,0
1712124757502,1712124757159,1958937,0
1712124757502,1712124757199,1965474,0
1712124757502,1712124757239,1974248,0
1712124757502,1712124757279,1983452,0
1712124757502,1712124757319,1988285,0
1712124757502,1712124757359,1989468,0
1712124757502,1712124757399,1990302,0
1712124757502,1712124757439,1990283,0
1712124769576,1712124757528,1992756,0
1712124769576,1712124757569,1989608,0
1712124769576,1712124757609,1996325,0
1712124769576,1712124757649,1997516,0
1712124769576,1712124757689,1998550,0
1712124769576,1712124757729,2000844,0
1712124769576,1712124757770,2002062,0
1712124769576,1712124757809,2002925,0
1712124769576,1712124757849,2004141,0
1712124769576,1712124757889,2005389,0
1712124769576,1712124757929,2007107,0
1712124769576,1712124757970,2008784,0
1712124769576,1712124758010,2010622,0
1712124769576,1712124758050,2012048,0
1712124769576,1712124758090,2012639,0
1712124769576,1712124758130,2012337,0
1712124769576,1712124758171,2012068,0
1712124769576,1712124758210,2012108,0
1712124769576,1712124758250,2011560,0
1712124769576,1712124758290,2011527,0
1712124769576,1712124758331,2012691,0
1712124769576,1712124758371,2014647,0
1712124769576,1712124758411,2016045,0
1712124769576,1712124758451,2017381,0
1712124769576,1712124758491,2019631,0
1712124769576,1712124758531,2021678,0
1712124769576,1712124758572,2023307,0
1712124769576,1712124758611,2025075,0
1712124769576,1712124758651,2026892,0
1712124769576,1712124758692,2029597,0
1712124769576,1712124758731,2032009,0
1712124769576,1712124758772,2034408,0
1712124769576,1712124758812,2036614,0
1712124769576,1712124758852,2037619,0
1712124769576,1712124758892,2037761,0
1712124769576,1712124758932,2038138,0
1712124769576,1712124758973,2038971,0
1712124769576,1712124759012,2040969,0
1712124769576,1712124759053,2042990,0
1712124769576,1712124759093,2044572,0
1712124769576,1712124759133,2045308,0
1712124769576,1712124759174,2045998,0
1712124769576,1712124759213,2046031,0
1712124769576,1712124759253,2047202,0
1712124769576,1712124759293,2046683,0
1712124769576,1712124759333,2048486,0
1712124769576,1712124759374,2049064,0
1712124769576,1712124759414,2049736,0
1712124769576,1712124759454,2050568,0
1712124769576,1712124759494,2051465,0
1712124769576,1712124759534,2052265,0
1712124769576,1712124759575,2052665,0
1712124769576,1712124759614,2052041,0
1712124769576,1712124759654,2051108,0
1712124769576,1712124759694,2050382,0
1712124769576,1712124759734,2050066,0
1712124769576,1712124759775,2050186,0
1712124769576,1712124759815,2050483,0
1712124769576,1712124759855,2050678,0
1712124769576,1712124759895,2050873,0
1712124769576,1712124759935,2051069,0
1712124769576,1712124759976,2051460,0
1712124769576,1712124760015,2051880,0
1712124769576,1712124760055,2052418,0
1712124769576,1712124760095,2052846,0
1712124769576,1712124760136,2053426,0
1712124769576,1712124760176,2053989,0
1712124769576,1712124760216,2054854,0
1712124769576,1712124760256,2055400,0
1712124769576,1712124760296,2054820,0
1712124769576,1712124760336,2053165,0
1712124769576,1712124760377,2051336,0
1712124769576,1712124760416,2049865,0
1712124769576,1712124760458,2048758,0
1712124769576,1712124760497,2048300,0
1712124769576,1712124760537,2048032,0
1712124769576,1712124760578,2047611,0
1712124769576,1712124760617,2046844,0
1712124769576,1712124760657,2046139,0
1712124769576,1712124760697,2045680,0
1712124769576,1712124760738,2045309,0
1712124769576,1712124760778,2045205,0
1712124769576,1712124760818,2045164,0
1712124769576,1712124760858,2045111,0
1712124769576,1712124760898,2045239,0
1712124769576,1712124760938,2045390,0
1712124769576,1712124760979,2045551,0
1712124769576,1712124761018,2044901,0
1712124769576,1712124761058,2042704,0
1712124769576,1712124761098,2040097,0
1712124769576,1712124761138,2037648,0
1712124769576,1712124761179,2035866,0
1712124769576,1712124761219,2034542,0
1712124769576,1712124761259,2033648,0
1712124769576,1712124761299,2032865,0
1712124769576,1712124761339,2031940,0
1712124769576,1712124761379,2030867,0
1712124769576,1712124761419,2030067,0
1712124769576,1712124761459,2029411,0
1712124769576,1712124761499,2029178,0
1712124769576,1712124761539,2028830,0
1712124769576,1712124761580,2028923,0
1712124769576,1712124761619,2028837,0
1712124769576,1712124761659,2029112,0
1712124769576,1712124761700,2029347,0
1712124769576,1712124761740,2029340,0
1712124769576,1712124761780,2027717,0
1712124769576,1712124761820,2025105,0
1712124769576,1712124761860,2022481,0
1712124769576,1712124761900,2020413,0
1712124769576,1712124761940,2019072,0
1712124769576,1712124761981,2018339,0
1712124769576,1712124762020,2017591,0
1712124769576,1712124762061,2017043,0
1712124769576,1712124762101,2016170,0
1712124769576,1712124762141,2015355,0
1712124769576,1712124762182,2014810,0
1712124769576,1712124762221,2014533,0
1712124769576,1712124762261,2014362,0
1712124769576,1712124762302,2014197,0
1712124769576,1712124762342,2014262,0
1712124769576,1712124762383,2014319,0
1712124769576,1712124762422,2014469,0
1712124769576,1712124762462,2014801,0
1712124769576,1712124762502,2014185,0
1712124769576,1712124762543,2012048,0
1712124769576,1712124762583,2009519,0
1712124769576,1712124762623,2007328,0
1712124769576,1712124762665,2005787,0
1712124769576,1712124762705,2005023,0
1712124769576,1712124762746,2004555,0
1712124769576,1712124762787,2004253,0
1712124769576,1712124762826,2003488,0
1712124769576,1712124762866,2002865,0
1712124769576,1712124762907,2002417,0
1712124769576,1712124762947,2002229,0
1712124769576,1712124762988,2002312,0
1712124769576,1712124763027,2002543,0
1712124769576,1712124763067,2003146,0
1712124769576,1712124763108,2003397,0
1712124769576,1712124763148,2004099,0
1712124769576,1712124763189,2004730,0
1712124769576,1712124763229,2004220,0
1712124769576,1712124763269,2002375,0
1712124769576,1712124763309,2000196,0
1712124769576,1712124763349,1998248,0
1712124769576,1712124763390,1998674,0
1712124769576,1712124763430,1998183,0
1712124769576,1712124763472,1997968,0
1712124769576,1712124763511,1997269,0
1712124769576,1712124763551,1996309,0
1712124769576,1712124763592,1997309,0
1712124769576,1712124763631,1999098,0
1712124769576,1712124763671,2003072,0
1712124769576,1712124763712,2006002,0
1712124769576,1712124763752,2007553,0
1712124769576,1712124763793,2008653,0
1712124769576,1712124763832,2008914,0
1712124769576,1712124763873,2009959,0
1712124769576,1712124763913,2010899,0
1712124769576,1712124763953,2010651,0
1712124769576,1712124763994,2003735,0
1712124769576,1712124764034,2006511,0
1712124769576,1712124764074,2005129,0
1712124769576,1712124764114,2006411,0
1712124769576,1712124764154,2010180,0
1712124769576,1712124764195,2016432,0
1712124769576,1712124764235,2026781,0
1712124769576,1712124764275,2035069,0
1712124769576,1712124764315,2039079,0
1712124769576,1712124764356,2039453,0
1712124769576,1712124764397,2036836,0
1712124769576,1712124764436,2030180,0
1712124769576,1712124764477,2023159,0
1712124769576,1712124764517,2018293,0
1712124769576,1712124764557,2008306,0
1712124769576,1712124764598,2006652,0
1712124769576,1712124764638,2013693,0
1712124769576,1712124764678,2018430,0
1712124769576,1712124764718,2019903,0
1712124769576,1712124764758,2029935,0
1712124769576,1712124764799,2034147,0
1712124769576,1712124764839,2042812,0
1712124769576,1712124764879,2055466,0
1712124769576,1712124764919,2062758,0
1712124769576,1712124764959,2069499,0
1712124769576,1712124765000,2073791,0
1712124769576,1712124765039,2071581,0
1712124769576,1712124765080,2089177,0
1712124769576,1712124765120,2109569,0
1712124769576,1712124765160,2112475,0
1712124769576,1712124765201,2121509,0
1712124769576,1712124765240,2124699,0
1712124769576,1712124765280,2122697,0
1712124769576,1712124765321,2122146,0
1712124769576,1712124765361,2121473,0
1712124769576,1712124765402,2120402,0
1712124769576,1712124765441,2120763,0
1712124769576,1712124765481,2121829,0
1712124769576,1712124765521,2121142,0
1712124769576,1712124765562,2115453,0
1712124769576,1712124765603,2110330,0
1712124769576,1712124765642,2113964,0
1712124769576,1712124765685,2113554,0
1712124769576,1712124765722,2110945,0
1712124769576,1712124765763,2112020,0
1712124769576,1712124765804,2113197,0
1712124769576,1712124765843,2116851,0
1712124769576,1712124765883,2119098,0
1712124769576,1712124765924,2118974,0
1712124769576,1712124765964,2119023,0
1712124769576,1712124766005,2121437,0
1712124769576,1712124766044,2123292,0
1712124769576,1712124766084,2121757,0
1712124769576,1712124766124,2119553,0
1712124769576,1712124766165,2117723,0
1712124769576,1712124766206,2116261,0
1712124769576,1712124766246,2113501,0
1712124769576,1712124766286,2109495,0
1712124769576,1712124766326,2104431,0
1712124769576,1712124766366,2081306,0
1712124769576,1712124766408,2096086,0
1712124769576,1712124766447,2113829,0
1712124769576,1712124766489,2123769,0
1712124769576,1712124766528,2128879,0
1712124769576,1712124766568,2132965,0
1712124769576,1712124766609,2135861,0
1712124769576,1712124766648,2135255,0
1712124769576,1712124766688,2137157,0
1712124769576,1712124766729,2142868,0
1712124769576,1712124766769,2140062,0
1712124769576,1712124766810,2137924,0
1712124769576,1712124766850,2135324,0
1712124769576,1712124766890,2130150,0
1712124769576,1712124766930,2123964,0
1712124769576,1712124766970,2119054,0
1712124769576,1712124767011,2116383,0
1712124769576,1712124767051,2115825,0
1712124769576,1712124767091,2115085,0
1712124769576,1712124767131,2114842,0
1712124769576,1712124767172,2114250,0
1712124769576,1712124767213,2114804,0
1712124769576,1712124767252,2116804,0
1712124769576,1712124767292,2118064,0
1712124769576,1712124767333,2118840,0
1712124769576,1712124767373,2121029,0
1712124769576,1712124767414,2122992,0
1712124769576,1712124767453,2125229,0
1712124769576,1712124767494,2126670,0
1712124769576,1712124767534,2124660,0
1712124769576,1712124767574,2120547,0
1712124769576,1712124767615,2117064,0
1712124769576,1712124767655,2114096,0
1712124769576,1712124767695,2110747,0
1712124769576,1712124767735,2106321,0
1712124769576,1712124767775,2105323,0
1712124769576,1712124767816,2106261,0
1712124769576,1712124767856,2108539,0
1712124769576,1712124767899,2110795,0
1712124769576,1712124767936,2112549,0
1712124769576,1712124767977,2113184,0
1712124769576,1712124768018,2113333,0
1712124769576,1712124768057,2112952,0
1712124769576,1712124768097,2111521,0
1712124769576,1712124768138,2109112,0
1712124769576,1712124768178,2107060,0
1712124769576,1712124768219,2104438,0
1712124769576,1712124768258,2099918,0
1712124769576,1712124768298,2096830,0
1712124769576,1712124768339,2092299,0
1712124769576,1712124768379,2085093,0
1712124769576,1712124768420,2077884,0
1712124769576,1712124768459,2071865,0
1712124769576,1712124768499,2066482,0
1712124769576,1712124768539,2063785,0
1712124769576,1712124768580,2061667,0
1712124769576,1712124768620,2056443,0
1712124769576,1712124768660,2050387,0
1712124769576,1712124768700,2044755,0
1712124769576,1712124768740,2039968,0
1712124769576,1712124768780,2035589,0
1712124769576,1712124768821,2031661,0
1712124769576,1712124768861,2027940,0
1712124769576,1712124768901,2024134,0
1712124769576,1712124768941,2020561,0
1712124769576,1712124768981,2017169,0
1712124769576,1712124769022,2014053,0
1712124769576,1712124769062,2009423,0
1712124769576,1712124769102,2002800,0
1712124769576,1712124769142,1995688,0
1712124769576,1712124769182,1989501,0
1712124769576,1712124769223,1984142,0
1712124769576,1712124769263,1979817,0
1712124769576,1712124769303,1976007,0
1712124769576,1712124769343,1971923,0
1712124769576,1712124769383,1967639,0
1712124769576,1712124769424,1963634,0
1712124769576,1712124769464,1960121,0
1712124769576,1712124769505,1957073,0
1712124769576,1712124769545,1954634,0
1712124781621,1712124769584,1952407,0
1712124781621,1712124769623,1950260,0
1712124781621,1712124769662,1948405,0
1712124781621,1712124769701,1946989,0
1712124781621,1712124769740,1945577,0
1712124781621,1712124769779,1944473,0
1712124781621,1712124769818,1941047,0
1712124781621,1712124769857,1935324,0
1712124781621,1712124769896,1929214,0
1712124781621,1712124769935,1924521,0
1712124781621,1712124769974,1920884,0
1712124781621,1712124770013,1918305,0
1712124781621,1712124770052,1916227,0
1712124781621,1712124770091,1913998,0
1712124781621,1712124770130,1911772,0
1712124781621,1712124770169,1910029,0
1712124781621,1712124770208,1908910,0
1712124781621,1712124770247,1908290,0
1712124781621,1712124770286,1907940,0
1712124781621,1712124770325,1907625,0
1712124781621,1712124770364,1907381,0
1712124781621,1712124770404,1907389,0
1712124781621,1712124770444,1907629,0
1712124781621,1712124770484,1908130,0
1712124781621,1712124770524,1908431,0
1712124781621,1712124770564,1906547,0
1712124781621,1712124770604,1903082,0
1712124781621,1712124770644,1899974,0
1712124781621,1712124770684,1898057,0
1712124781621,1712124770724,1896841,0
1712124781621,1712124770764,1896427,0
1712124781621,1712124770804,1896186,0
1712124781621,1712124770844,1895590,0
1712124781621,1712124770884,1895144,0
1712124781621,1712124770924,1895244,0
1712124781621,1712124770964,1895739,0
1712124781621,1712124771004,1896601,0
1712124781621,1712124771044,1897725,0
1712124781621,1712124771084,1899128,0
1712124781621,1712124771124,1900564,0
1712124781621,1712124771164,1902185,0
1712124781621,1712124771204,1903816,0
1712124781621,1712124771244,1905144,0
1712124781621,1712124771284,1903903,0
1712124781621,1712124771324,1900922,0
1712124781621,1712124771364,1898350,0
1712124781621,1712124771404,1897335,0
1712124781621,1712124771444,1897059,0
1712124781621,1712124771484,1897511,0
1712124781621,1712124771524,1898050,0
1712124781621,1712124771564,1898301,0
1712124781621,1712124771604,1898429,0
1712124781621,1712124771644,1898787,0
1712124781621,1712124771684,1899568,0
1712124781621,1712124771724,1900977,0
1712124781621,1712124771764,1902514,0
1712124781621,1712124771804,1904037,0
1712124781621,1712124771844,1905917,0
1712124781621,1712124771884,1907617,0
1712124781621,1712124771924,1909328,0
1712124781621,1712124771964,1911185,0
1712124781621,1712124772004,1912600,0
1712124781621,1712124772044,1911450,0
1712124781621,1712124772084,1909215,0
1712124781621,1712124772124,1907561,0
1712124781621,1712124772164,1907256,0
1712124781621,1712124772204,1907570,0
1712124781621,1712124772244,1908432,0
1712124781621,1712124772284,1909583,0
1712124781621,1712124772324,1910215,0
1712124781621,1712124772364,1910538,0
1712124781621,1712124772404,1911085,0
1712124781621,1712124772444,1912253,0
1712124781621,1712124772484,1913692,0
1712124781621,1712124772524,1915353,0
1712124781621,1712124772564,1919471,0
1712124781621,1712124772604,1923957,0
1712124781621,1712124772644,1927521,0
1712124781621,1712124772684,1931680,0
1712124781621,1712124772724,1935893,0
1712124781621,1712124772764,1939255,0
1712124781621,1712124772804,1939343,0
1712124781621,1712124772844,1936117,0
1712124781621,1712124772884,1932578,0
1712124781621,1712124772924,1932111,0
1712124781621,1712124772964,1932203,0
1712124781621,1712124773004,1932827,0
1712124781621,1712124773044,1932816,0
1712124781621,1712124773084,1931719,0
1712124781621,1712124773124,1931013,0
1712124781621,1712124773164,1931196,0
1712124781621,1712124773204,1931541,0
1712124781621,1712124773244,1932138,0
1712124781621,1712124773284,1932992,0
1712124781621,1712124773324,1934197,0
1712124781621,1712124773364,1935847,0
1712124781621,1712124773404,1937411,0
1712124781621,1712124773444,1938865,0
1712124781621,1712124773484,1940633,0
1712124781621,1712124773524,1942517,0
1712124781621,1712124773564,1944436,0
1712124781621,1712124773604,1944631,0
1712124781621,1712124773644,1943674,0
1712124781621,1712124773684,1942844,0
1712124781621,1712124773724,1943235,0
1712124781621,1712124773764,1945957,0
1712124781621,1712124773804,1947635,0
1712124781621,1712124773844,1948513,0
1712124781621,1712124773884,1949261,0
1712124781621,1712124773924,1950432,0
1712124781621,1712124773964,1951820,0
1712124781621,1712124774004,1953688,0
1712124781621,1712124774044,1955464,0
1712124781621,1712124774084,1957422,0
1712124781621,1712124774124,1959483,0
1712124781621,1712124774164,1961697,0
1712124781621,1712124774204,1963740,0
1712124781621,1712124774244,1965812,0
1712124781621,1712124774284,1967846,0
1712124781621,1712124774324,1968224,0
1712124781621,1712124774364,1966983,0
1712124781621,1712124774404,1965647,0
1712124781621,1712124774444,1965520,0
1712124781621,1712124774484,1966304,0
1712124781621,1712124774524,1967534,0
1712124781621,1712124774564,1968706,0
1712124781621,1712124774604,1969495,0
1712124781621,1712124774644,1970056,0
1712124781621,1712124774684,1970693,0
1712124781621,1712124774724,1971806,0
1712124781621,1712124774764,1973230,0
1712124781621,1712124774804,1974617,0
1712124781621,1712124774844,1976131,0
1712124781621,1712124774884,1977708,0
1712124781621,1712124774924,1979141,0
1712124781621,1712124774964,1980804,0
1712124781621,1712124775004,1982330,0
1712124781621,1712124775044,1983965,0
1712124781621,1712124775084,1985646,0
1712124781621,1712124775124,1985687,0
1712124781621,1712124775164,1984195,0
1712124781621,1712124775204,1982998,0
1712124781621,1712124775244,1982635,0
1712124781621,1712124775284,1983220,0
1712124781621,1712124775324,1984093,0
1712124781621,1712124775364,1984942,0
1712124781621,1712124775404,1985603,0
1712124781621,1712124775444,1985899,0
1712124781621,1712124775484,1986355,0
1712124781621,1712124775524,1987215,0
1712124781621,1712124775564,1988446,0
1712124781621,1712124775604,1989646,0
1712124781621,1712124775644,1990975,0
1712124781621,1712124775684,1992156,0
1712124781621,1712124775724,1993439,0
1712124781621,1712124775764,1994871,0
1712124781621,1712124775804,1996367,0
